,Timestamp,Data1,Data2,Label
0,6.0,5.44,9.28,1
1,6.01,12.78,-7.41,1
2,6.03,-10.75,7.12,1
3,6.04,0.61,-6.85,1
4,6.05,-6.62,3.25,1
5,6.07,23.11,-7.45,1
6,6.08,-18.71,-4.52,1
7,6.09,-3.85,1.44,1
8,6.11,25.49,0.13,1
9,6.12,-4.85,13.99,1
10,6.13,16.56,11.13,1
11,6.15,-13.4,-10.57,2
12,6.16,-6.4,-20.75,2
13,6.17,11.05,19.27,2
14,6.19,15.46,-2.66,2
15,6.2,101.19,-7.33,2
16,6.21,195.24,27.55,2
17,6.23,218.54,31.39,2
18,6.24,178.39,43.84,2
19,6.25,126.42,39.58,2
20,6.27,71.91,-12.08,2
21,6.28,25.16,-54.84,2
22,6.29,-54.21,-72.75,2
23,6.31,-101.19,-93.12,2
24,6.32,-130.47,-72.6,2
25,6.33,-168.79,-55.07,2
26,6.35,-192.3,-20.61,2
27,6.36,-199.12,-9.08,2
28,6.37,-149.94,10.43,2
29,6.39,-181.71,18.24,2
30,6.4,-158.67,35.1,2
31,6.41,-153.54,42.06,2
32,6.43,-121.35,45.73,2
33,6.44,-120.43,47.36,2
34,6.45,-91.89,27.11,2
35,6.47,-77.06,21.67,2
36,6.48,-73.53,23.16,2
37,6.49,-73.46,42.27,2
38,6.51,-31.98,39.23,2
39,6.52,-12.56,36.98,2
40,6.53,7.64,39.49,2
41,6.55,41.0,23.97,2
42,6.56,44.94,19.0,1
43,6.57,73.61,8.6,1
44,6.59,66.21,4.09,1
45,6.6,86.53,13.99,1
46,6.61,70.39,-10.73,1
47,6.63,95.06,-18.69,1
48,6.64,84.7,-12.87,1
49,6.65,92.49,-16.05,1
50,6.67,98.36,-18.23,1
51,6.68,89.2,2.54,1
52,6.69,86.15,-25.25,1
53,6.71,76.81,-26.45,1
54,6.72,74.47,-23.45,1
55,6.73,97.46,-6.77,1
56,6.75,68.18,-20.5,1
57,6.76,59.29,-15.21,1
58,6.77,76.79,-7.8,1
59,6.79,92.3,3.86,1
60,6.8,65.52,2.35,1
61,6.81,39.21,-14.59,1
62,6.83,37.24,-27.6,1
63,6.84,59.37,-35.94,1
64,6.85,34.54,-16.23,1
65,6.87,32.43,-25.28,1
66,6.88,28.06,-16.55,1
67,6.89,13.02,-2.67,1
68,6.91,-5.78,-14.73,1
69,6.92,-6.98,-15.64,1
70,6.93,2.58,-15.64,1
71,6.95,-15.26,4.89,1
72,6.96,-24.41,13.72,1
73,6.97,-26.2,-15.02,1
74,6.99,-8.48,-8.63,1
75,7.0,-23.7,-10.87,1
76,7.01,-36.46,0.3,1
77,7.03,-28.3,1.87,1
78,7.04,-22.18,9.2,1
79,7.05,-37.54,6.8,1
80,7.07,-44.75,6.95,1
81,7.08,-52.43,23.47,1
82,7.09,-42.52,-3.04,1
83,7.11,-32.66,14.66,1
84,7.12,-39.78,14.31,1
85,7.13,-44.11,11.83,1
86,7.15,-31.6,7.12,1
87,7.16,-27.53,17.55,1
88,7.17,-18.01,11.15,1
89,7.19,-26.55,16.55,1
90,7.2,-16.04,16.56,1
91,7.21,-28.92,-1.65,1
92,7.23,-34.85,-18.09,1
93,7.24,-14.46,-16.73,1
94,7.25,-15.59,19.07,1
95,7.27,-25.19,-4.26,1
96,7.28,-21.72,16.88,1
97,7.29,-6.84,11.11,1
98,7.31,-31.13,3.22,1
99,7.32,-30.57,10.75,1
100,7.33,-30.51,14.57,1
101,7.35,-7.68,2.97,1
102,7.36,-13.43,11.92,1
103,7.37,-16.93,20.1,1
104,7.39,-10.35,19.87,1
105,7.4,3.3,-0.14,1
106,7.41,-3.99,-6.37,1
107,7.43,-14.16,-13.06,1
108,7.44,-5.33,-20.11,1
109,7.45,18.75,5.28,1
110,7.47,13.48,-3.39,1
111,7.48,-12.31,-16.32,1
112,7.49,-7.68,-2.94,1
113,7.51,11.41,-8.91,1
114,7.52,0.79,-1.12,1
115,7.53,1.9,4.94,1
116,7.55,-4.59,10.69,1
117,7.56,19.51,-2.65,1
118,7.57,11.34,-5.91,1
119,7.59,19.27,-10.1,1
120,7.6,26.98,1.24,1
121,7.61,11.13,10.31,1
122,7.63,11.21,13.03,1
123,7.64,12.4,-1.67,1
124,7.65,24.07,-13.17,1
125,7.67,12.62,1.14,1
126,7.68,-1.35,-1.9,1
127,7.69,8.37,-10.43,1
128,7.71,9.89,-10.1,1
129,7.72,16.31,-1.26,1
130,7.73,10.38,-10.58,1
131,7.75,17.04,-21.59,1
132,7.76,29.92,6.02,1
133,7.77,8.56,-6.99,1
134,7.79,5.34,2.19,1
135,7.8,4.63,2.48,1
136,7.81,24.02,-7.61,1
137,7.83,13.26,14.78,1
138,7.84,-8.71,1.25,1
139,7.85,4.27,11.59,1
140,7.87,11.75,-2.35,1
141,7.88,3.08,-0.51,1
142,7.89,-7.03,-4.59,1
143,7.91,-7.53,6.89,1
144,7.92,8.72,-2.51,1
145,7.93,-2.67,-10.97,1
146,7.95,-10.35,3.11,1
147,7.96,-3.37,-2.67,1
148,7.97,6.39,-8.72,1
149,7.99,-5.38,0.07,1
150,8.0,-1.42,18.6,1
151,8.01,-16.78,-7.41,1
152,8.03,-5.77,26.25,1
153,8.04,1.23,-2.37,1
154,8.05,-3.82,-6.29,1
155,8.07,19.02,-10.3,1
156,8.08,14.34,-2.32,1
157,8.09,-6.66,10.01,1
158,8.11,-6.99,-2.78,1
159,8.12,11.76,0.52,1
160,8.13,-23.51,-1.49,1
161,8.15,12.8,19.27,0
162,8.16,-1.34,14.33,0
163,8.17,-103.24,-3.17,0
164,8.19,-116.21,19.0,0
165,8.2,-197.0,6.02,0
166,8.21,-174.29,13.75,0
167,8.23,-187.49,9.28,0
168,8.24,-161.08,-17.72,0
169,8.25,-105.01,-8.23,0
170,8.27,-75.57,-46.16,0
171,8.28,-12.26,-27.76,0
172,8.29,25.5,-9.61,0
173,8.31,89.13,-28.44,0
174,8.32,200.62,-9.65,0
175,8.33,280.55,-16.76,0
176,8.35,286.66,-21.78,0
177,8.36,279.16,-2.14,0
178,8.37,278.12,26.34,0
179,8.39,256.15,22.68,0
180,8.4,217.39,12.82,0
181,8.41,166.57,3.85,0
182,8.43,145.08,7.83,0
183,8.44,99.75,19.04,0
184,8.45,68.62,6.04,0
185,8.47,39.82,-3.23,0
186,8.48,13.04,6.47,0
187,8.49,-37.38,4.59,0
188,8.51,-47.26,1.54,0
189,8.52,-66.97,-5.33,0
190,8.53,-56.83,-10.15,0
191,8.55,-78.54,-3.68,1
192,8.56,-89.63,3.05,1
193,8.57,-97.54,-4.57,1
194,8.59,-95.4,13.77,1
195,8.6,-102.29,5.57,1
196,8.61,-115.6,12.78,1
197,8.63,-152.36,22.35,1
198,8.64,-116.6,11.08,1
199,8.65,-118.62,2.92,1
200,8.67,-98.96,8.23,1
201,8.68,-98.09,-9.27,1
202,8.69,-73.75,-12.82,1
203,8.71,-89.82,20.31,1
204,8.72,-68.86,-11.87,1
205,8.73,-54.61,6.32,1
206,8.75,-54.09,7.57,1
207,8.76,-44.53,-2.76,1
208,8.77,-57.53,-13.59,1
209,8.79,-34.79,-9.25,1
210,8.8,-50.74,-22.21,1
211,8.81,-49.13,-11.4,1
212,8.83,-47.59,-1.89,1
213,8.84,-15.47,-4.26,1
214,8.85,0.0,-9.53,1
215,8.87,-4.65,2.02,1
216,8.88,-8.4,15.45,1
217,8.89,18.41,3.45,1
218,8.91,-8.67,1.06,1
219,8.92,10.66,-7.84,1
220,8.93,21.74,6.84,1
221,8.95,14.84,-5.78,1
222,8.96,29.22,2.49,1
223,8.97,24.22,-2.74,1
224,8.99,29.58,1.66,1
225,9.0,41.1,-17.4,1
226,9.01,18.44,4.88,1
227,9.03,19.62,-6.26,1
228,9.04,16.31,-2.24,1
229,9.05,45.0,6.98,1
230,9.07,47.34,4.56,1
231,9.08,26.59,7.42,1
232,9.09,51.31,10.88,1
233,9.11,40.56,-11.21,1
234,9.12,31.57,11.52,1
235,9.13,31.73,-0.46,1
236,9.15,17.66,3.37,1
237,9.16,32.72,-3.55,1
238,9.17,28.33,2.86,1
239,9.19,24.17,6.61,1
240,9.2,45.27,-10.55,1
241,9.21,34.61,-7.29,1
242,9.23,31.21,-2.61,1
243,9.24,12.28,-3.55,1
244,9.25,37.05,-8.32,1
245,9.27,33.89,-11.23,1
246,9.28,11.77,1.66,1
247,9.29,5.9,-2.95,1
248,9.31,27.95,6.14,1
249,9.32,18.79,3.83,1
250,9.33,16.86,13.47,1
251,9.35,10.08,2.83,1
252,9.36,9.98,2.98,1
253,9.37,-0.81,1.31,1
254,9.39,-2.62,6.38,1
255,9.4,-9.66,18.54,1
256,9.41,6.41,-4.61,1
257,9.43,3.39,-0.84,1
258,9.44,-5.27,-7.77,1
259,9.45,4.73,-2.67,1
260,9.47,0.56,-3.02,1
261,9.48,-1.25,-14.35,1
262,9.49,-24.08,-6.39,1
263,9.51,9.79,6.16,1
264,9.52,0.21,9.76,1
265,9.53,-8.16,6.75,1
266,9.55,-21.1,-14.25,1
267,9.56,-14.84,3.39,1
268,9.57,-3.3,3.71,1
269,9.59,-2.79,-2.58,1
270,9.6,-17.78,-0.2,1
271,9.61,-4.24,17.73,1
272,9.63,-14.14,6.09,1
273,9.64,-18.84,1.49,1
274,9.65,-28.84,2.18,1
275,9.67,-10.21,-1.56,1
276,9.68,-28.08,1.08,1
277,9.69,-23.22,1.24,1
278,9.71,-22.48,1.62,1
279,9.72,2.0,2.76,1
280,9.73,-6.76,-0.09,1
281,9.75,-11.57,-11.13,1
282,9.76,-11.78,-7.9,1
283,9.77,8.85,9.13,1
284,9.79,-1.39,-0.48,1
285,9.8,-12.66,-4.11,1
286,9.81,-7.62,-0.79,1
287,9.83,6.12,-1.46,1
288,9.84,0.73,-12.19,1
289,9.85,-1.47,-10.81,1
290,9.87,4.2,18.68,1
291,9.88,-26.54,-1.04,1
292,9.89,-6.48,-7.08,1
293,9.91,-8.67,-8.15,1
294,9.92,17.31,-14.47,1
295,9.93,0.42,-12.72,1
296,9.95,-1.73,-4.41,1
297,9.96,-13.65,-2.84,1
298,9.97,18.98,8.44,1
299,9.99,-7.11,-8.01,1
300,10.0,-7.38,9.32,1
301,10.01,-32.59,4.88,1
302,10.03,7.54,-1.5,1
303,10.04,8.22,-3.02,1
304,10.05,-4.64,10.0,1
305,10.07,-3.21,12.01,1
306,10.08,27.57,-6.5,1
307,10.09,-1.75,13.63,1
308,10.11,15.3,6.8,1
309,10.12,-1.25,17.5,1
310,10.13,17.71,13.54,1
311,10.15,13.12,-13.04,0
312,10.16,-15.35,-6.74,0
313,10.17,-63.22,-21.32,0
314,10.19,-135.72,4.94,0
315,10.2,-204.48,8.59,0
316,10.21,-168.56,9.56,0
317,10.23,-150.39,-28.97,0
318,10.24,-96.92,-40.86,0
319,10.25,-67.68,-2.48,0
320,10.27,1.91,-2.48,0
321,10.28,71.69,-4.4,0
322,10.29,109.2,-17.8,0
323,10.31,133.04,19.64,0
324,10.32,178.11,6.75,0
325,10.33,180.38,-1.45,0
326,10.35,172.32,7.17,0
327,10.36,159.46,-3.85,0
328,10.37,174.85,4.74,0
329,10.39,159.56,25.33,0
330,10.4,129.29,17.12,0
331,10.41,110.08,7.78,0
332,10.43,95.93,6.62,0
333,10.44,100.09,5.18,0
334,10.45,77.41,9.74,0
335,10.47,48.25,14.29,0
336,10.48,29.98,4.8,0
337,10.49,43.37,8.36,0
338,10.51,5.36,5.19,0
339,10.52,-18.96,17.31,0
340,10.53,-26.88,-16.97,0
341,10.55,-34.18,2.47,1
342,10.56,-46.44,-16.68,1
343,10.57,-63.79,7.0,1
344,10.59,-42.55,6.89,1
345,10.6,-105.96,17.48,1
346,10.61,-128.73,1.01,1
347,10.63,-115.2,6.73,1
348,10.64,-94.91,5.27,1
349,10.65,-91.6,-16.96,1
350,10.67,-88.12,-5.04,1
351,10.68,-84.91,-22.59,1
352,10.69,-67.65,-10.81,1
353,10.71,-64.34,-4.82,1
354,10.72,-61.32,-1.4,1
355,10.73,-82.27,-5.05,1
356,10.75,-56.93,8.53,1
357,10.76,-47.27,-8.78,1
358,10.77,-59.31,-12.5,1
359,10.79,-61.7,12.74,1
360,10.8,-43.02,-15.3,1
361,10.81,-35.89,-8.4,1
362,10.83,-36.78,-10.37,1
363,10.84,-31.38,-9.01,1
364,10.85,-0.64,-9.87,1
365,10.87,-21.3,8.0,1
366,10.88,-21.97,-8.13,1
367,10.89,-8.42,-2.49,1
368,10.91,-0.2,-15.98,1
369,10.92,2.95,-8.54,1
370,10.93,-19.0,11.58,1
371,10.95,2.08,6.98,1
372,10.96,20.93,9.14,1
373,10.97,32.94,-3.66,1
374,10.99,45.56,-2.05,1
375,11.0,35.03,8.05,1
376,11.01,19.29,-2.05,1
377,11.03,26.52,25.25,1
378,11.04,0.41,4.94,1
379,11.05,21.97,-11.08,1
380,11.07,-1.6,2.69,1
381,11.08,30.47,-9.66,1
382,11.09,29.01,9.39,1
383,11.11,50.48,1.54,1
384,11.12,52.8,-5.8,1
385,11.13,41.68,-2.89,1
386,11.15,30.91,9.09,1
387,11.16,60.21,5.08,1
388,11.17,38.69,-3.39,1
389,11.19,27.5,-10.83,1
390,11.2,11.92,-16.54,1
391,11.21,37.14,-9.26,1
392,11.23,20.37,-0.17,1
393,11.24,19.1,5.55,1
394,11.25,32.28,-12.14,1
395,11.27,21.88,-5.58,1
396,11.28,21.83,10.35,1
397,11.29,18.13,-5.34,1
398,11.31,19.54,21.27,1
399,11.32,34.92,18.37,1
400,11.33,-2.96,16.49,1
401,11.35,8.53,1.62,1
402,11.36,23.47,-6.75,1
403,11.37,21.94,-22.93,1
404,11.39,-5.31,8.65,1
405,11.4,-7.79,-1.64,1
406,11.41,4.78,1.87,1
407,11.43,-7.26,-7.17,1
408,11.44,2.88,12.36,1
409,11.45,-9.87,15.22,1
410,11.47,0.51,0.65,1
411,11.48,1.12,9.34,1
412,11.49,-10.86,0.75,1
413,11.51,-19.75,7.62,1
414,11.52,-10.63,5.48,1
415,11.53,-19.73,19.72,1
416,11.55,-29.76,-5.76,1
417,11.56,-27.32,0.19,1
418,11.57,5.89,-8.34,1
419,11.59,-0.57,6.31,1
420,11.6,-18.37,3.27,1
421,11.61,-22.92,-2.18,1
422,11.63,7.03,-21.92,1
423,11.64,2.78,-28.22,1
424,11.65,-15.21,-5.02,1
425,11.67,-29.88,5.32,1
426,11.68,4.43,0.78,1
427,11.69,-19.41,-7.64,1
428,11.71,-14.87,6.35,1
429,11.72,-7.21,-3.64,1
430,11.73,-9.14,1.29,1
431,11.75,11.06,8.5,1
432,11.76,-4.86,-0.73,1
433,11.77,-2.73,-0.24,1
434,11.79,6.56,0.79,1
435,11.8,-13.77,0.01,1
436,11.81,-3.03,-5.0,1
437,11.83,-10.18,3.38,1
438,11.84,-11.34,-9.45,1
439,11.85,-22.28,2.78,1
440,11.87,-14.58,6.1,1
441,11.88,-9.18,-2.04,1
442,11.89,-5.64,6.53,1
443,11.91,-20.07,-8.71,1
444,11.92,-10.35,-17.6,1
445,11.93,-4.61,-20.76,1
446,11.95,-11.17,0.94,1
447,11.96,0.69,8.94,1
448,11.97,10.67,3.83,1
449,11.99,14.12,1.17,1
450,12.0,-1.24,-7.68,1
451,12.01,-19.66,35.44,1
452,12.03,-2.22,-7.24,1
453,12.04,33.64,8.29,1
454,12.05,-1.23,-4.28,1
455,12.07,8.02,-1.81,1
456,12.08,10.64,-0.29,1
457,12.09,26.45,9.57,1
458,12.11,22.6,-5.98,1
459,12.12,13.47,14.88,1
460,12.13,1.07,3.11,1
461,12.15,23.15,16.1,2
462,12.16,-6.56,4.17,2
463,12.17,12.94,22.87,2
464,12.19,19.12,-6.56,2
465,12.2,64.97,-8.67,2
466,12.21,139.32,17.1,2
467,12.23,188.24,-18.53,2
468,12.24,209.65,17.04,2
469,12.25,205.36,2.8,2
470,12.27,176.77,5.24,2
471,12.28,125.04,20.09,2
472,12.29,76.39,-0.68,2
473,12.31,28.86,-2.52,2
474,12.32,-40.09,-9.76,2
475,12.33,-141.86,-24.47,2
476,12.35,-210.94,-36.41,2
477,12.36,-292.36,-22.07,2
478,12.37,-318.68,-22.98,2
479,12.39,-313.95,2.36,2
480,12.4,-275.81,-1.24,2
481,12.41,-258.27,-13.97,2
482,12.43,-223.98,4.36,2
483,12.44,-170.25,-5.89,2
484,12.45,-138.77,-2.71,2
485,12.47,-115.49,-2.52,2
486,12.48,-81.72,-7.2,2
487,12.49,-22.25,-6.68,2
488,12.51,27.12,-1.93,2
489,12.52,10.45,0.07,2
490,12.53,37.4,1.9,2
491,12.55,55.7,-2.36,1
492,12.56,55.82,1.97,1
493,12.57,73.62,-11.13,1
494,12.59,67.28,-2.19,1
495,12.6,87.94,7.69,1
496,12.61,85.9,3.99,1
497,12.63,85.43,26.72,1
498,12.64,102.65,13.72,1
499,12.65,123.04,-6.34,1
500,12.67,90.82,12.39,1
501,12.68,92.84,-7.13,1
502,12.69,85.29,-6.9,1
503,12.71,120.23,-1.59,1
504,12.72,83.79,1.66,1
505,12.73,97.98,10.69,1
506,12.75,80.82,-0.52,1
507,12.76,81.07,7.09,1
508,12.77,90.04,5.93,1
509,12.79,70.84,14.13,1
510,12.8,54.23,20.26,1
511,12.81,66.38,1.5,1
512,12.83,41.07,-1.06,1
513,12.84,49.89,0.19,1
514,12.85,47.28,-11.75,1
515,12.87,42.93,29.11,1
516,12.88,24.92,9.09,1
517,12.89,12.74,4.85,1
518,12.91,25.55,13.32,1
519,12.92,5.52,-1.52,1
520,12.93,-1.47,1.93,1
521,12.95,-16.15,-4.09,1
522,12.96,-7.49,-12.24,1
523,12.97,-15.11,1.32,1
524,12.99,-23.82,6.84,1
525,13.0,-24.11,-2.69,1
526,13.01,-15.2,-7.91,1
527,13.03,-28.5,-7.33,1
528,13.04,-34.81,-12.34,1
529,13.05,-37.03,1.83,1
530,13.07,-27.17,8.89,1
531,13.08,-47.65,-6.46,1
532,13.09,-42.43,0.53,1
533,13.11,-37.12,-16.6,1
534,13.12,-35.07,1.1,1
535,13.13,-52.09,0.44,1
536,13.15,-47.18,-8.64,1
537,13.16,-52.38,2.44,1
538,13.17,-33.59,-17.92,1
539,13.19,-51.95,3.28,1
540,13.2,-44.38,-0.42,1
541,13.21,-28.12,0.0,1
542,13.23,-34.94,-12.82,1
543,13.24,-30.0,2.97,1
544,13.25,-39.57,10.09,1
545,13.27,-23.11,7.22,1
546,13.28,-31.9,19.35,1
547,13.29,-21.71,4.94,1
548,13.31,-18.51,-5.99,1
549,13.32,-16.78,-8.82,1
550,13.33,-23.44,-8.51,1
551,13.35,-30.45,-6.06,1
552,13.36,-17.07,-13.94,1
553,13.37,6.32,7.12,1
554,13.39,-7.84,1.39,1
555,13.4,-3.08,-16.05,1
556,13.41,-14.74,-29.14,1
557,13.43,5.23,-3.13,1
558,13.44,2.14,-2.35,1
559,13.45,3.13,-2.11,1
560,13.47,3.72,11.14,1
561,13.48,16.83,13.34,1
562,13.49,2.12,-4.24,1
563,13.51,4.79,-8.32,1
564,13.52,3.14,22.25,1
565,13.53,3.1,-2.94,1
566,13.55,-6.99,-2.0,1
567,13.56,15.17,-1.84,1
568,13.57,16.37,-2.26,1
569,13.59,31.9,-1.7,1
570,13.6,20.14,-2.71,1
571,13.61,-5.35,-7.91,1
572,13.63,40.0,-4.32,1
573,13.64,17.69,21.44,1
574,13.65,23.41,-14.42,1
575,13.67,15.8,9.55,1
576,13.68,17.37,5.33,1
577,13.69,-0.7,3.64,1
578,13.71,-15.65,4.07,1
579,13.72,-1.18,0.79,1
580,13.73,15.11,10.81,1
581,13.75,15.48,7.1,1
582,13.76,3.0,0.39,1
583,13.77,4.43,-12.94,1
584,13.79,23.7,29.34,1
585,13.8,9.53,18.37,1
586,13.81,-1.87,15.8,1
587,13.83,5.11,0.97,1
588,13.84,16.7,-9.57,1
589,13.85,20.84,-6.83,1
590,13.87,13.54,2.85,1
591,13.88,-0.12,13.93,1
592,13.89,5.05,2.82,1
593,13.91,3.16,2.45,1
594,13.92,13.47,6.42,1
595,13.93,9.89,-10.26,1
596,13.95,13.54,-17.91,1
597,13.96,-10.24,-4.0,1
598,13.97,-14.22,-7.3,1
599,13.99,8.81,3.0,1
600,14.0,0.09,-17.63,1
601,14.01,-0.05,-3.1,1
602,14.03,-11.56,-24.07,1
603,14.04,-5.35,12.44,1
604,14.05,-2.26,9.37,1
605,14.07,4.51,6.16,1
606,14.08,-16.05,-19.73,1
607,14.09,5.41,-3.38,1
608,14.11,8.37,-1.2,1
609,14.12,2.08,6.8,1
610,14.13,-0.58,15.68,1
611,14.15,34.08,72.99,1
612,14.16,149.93,193.75,1
613,14.17,-284.33,261.97,1
614,14.19,121.85,94.82,1
615,14.2,-180.34,-153.45,1
616,14.21,-61.49,79.76,1
617,14.23,-313.27,-542.97,1
618,14.24,77.07,17.64,1
619,14.25,18.4,-127.76,1
620,14.27,311.32,14.23,1
621,14.28,92.44,-216.76,1
622,14.29,33.17,-145.81,1
623,14.31,17.38,195.33,1
624,14.32,-120.46,118.18,1
625,14.33,-13.54,-17.19,1
626,14.35,89.46,195.88,1
627,14.36,335.24,137.2,1
628,14.37,-94.25,-177.89,1
629,14.39,106.68,272.53,1
630,14.4,-52.04,234.37,1
631,14.41,114.43,140.27,1
632,14.43,64.42,146.95,1
633,14.44,-365.95,-157.48,1
634,14.45,-215.8,-380.43,1
635,14.47,-159.93,-288.09,1
636,14.48,-127.16,-218.78,1
637,14.49,76.83,-443.73,1
638,14.51,93.57,-333.36,1
639,14.52,14.36,68.41,1
640,14.53,-37.6,106.67,1
641,14.55,-198.86,463.92,1
642,14.56,60.3,228.54,1
643,14.57,89.6,-43.75,1
644,14.59,104.95,-90.51,1
645,14.6,322.2,259.15,1
646,14.61,-10.48,120.56,1
647,14.63,27.3,-97.36,1
648,14.64,-182.92,-136.54,1
649,14.65,-28.43,102.64,1
650,14.67,70.76,-16.69,1
651,14.68,-215.81,-145.37,1
652,14.69,99.33,-283.35,1
653,14.71,-70.39,146.07,1
654,14.72,-78.51,104.36,1
655,14.73,43.47,-17.65,1
656,14.75,308.57,21.46,1
657,14.76,97.1,142.95,1
658,14.77,367.92,-147.52,1
659,14.79,-26.86,-186.73,1
660,14.8,-5.44,7.58,1
661,14.81,81.15,-82.69,1
662,14.83,-135.36,21.49,1
663,14.84,-99.27,299.25,1
664,14.85,-217.93,9.24,1
665,14.87,51.06,55.27,1
666,14.88,-92.74,-26.56,1
667,14.89,-31.55,-16.55,1
668,14.91,-41.71,-43.53,1
669,14.92,23.78,-44.46,1
670,14.93,-3.3,-4.53,1
671,14.95,-66.75,-132.14,1
672,14.96,-100.34,-84.22,1
673,14.97,-90.12,-73.57,1
674,14.99,-77.19,-68.24,1
675,15.0,-70.95,-47.42,1
676,15.01,-43.9,-13.07,1
677,15.03,-15.64,62.08,1
678,15.04,-30.5,99.02,1
679,15.05,-7.8,129.58,1
680,15.07,0.17,185.89,1
681,15.08,16.7,184.55,1
682,15.09,38.28,159.51,1
683,15.11,19.76,184.01,1
684,15.12,25.67,195.61,1
685,15.13,23.92,141.32,1
686,15.15,31.88,125.19,1
687,15.16,18.98,128.11,1
688,15.17,29.24,100.67,1
689,15.19,26.98,49.79,1
690,15.2,37.49,38.73,1
691,15.21,23.52,26.5,1
692,15.23,36.39,-13.51,1
693,15.24,28.29,-26.81,1
694,15.25,11.17,-35.89,1
695,15.27,17.07,-48.16,1
696,15.28,33.87,-44.67,1
697,15.29,28.08,-69.81,1
698,15.31,0.83,-56.54,1
699,15.32,5.28,-66.97,1
700,15.33,24.13,-73.52,1
701,15.35,8.8,-96.6,1
702,15.36,14.0,-73.81,1
703,15.37,-6.92,-61.47,1
704,15.39,15.74,-84.42,1
705,15.4,5.55,-93.34,1
706,15.41,7.03,-86.6,1
707,15.43,-3.75,-57.98,1
708,15.44,11.14,-75.53,1
709,15.45,8.63,-81.27,1
710,15.47,-10.92,-48.8,1
711,15.48,-20.99,-53.65,1
712,15.49,-8.6,-59.49,1
713,15.51,-31.19,-41.78,1
714,15.52,-14.26,-43.71,1
715,15.53,4.98,-38.05,1
716,15.55,12.04,-38.26,1
717,15.56,-5.94,-26.16,1
718,15.57,-12.95,-33.08,1
719,15.59,2.16,-35.53,1
720,15.6,15.88,-20.93,1
721,15.61,-0.96,4.35,1
722,15.63,21.28,-10.79,1
723,15.64,-0.29,-14.13,1
724,15.65,11.56,-20.29,1
725,15.67,2.9,16.55,1
726,15.68,-14.12,19.31,1
727,15.69,1.26,11.92,1
728,15.71,-20.55,18.07,1
729,15.72,-21.17,8.84,1
730,15.73,-8.86,8.11,1
731,15.75,9.07,-1.24,1
732,15.76,-2.05,5.75,1
733,15.77,-13.5,18.43,1
734,15.79,-6.96,14.61,1
735,15.8,-5.01,26.77,1
736,15.81,-8.84,36.55,1
737,15.83,-10.94,38.6,1
738,15.84,-1.48,31.39,1
739,15.85,-20.26,20.5,1
740,15.87,-14.43,16.49,1
741,15.88,-7.27,21.28,1
742,15.89,7.55,28.64,1
743,15.91,-9.25,19.65,1
744,15.92,-0.66,22.48,1
745,15.93,6.11,28.59,1
746,15.95,4.6,11.69,1
747,15.96,-5.0,12.17,1
748,15.97,-14.3,19.69,1
749,15.99,-5.0,17.31,1
750,16.0,18.29,11.16,1
751,16.01,-14.86,19.9,1
752,16.03,-15.45,19.59,1
753,16.04,-29.32,18.26,1
754,16.05,14.69,1.19,1
755,16.07,1.91,13.51,1
756,16.08,-0.2,10.58,1
757,16.09,22.07,0.73,1
758,16.11,8.86,-2.1,1
759,16.12,15.31,12.46,1
760,16.13,17.6,24.77,1
761,16.15,-14.77,-7.71,1
762,16.16,15.14,-0.53,2
763,16.17,-5.47,10.13,2
764,16.19,-7.86,7.7,2
765,16.2,116.89,1.71,2
766,16.21,175.16,0.39,2
767,16.23,221.16,10.15,2
768,16.24,209.45,14.73,2
769,16.25,166.72,-27.71,2
770,16.27,85.25,-23.8,2
771,16.28,11.01,-30.67,2
772,16.29,-28.64,-7.24,2
773,16.31,-76.7,-11.64,2
774,16.32,-127.6,-3.38,2
775,16.33,-157.41,-24.13,2
776,16.35,-169.04,-7.07,2
777,16.36,-177.74,-11.07,2
778,16.37,-170.43,-17.75,2
779,16.39,-181.28,-22.85,2
780,16.4,-151.43,2.33,2
781,16.41,-132.28,-2.65,2
782,16.42,-121.66,9.48,2
783,16.44,-119.08,17.9,2
784,16.45,-126.74,-2.28,2
785,16.47,-74.58,8.09,2
786,16.48,-62.0,23.64,2
787,16.49,-49.99,13.46,2
788,16.51,-34.3,-0.11,2
789,16.52,-19.13,-2.24,2
790,16.53,-10.83,23.84,2
791,16.55,11.91,6.55,1
792,16.56,29.08,1.11,1
793,16.57,48.92,13.66,1
794,16.59,63.68,19.07,1
795,16.6,56.52,-2.35,1
796,16.61,90.12,6.83,1
797,16.63,80.75,-5.59,1
798,16.64,73.59,-18.87,1
799,16.65,82.93,-5.88,1
800,16.67,103.89,-35.13,1
801,16.68,95.33,-5.08,1
802,16.69,107.44,4.24,1
803,16.71,71.8,-1.71,1
804,16.72,96.99,-24.59,1
805,16.73,77.94,-14.29,1
806,16.75,75.18,-7.37,1
807,16.76,81.72,-20.8,1
808,16.77,67.46,-19.65,1
809,16.79,32.25,-3.96,1
810,16.8,52.12,14.99,1
811,16.81,44.1,-17.38,1
812,16.83,64.08,-23.25,1
813,16.84,44.98,-7.54,1
814,16.85,46.56,-3.31,1
815,16.87,15.12,13.4,1
816,16.88,17.45,-4.36,1
817,16.89,6.74,-1.55,1
818,16.91,-5.86,5.82,1
819,16.92,-14.22,-4.71,1
820,16.93,6.92,10.47,1
821,16.95,3.68,14.03,1
822,16.96,-1.59,19.56,1
823,16.97,-16.65,10.92,1
824,16.99,-16.9,14.36,1
825,17.0,-30.52,7.78,1
826,17.01,-25.73,3.58,1
827,17.03,-6.32,-13.13,1
828,17.04,-34.08,2.87,1
829,17.05,-34.5,2.13,1
830,17.06,-42.8,4.45,1
831,17.08,-27.94,-4.96,1
832,17.09,-40.28,7.33,1
833,17.11,-44.47,7.52,1
834,17.12,-47.61,2.58,1
835,17.13,-35.17,4.82,1
836,17.15,-28.1,-1.64,1
837,17.16,-30.79,-8.81,1
838,17.17,-37.6,-3.35,1
839,17.19,-25.0,-31.08,1
840,17.2,-21.6,7.38,1
841,17.21,-50.21,-3.07,1
842,17.23,-28.02,-5.48,1
843,17.24,-18.42,10.7,1
844,17.25,-27.59,-5.62,1
845,17.27,-19.56,-8.42,1
846,17.28,-15.1,-13.34,1
847,17.29,-7.77,-10.63,1
848,17.31,-13.46,-4.76,1
849,17.32,-29.34,16.39,1
850,17.33,-3.1,24.93,1
851,17.35,-1.07,13.91,1
852,17.36,-7.33,5.6,1
853,17.37,-19.68,-1.78,1
854,17.39,5.13,-6.81,1
855,17.4,2.84,22.4,1
856,17.41,-11.06,14.59,1
857,17.43,9.41,5.72,1
858,17.44,5.1,3.87,1
859,17.45,-7.34,3.21,1
860,17.47,8.54,-8.56,1
861,17.48,-10.26,2.45,1
862,17.49,1.92,-1.93,1
863,17.51,4.64,6.22,1
864,17.52,14.19,2.84,1
865,17.53,10.77,-7.0,1
866,17.55,25.49,5.78,1
867,17.56,5.76,2.11,1
868,17.57,-11.0,-12.51,1
869,17.59,-8.83,-4.58,1
870,17.6,7.21,-11.88,1
871,17.61,24.8,9.64,1
872,17.63,18.88,-5.66,1
873,17.64,-2.25,7.8,1
874,17.65,10.81,10.04,1
875,17.67,-4.07,8.47,1
876,17.68,10.78,-6.05,1
877,17.69,16.97,-20.82,1
878,17.7,24.97,0.21,1
879,17.72,17.68,-2.38,1
880,17.73,4.21,0.25,1
881,17.75,27.11,10.5,1
882,17.76,12.25,-6.2,1
883,17.77,2.47,-0.37,1
884,17.79,3.33,-9.82,1
885,17.8,17.72,2.58,1
886,17.81,22.89,7.08,1
887,17.83,-4.9,-13.54,1
888,17.84,-4.87,-21.31,1
889,17.85,4.18,-2.52,1
890,17.87,-10.48,7.88,1
891,17.88,4.39,1.87,1
892,17.89,-14.0,0.27,1
893,17.91,-5.61,-0.44,1
894,17.92,1.12,7.66,1
895,17.93,18.48,-7.07,1
896,17.95,9.84,-19.06,1
897,17.96,1.21,-9.25,1
898,17.97,-5.95,14.24,1
899,17.99,-8.5,-0.47,1
900,18.0,-3.78,-3.97,1
901,18.01,7.45,13.36,1
902,18.03,-10.29,8.42,1
903,18.04,-29.49,14.88,1
904,18.05,-3.79,7.3,1
905,18.07,4.56,-8.08,1
906,18.08,-17.28,-4.31,1
907,18.09,1.34,-2.68,1
908,18.11,-6.11,3.18,1
909,18.12,17.26,4.25,1
910,18.13,-7.05,5.53,1
911,18.15,-12.84,-11.55,1
912,18.16,29.55,8.16,0
913,18.17,4.61,6.21,0
914,18.19,-15.61,-16.16,0
915,18.2,0.93,-4.78,0
916,18.21,-5.22,6.11,0
917,18.23,-3.66,-8.19,0
918,18.24,-0.31,-22.83,0
919,18.25,-100.76,2.78,0
920,18.27,-133.94,-8.55,0
921,18.28,-198.54,2.61,0
922,18.29,-211.68,19.44,0
923,18.31,-192.99,8.14,0
924,18.32,-159.17,-7.8,0
925,18.33,-108.39,-16.98,0
926,18.34,-61.28,-14.05,0
927,18.36,-8.49,-13.78,0
928,18.37,68.48,-21.7,0
929,18.39,175.41,1.59,0
930,18.4,258.52,19.27,0
931,18.41,282.34,17.31,0
932,18.43,326.14,17.3,0
933,18.44,301.43,15.77,0
934,18.45,249.63,-0.06,0
935,18.47,247.59,15.21,0
936,18.48,200.45,16.89,0
937,18.49,160.35,6.33,0
938,18.51,129.67,4.34,0
939,18.52,94.86,1.33,0
940,18.53,55.79,-5.21,0
941,18.55,23.09,-7.29,1
942,18.56,1.39,6.81,1
943,18.57,-15.78,8.26,1
944,18.59,-53.93,-11.34,1
945,18.6,-65.45,18.23,1
946,18.61,-125.86,37.54,1
947,18.63,-90.15,11.87,1
948,18.64,-120.42,7.1,1
949,18.65,-113.51,-2.64,1
950,18.67,-123.45,-9.42,1
951,18.68,-86.98,-4.44,1
952,18.69,-111.62,-1.68,1
953,18.71,-108.32,-6.25,1
954,18.72,-115.65,-25.63,1
955,18.73,-87.56,-9.71,1
956,18.75,-90.53,1.22,1
957,18.76,-87.54,-11.52,1
958,18.77,-95.67,-12.09,1
959,18.79,-79.66,-8.95,1
960,18.8,-79.73,-5.54,1
961,18.81,-78.65,-2.33,1
962,18.83,-46.56,0.3,1
963,18.84,-55.73,-9.48,1
964,18.85,-57.03,-10.08,1
965,18.87,-70.23,-12.09,1
966,18.88,-50.24,-5.16,1
967,18.89,-38.35,0.27,1
968,18.91,-24.57,-13.49,1
969,18.92,-22.45,-2.95,1
970,18.93,-7.83,6.3,1
971,18.95,3.07,-3.08,1
972,18.96,13.28,-7.59,1
973,18.97,-3.58,-0.03,1
974,18.98,14.87,-5.21,1
975,19.0,5.1,-10.0,1
976,19.01,7.53,1.25,1
977,19.02,16.08,-6.52,1
978,19.04,51.65,-7.59,1
979,19.05,29.61,7.7,1
980,19.07,34.65,1.81,1
981,19.08,26.86,0.78,1
982,19.09,57.06,-0.52,1
983,19.11,32.15,0.82,1
984,19.12,22.56,-1.01,1
985,19.13,19.57,7.37,1
986,19.15,45.58,-0.16,1
987,19.16,64.19,9.67,1
988,19.17,37.43,18.59,1
989,19.19,26.92,0.74,1
990,19.2,47.89,5.72,1
991,19.21,23.92,1.65,1
992,19.23,60.69,13.38,1
993,19.24,58.04,24.55,1
994,19.25,26.74,14.78,1
995,19.27,23.05,0.12,1
996,19.28,19.8,1.04,1
997,19.29,30.02,5.28,1
998,19.31,31.33,11.71,1
999,19.32,27.91,23.16,1
1000,19.33,20.0,-12.03,1
1001,19.35,26.38,10.2,1
1002,19.36,10.65,18.58,1
1003,19.37,12.58,2.74,1
1004,19.39,4.86,-7.36,1
1005,19.4,18.59,-8.33,1
1006,19.41,15.06,4.48,1
1007,19.43,15.5,5.13,1
1008,19.44,-8.34,-5.49,1
1009,19.45,-3.11,-5.58,1
1010,19.47,3.14,-30.06,1
1011,19.48,-17.19,-25.93,1
1012,19.49,-4.81,-14.93,1
1013,19.51,23.85,4.26,1
1014,19.52,-2.08,32.32,1
1015,19.53,-19.94,0.19,1
1016,19.55,-28.55,-6.49,1
1017,19.56,1.44,-4.56,1
1018,19.57,-24.39,-12.49,1
1019,19.59,-21.89,-30.57,1
1020,19.6,2.94,3.37,1
1021,19.61,6.78,4.56,1
1022,19.62,-2.68,7.61,1
1023,19.64,-16.29,14.99,1
1024,19.65,-4.51,-0.97,1
1025,19.67,-27.32,-10.77,1
1026,19.68,-22.11,14.57,1
1027,19.69,-19.68,-10.04,1
1028,19.71,-8.97,-2.42,1
1029,19.72,-21.6,-12.09,1
1030,19.73,-24.17,-9.02,1
1031,19.75,-18.35,0.87,1
1032,19.76,3.79,1.26,1
1033,19.77,-4.78,-1.6,1
1034,19.79,-8.91,3.77,1
1035,19.8,-9.24,12.56,1
1036,19.81,-4.75,5.38,1
1037,19.83,-22.75,4.38,1
1038,19.84,-17.61,1.88,1
1039,19.85,-19.25,0.23,1
1040,19.87,5.19,-10.5,1
1041,19.88,-4.57,-2.96,1
1042,19.89,9.42,15.22,1
1043,19.91,-1.74,5.58,1
1044,19.92,11.55,-23.64,1
1045,19.93,-3.73,8.2,1
1046,19.95,-2.24,7.82,1
1047,19.96,6.46,8.38,1
1048,19.97,-0.69,-2.12,1
1049,19.99,-4.16,-25.07,1
1050,20.0,-8.61,8.78,1
1051,20.01,12.49,-2.94,1
1052,20.03,-2.08,-11.44,1
1053,20.04,-28.47,5.45,1
1054,20.05,7.61,2.28,1
1055,20.07,-2.42,7.08,1
1056,20.08,7.18,-9.9,1
1057,20.09,11.97,-8.25,1
1058,20.11,-7.2,-14.59,1
1059,20.12,21.58,-12.41,1
1060,20.13,2.63,9.1,1
1061,20.15,-2.55,7.97,1
1062,20.16,-20.85,-2.14,0
1063,20.17,-104.39,13.95,0
1064,20.19,-180.61,-5.01,0
1065,20.2,-203.58,-4.06,0
1066,20.21,-223.81,-34.43,0
1067,20.23,-145.84,-28.4,0
1068,20.24,-74.16,-5.02,0
1069,20.25,-24.03,-0.48,0
1070,20.26,42.87,8.44,0
1071,20.28,110.99,3.21,0
1072,20.29,149.48,15.41,0
1073,20.3,162.87,-1.35,0
1074,20.32,199.6,-0.78,0
1075,20.33,199.36,27.93,0
1076,20.35,186.41,17.49,0
1077,20.36,197.83,17.29,0
1078,20.37,196.04,18.76,0
1079,20.39,162.31,15.21,0
1080,20.4,145.25,18.97,0
1081,20.41,129.93,8.08,0
1082,20.43,140.1,16.46,0
1083,20.44,116.73,13.75,0
1084,20.45,67.3,7.29,0
1085,20.47,45.58,14.51,0
1086,20.48,13.03,6.73,0
1087,20.49,-5.48,-0.4,0
1088,20.51,-37.75,-4.75,0
1089,20.52,-61.61,-10.19,0
1090,20.53,-77.91,-10.33,0
1091,20.55,-137.26,-5.89,1
1092,20.56,-121.01,0.92,1
1093,20.57,-107.85,-11.34,1
1094,20.59,-83.76,21.69,1
1095,20.6,-79.44,0.27,1
1096,20.61,-89.64,8.43,1
1097,20.63,-76.14,2.41,1
1098,20.64,-68.14,-5.06,1
1099,20.65,-73.11,7.09,1
1100,20.67,-76.21,-3.84,1
1101,20.68,-80.57,-10.98,1
1102,20.69,-71.98,-28.19,1
1103,20.71,-76.56,-18.38,1
1104,20.72,-73.15,2.85,1
1105,20.73,-75.76,-18.65,1
1106,20.75,-72.14,-22.75,1
1107,20.76,-54.63,-3.65,1
1108,20.77,-62.64,-28.16,1
1109,20.79,-49.24,-20.42,1
1110,20.8,-37.39,-3.76,1
1111,20.81,-35.69,-15.36,1
1112,20.83,-26.7,9.33,1
1113,20.84,-6.33,4.05,1
1114,20.85,-17.74,-4.07,1
1115,20.87,-17.52,8.3,1
1116,20.88,-19.67,-8.46,1
1117,20.89,15.66,-25.78,1
1118,20.9,-10.11,-2.14,1
1119,20.92,-5.38,2.75,1
1120,20.93,8.16,-3.11,1
1121,20.94,12.41,21.18,1
1122,20.96,36.93,11.79,1
1123,20.97,26.85,-4.82,1
1124,20.99,17.4,8.01,1
1125,21.0,31.04,-3.4,1
1126,21.01,2.63,-1.86,1
1127,21.03,33.4,15.87,1
1128,21.04,40.34,-10.61,1
1129,21.05,55.46,-11.34,1
1130,21.07,28.43,-2.82,1
1131,21.08,45.44,-5.5,1
1132,21.09,53.7,3.87,1
1133,21.11,36.47,9.15,1
1134,21.12,40.66,10.9,1
1135,21.13,39.34,1.23,1
1136,21.15,28.2,1.1,1
1137,21.16,19.34,-9.54,1
1138,21.17,26.19,16.66,1
1139,21.19,27.61,-2.71,1
1140,21.2,48.69,14.84,1
1141,21.21,22.24,19.84,1
1142,21.23,22.94,2.21,1
1143,21.24,17.5,11.73,1
1144,21.25,25.54,-10.36,1
1145,21.27,12.17,3.92,1
1146,21.28,9.66,-4.69,1
1147,21.29,-4.5,6.47,1
1148,21.31,12.25,5.13,1
1149,21.32,12.32,-0.36,1
1150,21.33,16.37,14.5,1
1151,21.35,3.64,9.12,1
1152,21.36,20.39,-22.29,1
1153,21.37,11.28,-3.27,1
1154,21.39,10.36,8.15,1
1155,21.4,-2.58,9.63,1
1156,21.41,10.48,23.16,1
1157,21.43,3.15,1.77,1
1158,21.44,4.79,-28.02,1
1159,21.45,-2.6,10.55,1
1160,21.47,-5.19,6.96,1
1161,21.48,-4.58,4.51,1
1162,21.49,-13.7,-1.47,1
1163,21.51,-9.13,-2.07,1
1164,21.52,-20.49,8.44,1
1165,21.53,-4.25,-3.29,1
1166,21.54,-23.27,-3.6,1
1167,21.56,5.91,-5.44,1
1168,21.57,-3.98,-0.12,1
1169,21.58,-9.33,6.45,1
1170,21.6,-27.41,-1.07,1
1171,21.61,-3.74,-2.4,1
1172,21.63,-6.72,-0.95,1
1173,21.64,3.79,4.92,1
1174,21.65,-11.09,-6.83,1
1175,21.67,-7.38,0.69,1
1176,21.68,-27.0,-15.04,1
1177,21.69,-19.67,7.15,1
1178,21.71,-6.29,-11.36,1
1179,21.72,19.96,-5.39,1
1180,21.73,-9.88,-14.32,1
1181,21.75,-21.28,-17.23,1
1182,21.76,-16.18,-7.77,1
1183,21.77,7.25,-0.93,1
1184,21.79,-7.25,12.98,1
1185,21.8,-29.85,6.25,1
1186,21.81,-20.02,9.03,1
1187,21.83,-10.18,6.54,1
1188,21.84,-8.36,1.42,1
1189,21.85,2.14,-17.99,1
1190,21.87,6.44,-11.13,1
1191,21.88,-4.87,-1.15,1
1192,21.89,-9.8,-6.16,1
1193,21.91,-3.9,2.03,1
1194,21.92,12.41,10.11,1
1195,21.93,0.91,0.71,1
1196,21.95,-24.97,2.12,1
1197,21.96,-7.67,12.38,1
1198,21.97,-0.68,8.31,1
1199,21.99,2.68,-12.48,1
1200,22.0,10.83,-16.18,1
1201,22.01,-14.77,-11.83,1
1202,22.03,4.08,-0.69,1
1203,22.04,-1.0,-12.29,1
1204,22.05,-3.02,-10.33,1
1205,22.07,-11.73,6.68,1
1206,22.08,4.83,5.7,1
1207,22.09,6.72,0.83,1
1208,22.11,-0.59,0.79,1
1209,22.12,16.67,18.22,1
1210,22.13,14.64,9.88,1
1211,22.15,-11.43,24.99,1
1212,22.16,13.58,9.0,2
1213,22.17,-18.15,20.31,2
1214,22.18,59.04,11.3,2
1215,22.2,134.29,-6.84,2
1216,22.21,147.27,6.55,2
1217,22.22,226.83,13.64,2
1218,22.24,239.89,14.37,2
1219,22.25,204.55,10.5,2
1220,22.26,152.09,-2.19,2
1221,22.28,100.88,-6.91,2
1222,22.29,53.48,-10.44,2
1223,22.31,10.81,-3.65,2
1224,22.32,-36.68,-13.83,2
1225,22.33,-147.3,-34.76,2
1226,22.35,-281.61,-31.54,2
1227,22.36,-324.48,-16.03,2
1228,22.37,-339.86,-17.57,2
1229,22.39,-295.23,-1.64,2
1230,22.4,-274.98,13.26,2
1231,22.41,-262.31,4.4,2
1232,22.43,-227.58,-16.3,2
1233,22.44,-177.01,8.5,2
1234,22.45,-138.28,10.33,2
1235,22.47,-92.93,-6.59,2
1236,22.48,-61.93,-2.66,2
1237,22.49,-27.1,0.43,2
1238,22.51,-8.83,-11.59,2
1239,22.52,16.08,-14.19,2
1240,22.53,25.41,-6.74,2
1241,22.55,66.13,-2.82,1
1242,22.56,67.02,0.15,1
1243,22.57,90.23,-2.65,1
1244,22.59,106.66,24.74,1
1245,22.6,97.28,24.66,1
1246,22.61,109.98,2.43,1
1247,22.63,104.68,4.92,1
1248,22.64,115.67,5.54,1
1249,22.65,133.99,1.3,1
1250,22.67,126.07,-2.89,1
1251,22.68,120.02,0.57,1
1252,22.69,119.21,-19.52,1
1253,22.71,97.53,-5.99,1
1254,22.72,97.31,17.23,1
1255,22.73,86.95,11.07,1
1256,22.75,94.13,-0.95,1
1257,22.76,83.14,-4.42,1
1258,22.77,68.35,7.92,1
1259,22.79,60.87,13.15,1
1260,22.8,72.88,1.13,1
1261,22.81,53.1,17.15,1
1262,22.82,25.11,17.03,1
1263,22.84,31.82,-0.05,1
1264,22.85,38.03,6.23,1
1265,22.86,39.16,-7.73,1
1266,22.88,31.67,-13.74,1
1267,22.89,22.21,1.76,1
1268,22.9,29.05,2.19,1
1269,22.92,-10.93,7.5,1
1270,22.93,-13.89,-4.26,1
1271,22.95,-18.74,0.98,1
1272,22.96,-29.15,18.19,1
1273,22.97,-36.4,-5.9,1
1274,22.99,-35.66,-4.57,1
1275,23.0,-22.74,-5.22,1
1276,23.01,-41.46,-6.96,1
1277,23.03,-45.42,-21.03,1
1278,23.04,-44.35,-14.07,1
1279,23.05,-12.99,-8.91,1
1280,23.07,-27.18,-0.24,1
1281,23.08,-32.81,12.3,1
1282,23.09,-57.0,2.96,1
1283,23.11,-40.06,-4.18,1
1284,23.12,-36.15,3.69,1
1285,23.13,-52.61,5.75,1
1286,23.15,-49.24,-0.37,1
1287,23.16,-31.19,2.27,1
1288,23.17,-32.69,3.59,1
1289,23.19,-48.19,14.73,1
1290,23.2,-38.52,12.82,1
1291,23.21,-35.71,-6.69,1
1292,23.23,-43.99,-3.23,1
1293,23.24,-52.15,-17.72,1
1294,23.25,-42.52,-13.83,1
1295,23.27,-23.87,-4.44,1
1296,23.28,-11.6,-1.17,1
1297,23.29,-11.28,7.28,1
1298,23.31,-19.14,5.63,1
1299,23.32,-2.91,17.13,1
1300,23.33,-12.15,22.13,1
1301,23.35,-15.77,-24.85,1
1302,23.36,-8.29,4.61,1
1303,23.37,-8.37,-0.43,1
1304,23.39,-5.73,4.53,1
1305,23.4,-1.09,-0.95,1
1306,23.41,18.1,-17.23,1
1307,23.43,-12.34,-5.09,1
1308,23.44,-5.46,-16.9,1
1309,23.45,5.54,-2.18,1
1310,23.46,9.52,1.38,1
1311,23.48,14.39,-4.9,1
1312,23.49,8.93,-18.4,1
1313,23.5,4.13,-5.04,1
1314,23.52,8.45,-0.9,1
1315,23.53,2.46,10.28,1
1316,23.54,-23.59,6.19,1
1317,23.56,-15.65,7.39,1
1318,23.57,17.95,4.55,1
1319,23.59,23.78,6.84,1
1320,23.6,13.89,1.37,1
1321,23.61,11.78,-9.81,1
1322,23.63,21.37,0.07,1
1323,23.64,14.83,2.34,1
1324,23.65,24.69,5.22,1
1325,23.67,12.61,-0.08,1
1326,23.68,19.67,-9.53,1
1327,23.69,-4.95,18.7,1
1328,23.71,16.16,13.1,1
1329,23.72,33.88,-1.9,1
1330,23.73,8.59,9.85,1
1331,23.75,8.44,4.89,1
1332,23.76,8.77,-5.4,1
1333,23.77,11.15,-27.14,1
1334,23.79,16.48,11.52,1
1335,23.8,6.41,-7.69,1
1336,23.81,10.85,-3.44,1
1337,23.83,7.46,4.62,1
1338,23.84,-0.31,-10.24,1
1339,23.85,5.72,6.86,1
1340,23.87,-0.6,-23.84,1
1341,23.88,7.64,-12.8,1
1342,23.89,18.6,1.02,1
1343,23.91,-13.48,2.29,1
1344,23.92,-4.82,-2.63,1
1345,23.93,4.35,9.15,1
1346,23.95,-2.07,-0.57,1
1347,23.96,-6.31,12.9,1
1348,23.97,-2.8,12.69,1
1349,23.99,6.47,53.56,1
1350,24.0,-42.96,115.98,1
1351,24.01,20.9,167.41,1
1352,24.03,-22.73,222.68,1
1353,24.04,16.22,217.37,1
1354,24.05,97.65,196.96,1
1355,24.07,-59.59,-17.23,1
1356,24.08,-13.92,-290.98,1
1357,24.09,-153.31,-241.63,1
1358,24.1,-236.84,-573.09,1
1359,24.12,155.98,-116.84,1
1360,24.13,-49.14,214.81,1
1361,24.14,104.69,-269.49,1
1362,24.16,360.02,84.21,1
1363,24.17,-76.24,396.2,1
1364,24.18,-147.75,211.79,1
1365,24.2,211.15,-14.4,1
1366,24.21,67.19,-349.92,1
1367,24.225,-183.43,1.54,1
1368,24.24,-24.03,-79.94,1
1369,24.25,-54.05,20.66,1
1370,24.27,-95.98,101.24,1
1371,24.28,348.5,-94.79,1
1372,24.29,-58.21,-78.49,1
1373,24.31,117.28,-36.66,1
1374,24.32,-108.01,-386.31,1
1375,24.33,214.33,169.68,1
1376,24.35,-10.11,-111.34,1
1377,24.36,-56.22,233.43,1
1378,24.37,-3.35,35.93,1
1379,24.39,-95.39,-98.23,1
1380,24.4,-72.76,75.73,1
1381,24.41,-66.17,-74.55,1
1382,24.43,52.93,-181.11,1
1383,24.44,-118.87,-189.54,1
1384,24.45,122.3,44.14,1
1385,24.47,-186.93,199.83,1
1386,24.48,128.69,-129.2,1
1387,24.49,-218.54,-134.43,1
1388,24.51,-4.13,79.0,1
1389,24.52,88.49,-340.01,1
1390,24.53,-215.26,-98.06,1
1391,24.55,183.46,206.84,1
1392,24.56,-287.56,160.37,1
1393,24.57,-227.33,179.86,1
1394,24.59,156.35,214.88,1
1395,24.6,262.23,-16.29,1
1396,24.61,225.48,90.26,1
1397,24.63,-267.39,-61.08,1
1398,24.64,-37.85,106.41,1
1399,24.65,211.18,136.62,1
1400,24.67,-158.72,341.25,1
1401,24.68,-150.83,-39.85,1
1402,24.69,-164.93,-71.18,1
1403,24.71,99.88,-200.81,1
1404,24.72,-117.49,269.46,1
1405,24.73,285.04,81.53,1
1406,24.75,-54.26,3.43,1
1407,24.76,27.42,9.29,1
1408,24.77,-20.41,-38.66,1
1409,24.78,54.6,-42.24,1
1410,24.8,66.18,-64.57,1
1411,24.81,30.78,-45.41,1
1412,24.82,-11.35,-103.31,1
1413,24.84,-100.81,-100.37,1
1414,24.85,-33.15,-92.34,1
1415,24.86,-44.01,-80.37,1
1416,24.88,-26.14,-35.0,1
1417,24.89,-13.25,34.31,1
1418,24.91,37.1,34.89,1
1419,24.92,20.41,103.25,1
1420,24.93,53.02,142.36,1
1421,24.95,40.08,158.26,1
1422,24.96,61.18,186.91,1
1423,24.97,72.32,174.7,1
1424,24.99,68.74,123.05,1
1425,25.0,42.88,119.7,1
1426,25.01,61.02,107.49,1
1427,25.03,47.67,91.89,1
1428,25.04,40.52,49.07,1
1429,25.05,45.34,34.43,1
1430,25.07,50.0,2.87,1
1431,25.08,45.11,-13.12,1
1432,25.09,12.75,-34.78,1
1433,25.11,4.76,-53.34,1
1434,25.12,8.71,-62.21,1
1435,25.13,3.9,-67.45,1
1436,25.15,-2.31,-59.61,1
1437,25.16,-13.28,-78.05,1
1438,25.17,2.41,-64.83,1
1439,25.19,-1.61,-96.61,1
1440,25.2,-9.63,-99.86,1
1441,25.21,1.41,-98.77,1
1442,25.23,-22.33,-80.47,1
1443,25.24,-22.94,-84.61,1
1444,25.25,-40.55,-79.14,1
1445,25.27,-5.59,-88.25,1
1446,25.28,-41.68,-77.85,1
1447,25.29,-30.93,-80.14,1
1448,25.31,-33.59,-71.53,1
1449,25.32,-26.55,-53.84,1
1450,25.33,-2.95,-50.09,1
1451,25.35,-23.51,-57.68,1
1452,25.36,-32.59,-33.1,1
1453,25.37,-41.57,-26.82,1
1454,25.38,-26.55,-35.8,1
1455,25.4,-33.98,-30.82,1
1456,25.41,-27.45,-37.26,1
1457,25.42,-17.56,-22.34,1
1458,25.44,-15.21,-3.33,1
1459,25.45,-32.83,-32.01,1
1460,25.46,-33.88,-6.34,1
1461,25.48,-9.32,16.67,1
1462,25.49,-19.53,21.76,1
1463,25.5,-5.96,11.66,1
1464,25.52,-7.45,4.74,1
1465,25.53,4.1,3.93,1
1466,25.55,-7.02,-0.66,1
1467,25.56,-5.78,13.87,1
1468,25.57,-9.71,32.63,1
1469,25.59,14.73,17.96,1
1470,25.6,-3.79,14.45,1
1471,25.61,7.1,27.41,1
1472,25.63,11.28,21.03,1
1473,25.64,-0.02,23.78,1
1474,25.65,-5.51,30.6,1
1475,25.67,7.89,33.25,1
1476,25.68,32.01,33.09,1
1477,25.69,8.26,48.24,1
1478,25.71,8.0,28.12,1
1479,25.72,7.36,41.67,1
1480,25.73,10.32,36.95,1
1481,25.75,13.31,8.03,1
1482,25.76,2.19,23.42,1
1483,25.77,8.42,25.63,1
1484,25.79,30.07,31.47,1
1485,25.8,13.94,31.52,1
1486,25.81,15.66,19.4,1
1487,25.83,-2.84,15.42,1
1488,25.84,10.53,20.04,1
1489,25.85,8.29,12.76,1
1490,25.87,4.1,19.61,1
1491,25.88,4.84,17.22,1
1492,25.89,5.02,14.53,1
1493,25.91,3.91,22.62,1
1494,25.92,-1.1,17.03,1
1495,25.93,19.86,-7.12,1
1496,25.95,8.55,9.88,1
1497,25.96,-9.45,12.43,1
1498,25.97,-5.23,4.08,1
1499,25.99,25.0,13.77,1
1500,26.0,9.85,4.43,1
1501,26.01,-10.34,-17.51,1
1502,26.02,-13.51,1.15,1
1503,26.04,7.83,7.09,1
1504,26.05,-26.38,-13.62,1
1505,26.06,-0.59,-4.44,1
1506,26.08,23.57,2.61,1
1507,26.09,6.95,-9.77,1
1508,26.1,16.46,-13.56,1
1509,26.12,-3.39,4.75,1
1510,26.13,5.94,-3.94,1
1511,26.14,19.27,5.33,1
1512,26.16,-10.66,-23.94,2
1513,26.17,-14.79,5.49,2
1514,26.19,-4.38,-14.22,2
1515,26.2,4.93,-31.42,2
1516,26.21,10.39,-23.24,2
1517,26.23,113.84,-39.35,2
1518,26.24,141.0,-19.79,2
1519,26.25,222.78,-17.28,2
1520,26.27,159.32,-28.96,2
1521,26.28,127.14,-23.99,2
1522,26.29,57.24,-31.33,2
1523,26.31,17.63,-12.16,2
1524,26.32,-50.11,19.34,2
1525,26.33,-79.28,11.44,2
1526,26.35,-89.24,18.11,2
1527,26.36,-131.8,17.5,2
1528,26.37,-149.66,17.97,2
1529,26.39,-167.34,19.47,2
1530,26.4,-148.67,14.5,2
1531,26.41,-157.1,17.37,2
1532,26.43,-156.01,-0.49,2
1533,26.44,-150.31,6.82,2
1534,26.45,-126.8,2.63,2
1535,26.47,-114.91,-0.39,2
1536,26.48,-114.94,-4.12,2
1537,26.49,-114.98,7.66,2
1538,26.51,-81.71,8.2,2
1539,26.52,-60.36,10.33,2
1540,26.53,-32.93,-5.63,2
1541,26.55,-19.25,13.08,1
1542,26.56,6.12,1.84,1
1543,26.57,-0.57,0.56,1
1544,26.59,20.48,12.17,1
1545,26.6,47.74,-11.6,1
1546,26.61,89.07,-14.7,1
1547,26.63,59.43,-11.56,1
1548,26.64,65.74,-2.0,1
1549,26.65,77.72,-10.64,1
1550,26.67,94.92,-13.5,1
1551,26.68,88.45,-31.78,1
1552,26.69,69.75,10.22,1
1553,26.7,111.77,0.12,1
1554,26.72,80.64,-6.35,1
1555,26.73,82.46,-2.17,1
1556,26.75,73.27,-7.02,1
1557,26.76,83.72,-8.65,1
1558,26.77,81.0,-20.32,1
1559,26.78,74.5,-9.51,1
1560,26.8,60.22,-9.2,1
1561,26.81,70.08,-14.03,1
1562,26.82,58.68,-9.72,1
1563,26.84,40.26,-6.51,1
1564,26.85,39.85,9.49,1
1565,26.87,44.59,1.37,1
1566,26.88,32.2,0.37,1
1567,26.89,8.31,-14.92,1
1568,26.91,15.61,4.32,1
1569,26.92,7.25,9.34,1
1570,26.93,8.01,-1.75,1
1571,26.95,-3.58,-2.11,1
1572,26.96,5.45,-15.69,1
1573,26.97,-1.84,0.39,1
1574,26.99,-4.48,-3.58,1
1575,27.0,-10.57,21.86,1
1576,27.01,-7.62,14.49,1
1577,27.03,-18.99,22.47,1
1578,27.04,-17.66,2.05,1
1579,27.05,-21.27,5.59,1
1580,27.07,-32.6,5.16,1
1581,27.08,-20.98,28.82,1
1582,27.09,-19.86,-2.43,1
1583,27.11,-40.28,2.54,1
1584,27.12,-19.41,7.67,1
1585,27.13,-20.93,-2.96,1
1586,27.15,-27.02,0.31,1
1587,27.16,-34.99,6.89,1
1588,27.17,-22.58,-6.72,1
1589,27.19,-49.2,-1.22,1
1590,27.2,-29.16,7.15,1
1591,27.21,-38.29,16.08,1
1592,27.23,-22.79,-1.6,1
1593,27.24,-37.0,-6.68,1
1594,27.25,-53.85,3.72,1
1595,27.27,-41.85,-3.68,1
1596,27.28,-18.05,5.85,1
1597,27.29,-37.25,-11.94,1
1598,27.3,-20.03,7.37,1
1599,27.32,-28.0,6.32,1
1600,27.33,-12.33,18.38,1
1601,27.34,-9.47,5.17,1
1602,27.36,-19.65,5.24,1
1603,27.37,-13.18,14.47,1
1604,27.38,-5.2,-5.75,1
1605,27.4,-2.29,-2.04,1
1606,27.41,-4.55,8.19,1
1607,27.42,-6.07,2.61,1
1608,27.44,10.39,-10.87,1
1609,27.45,-9.7,-4.89,1
1610,27.46,-2.01,-3.7,1
1611,27.48,9.05,1.13,1
1612,27.49,-8.13,-2.43,1
1613,27.51,6.02,-0.14,1
1614,27.52,-1.8,1.81,1
1615,27.53,16.41,-2.89,1
1616,27.55,17.04,-2.87,1
1617,27.56,15.91,-2.39,1
1618,27.57,12.62,-8.93,1
1619,27.59,12.58,4.83,1
1620,27.6,18.01,-12.1,1
1621,27.61,4.69,4.55,1
1622,27.63,0.97,1.24,1
1623,27.64,11.87,1.34,1
1624,27.65,-4.27,-10.91,1
1625,27.67,-3.43,-8.99,1
1626,27.68,2.76,8.49,1
1627,27.69,16.3,-12.54,1
1628,27.71,13.53,-15.52,1
1629,27.72,4.58,-9.01,1
1630,27.73,8.36,-5.17,1
1631,27.75,24.64,-18.02,1
1632,27.76,-3.39,-12.67,1
1633,27.77,-0.88,-4.44,1
1634,27.79,4.88,3.53,1
1635,27.8,18.21,10.75,1
1636,27.81,15.62,5.92,1
1637,27.83,10.88,7.05,1
1638,27.84,18.49,3.22,1
1639,27.85,15.14,-0.12,1
1640,27.87,13.57,17.86,1
1641,27.88,-8.37,4.68,1
1642,27.89,5.93,-19.45,1
1643,27.91,-0.72,-4.75,1
1644,27.92,1.75,15.77,1
1645,27.93,7.84,7.7,1
1646,27.94,18.66,10.96,1
1647,27.96,-15.75,-15.7,1
1648,27.97,-8.73,20.56,1
1649,27.98,-4.73,12.39,1
1650,28.0,6.56,-5.89,1
1651,28.01,7.18,11.07,1
1652,28.02,-9.57,-4.39,1
1653,28.04,-5.23,1.39,1
1654,28.05,-6.25,-0.46,1
1655,28.06,4.68,-6.15,1
1656,28.08,-16.55,-3.46,1
1657,28.09,-2.41,-6.58,1
1658,28.1,6.95,-18.28,1
1659,28.12,-3.41,-3.32,1
1660,28.13,-2.31,7.63,1
1661,28.15,13.29,3.01,1
1662,28.16,-2.4,-4.12,0
1663,28.17,5.23,10.51,0
1664,28.19,7.9,36.94,0
1665,28.2,-0.34,-8.46,0
1666,28.21,-61.35,7.3,0
1667,28.23,-142.31,0.97,0
1668,28.24,-196.44,-0.55,0
1669,28.25,-173.4,-23.46,0
1670,28.27,-180.03,-5.54,0
1671,28.28,-165.76,6.36,0
1672,28.29,-133.95,0.01,0
1673,28.31,-77.14,-10.09,0
1674,28.32,-33.65,-7.11,0
1675,28.33,32.86,-10.27,0
1676,28.35,105.59,-17.2,0
1677,28.36,218.92,-26.22,0
1678,28.37,272.19,-0.05,0
1679,28.39,280.05,-10.92,0
1680,28.4,290.8,-8.21,0
1681,28.41,275.55,17.81,0
1682,28.43,237.27,-0.23,0
1683,28.44,191.77,10.91,0
1684,28.45,150.88,22.74,0
1685,28.47,142.0,14.18,0
1686,28.48,96.88,26.59,0
1687,28.49,59.11,16.72,0
1688,28.51,26.99,0.86,0
1689,28.52,17.52,-1.63,0
1690,28.53,-17.48,6.34,0
1691,28.55,-31.29,-8.26,1
1692,28.56,-68.12,-14.01,1
1693,28.57,-64.93,5.69,1
1694,28.58,-93.9,-5.71,1
1695,28.6,-91.43,-2.26,1
1696,28.61,-88.93,-14.9,1
1697,28.62,-112.76,-4.11,1
1698,28.64,-115.31,-1.29,1
1699,28.65,-134.25,-6.61,1
1700,28.67,-104.37,-7.2,1
1701,28.68,-106.47,4.75,1
1702,28.69,-107.05,2.27,1
1703,28.7,-78.29,9.05,1
1704,28.72,-79.14,-13.03,1
1705,28.73,-69.49,-14.39,1
1706,28.75,-71.27,-2.21,1
1707,28.76,-74.19,12.83,1
1708,28.77,-56.54,-3.07,1
1709,28.79,-60.47,4.8,1
1710,28.8,-45.64,14.4,1
1711,28.81,-54.02,-2.05,1
1712,28.83,-31.95,7.1,1
1713,28.84,-38.38,9.75,1
1714,28.85,-30.0,-1.63,1
1715,28.87,-34.6,5.07,1
1716,28.88,-10.17,-2.61,1
1717,28.89,-8.36,-4.93,1
1718,28.91,-6.55,5.98,1
1719,28.92,-19.9,-8.76,1
1720,28.93,13.4,1.95,1
1721,28.95,-3.44,-4.61,1
1722,28.96,3.02,7.8,1
1723,28.97,31.21,-1.69,1
1724,28.99,20.98,-12.86,1
1725,29.0,26.79,-21.05,1
1726,29.01,12.55,-16.73,1
1727,29.03,29.98,-0.48,1
1728,29.04,16.03,-2.52,1
1729,29.05,15.15,24.24,1
1730,29.07,27.29,-2.1,1
1731,29.08,49.85,-0.37,1
1732,29.09,52.63,-4.8,1
1733,29.11,48.78,-3.39,1
1734,29.12,30.07,8.42,1
1735,29.13,37.21,11.79,1
1736,29.15,18.25,18.53,1
1737,29.16,24.15,6.49,1
1738,29.17,17.94,12.07,1
1739,29.19,45.34,7.56,1
1740,29.2,33.97,-5.81,1
1741,29.21,17.08,-0.45,1
1742,29.22,19.08,-12.2,1
1743,29.24,19.11,-7.78,1
1744,29.25,20.25,8.6,1
1745,29.26,30.25,-1.51,1
1746,29.28,32.59,8.13,1
1747,29.29,43.51,8.55,1
1748,29.3,32.92,8.08,1
1749,29.32,7.4,7.43,1
1750,29.33,24.64,11.9,1
1751,29.34,16.94,9.58,1
1752,29.36,4.63,-6.89,1
1753,29.37,5.33,-6.24,1
1754,29.38,17.21,-10.08,1
1755,29.4,24.42,-0.16,1
1756,29.41,7.36,-0.28,1
1757,29.425,7.52,-26.38,1
1758,29.44,6.98,-11.99,1
1759,29.45,-8.88,-17.91,1
1760,29.47,-13.37,-3.75,1
1761,29.48,-16.26,1.72,1
1762,29.49,4.62,23.56,1
1763,29.51,-25.18,5.67,1
1764,29.52,-26.79,-3.55,1
1765,29.53,-4.25,-29.27,1
1766,29.55,13.47,8.13,1
1767,29.56,-19.13,-12.9,1
1768,29.57,-9.02,-5.1,1
1769,29.59,-23.29,2.34,1
1770,29.6,5.28,-2.61,1
1771,29.61,-16.4,13.09,1
1772,29.63,-23.38,-9.11,1
1773,29.64,-14.27,7.37,1
1774,29.65,-0.23,7.59,1
1775,29.67,-2.08,-0.46,1
1776,29.68,-17.45,-21.21,1
1777,29.69,-14.48,5.18,1
1778,29.71,-16.14,9.32,1
1779,29.72,-17.83,-1.06,1
1780,29.73,-18.24,6.12,1
1781,29.75,8.46,-8.88,1
1782,29.76,0.11,5.63,1
1783,29.77,-16.65,4.63,1
1784,29.79,-8.72,3.96,1
1785,29.8,6.89,10.06,1
1786,29.81,-10.42,-5.11,1
1787,29.83,-1.8,-4.66,1
1788,29.84,-8.45,-4.41,1
1789,29.85,14.75,0.56,1
1790,29.86,-8.39,15.02,1
1791,29.88,-6.63,1.98,1
1792,29.89,-12.39,-8.22,1
1793,29.9,-4.65,4.24,1
1794,29.92,-4.27,-2.04,1
1795,29.93,3.81,4.7,1
1796,29.94,-6.0,-4.31,1
1797,29.96,-1.85,-7.67,1
1798,29.97,1.98,2.73,1
1799,29.98,-2.82,-10.41,1
1800,30.0,-15.46,3.51,1
1801,30.01,17.51,-3.39,1
1802,30.02,4.36,2.15,1
1803,30.04,-12.8,-13.55,1
1804,30.05,-15.45,9.11,1
1805,30.06,18.46,19.33,1
1806,30.08,-9.34,3.51,1
1807,30.09,-6.05,-7.62,1
1808,30.11,6.86,19.16,1
1809,30.12,-5.74,2.05,1
1810,30.13,12.74,-0.19,1
1811,30.15,2.38,-6.95,1
1812,30.16,0.22,1.29,0
1813,30.17,-0.37,-19.81,0
1814,30.19,-63.43,14.41,0
1815,30.2,-124.52,-11.53,0
1816,30.21,-172.01,-8.73,0
1817,30.23,-237.74,24.35,0
1818,30.24,-187.42,-14.63,0
1819,30.25,-105.83,-13.2,0
1820,30.27,-52.17,-24.17,0
1821,30.28,0.24,-31.19,0
1822,30.29,40.42,-24.99,0
1823,30.31,101.57,-35.78,0
1824,30.32,162.39,-10.13,0
1825,30.33,172.13,8.07,0
1826,30.35,190.21,3.57,0
1827,30.36,179.81,9.92,0
1828,30.37,206.02,28.59,0
1829,30.39,201.33,17.52,0
1830,30.4,157.66,44.88,0
1831,30.41,160.45,35.15,0
1832,30.43,147.99,32.56,0
1833,30.44,121.9,19.42,0
1834,30.45,102.34,4.75,0
1835,30.47,92.04,9.71,0
1836,30.48,69.0,11.81,0
1837,30.49,26.15,21.08,0
1838,30.5,28.1,16.9,0
1839,30.52,40.01,0.17,0
1840,30.53,9.71,2.53,0
1841,30.54,-20.88,29.6,0
1842,30.56,-46.49,4.73,1
1843,30.57,-54.55,4.22,1
1844,30.58,-69.3,-9.75,1
1845,30.6,-85.89,-2.03,1
1846,30.61,-95.36,-7.03,1
1847,30.62,-98.59,-0.1,1
1848,30.64,-104.87,-20.64,1
1849,30.65,-107.38,-27.5,1
1850,30.67,-134.38,-6.47,1
1851,30.68,-140.41,4.48,1
1852,30.69,-130.59,-5.78,1
1853,30.7,-127.27,-8.14,1
1854,30.72,-102.8,-17.38,1
1855,30.73,-52.46,-21.6,1
1856,30.75,-71.31,-18.37,1
1857,30.76,-68.59,-29.19,1
1858,30.77,-59.98,-8.31,1
1859,30.79,-39.46,-11.36,1
1860,30.8,-50.91,-34.49,1
1861,30.81,-43.71,1.07,1
1862,30.83,-30.74,-4.13,1
1863,30.84,-27.67,-8.84,1
1864,30.85,-28.05,-20.29,1
1865,30.87,-36.12,-13.37,1
1866,30.88,-19.29,2.25,1
1867,30.89,-5.3,-1.88,1
1868,30.91,-11.67,-11.69,1
1869,30.92,-6.72,-3.71,1
1870,30.93,23.53,-4.16,1
1871,30.95,8.21,1.26,1
1872,30.96,13.65,-4.66,1
1873,30.97,6.8,25.0,1
1874,30.99,37.15,0.64,1
1875,31.0,22.55,2.08,1
1876,31.01,29.34,4.66,1
1877,31.03,24.41,2.35,1
1878,31.04,41.73,3.68,1
1879,31.05,40.41,12.71,1
1880,31.07,36.21,9.39,1
1881,31.08,17.71,11.91,1
1882,31.09,35.49,2.12,1
1883,31.11,25.35,12.37,1
1884,31.12,28.12,0.6,1
1885,31.13,33.5,15.55,1
1886,31.14,30.47,18.73,1
1887,31.16,32.78,5.4,1
1888,31.17,37.69,-7.12,1
1889,31.18,21.13,7.81,1
1890,31.2,42.67,13.58,1
1891,31.21,32.82,8.42,1
1892,31.22,31.67,7.23,1
1893,31.24,56.57,-1.85,1
1894,31.25,24.03,-12.16,1
1895,31.26,20.05,-7.26,1
1896,31.28,11.09,2.6,1
1897,31.29,28.15,8.34,1
1898,31.3,35.7,11.09,1
1899,31.32,23.75,-10.28,1
1900,31.33,15.45,27.2,1
1901,31.34,18.3,14.12,1
1902,31.36,-14.6,-6.77,1
1903,31.37,-23.02,-24.11,1
1904,31.39,2.29,2.53,1
1905,31.4,12.11,-1.35,1
1906,31.41,-9.43,-3.12,1
1907,31.43,4.23,14.02,1
1908,31.44,-4.71,9.31,1
1909,31.45,22.1,3.68,1
1910,31.47,4.13,-6.47,1
1911,31.48,-2.43,-3.44,1
1912,31.49,-22.26,3.43,1
1913,31.51,5.66,-0.62,1
1914,31.52,-13.19,4.84,1
1915,31.53,-10.28,10.7,1
1916,31.55,-16.36,-6.96,1
1917,31.56,-5.42,9.45,1
1918,31.57,-7.48,-1.24,1
1919,31.59,2.48,-12.78,1
1920,31.6,-2.21,-20.14,1
1921,31.61,-7.6,-20.43,1
1922,31.63,-5.27,-10.55,1
1923,31.64,-1.85,-25.07,1
1924,31.65,0.12,-6.86,1
1925,31.67,-8.95,14.23,1
1926,31.68,-3.23,-22.22,1
1927,31.69,-8.1,3.22,1
1928,31.71,-2.74,4.28,1
1929,31.72,-17.91,11.38,1
1930,31.73,-21.48,-0.12,1
1931,31.75,-17.38,3.69,1
1932,31.76,-5.01,-6.29,1
1933,31.77,-19.28,-10.1,1
1934,31.78,-16.0,-6.4,1
1935,31.8,-10.57,8.32,1
1936,31.81,-17.11,-11.12,1
1937,31.82,-14.23,4.79,1
1938,31.84,-15.42,11.48,1
1939,31.85,-4.94,-8.42,1
1940,31.86,-9.04,3.13,1
1941,31.88,0.4,0.22,1
1942,31.89,8.65,-8.37,1
1943,31.9,-19.25,-5.3,1
1944,31.92,17.91,1.78,1
1945,31.93,-5.98,7.53,1
1946,31.94,-6.43,11.76,1
1947,31.96,10.72,0.77,1
1948,31.97,12.71,9.28,1
1949,31.98,-1.58,0.7,1
1950,32.0,-11.8,6.48,1
1951,32.01,-4.96,0.49,1
1952,32.03,6.08,-1.39,1
1953,32.04,-7.59,10.29,1
1954,32.05,-22.69,12.56,1
1955,32.07,-11.7,1.68,1
1956,32.08,3.59,-14.33,1
1957,32.09,1.99,3.33,1
1958,32.11,-28.97,14.82,1
1959,32.12,12.79,3.69,1
1960,32.13,19.81,12.78,1
1961,32.15,4.28,22.62,1
1962,32.16,9.15,-19.12,2
1963,32.17,19.05,-10.4,2
1964,32.19,-3.83,2.82,2
1965,32.2,104.72,7.77,2
1966,32.21,146.03,22.41,2
1967,32.23,223.36,21.9,2
1968,32.24,253.0,10.96,2
1969,32.25,215.13,36.36,2
1970,32.27,168.88,13.83,2
1971,32.28,114.69,0.56,2
1972,32.29,66.43,14.08,2
1973,32.31,22.15,-30.15,2
1974,32.32,-16.08,-32.14,2
1975,32.33,-58.69,-33.92,2
1976,32.35,-156.77,-40.54,2
1977,32.36,-272.86,-33.29,2
1978,32.37,-307.35,-42.45,2
1979,32.39,-339.54,-30.71,2
1980,32.4,-322.31,-31.79,2
1981,32.41,-317.49,-21.09,2
1982,32.43,-255.59,-5.8,2
1983,32.44,-231.71,4.31,2
1984,32.45,-190.87,-6.91,2
1985,32.47,-154.72,-0.99,2
1986,32.48,-104.64,-0.82,2
1987,32.49,-57.74,-12.07,2
1988,32.51,-35.24,-4.8,2
1989,32.52,-10.08,11.05,2
1990,32.53,39.9,2.33,2
1991,32.54,37.57,27.64,2
1992,32.56,66.22,19.37,1
1993,32.57,72.67,0.96,1
1994,32.59,104.74,-3.69,1
1995,32.6,105.0,2.32,1
1996,32.61,115.57,8.47,1
1997,32.63,121.24,13.03,1
1998,32.64,139.91,19.14,1
1999,32.65,122.81,13.83,1
2000,32.67,127.59,25.18,1
2001,32.68,131.71,19.18,1
2002,32.69,128.2,7.35,1
2003,32.71,117.3,12.87,1
2004,32.72,115.37,9.82,1
2005,32.73,119.24,14.77,1
2006,32.75,103.01,16.55,1
2007,32.76,87.45,14.59,1
2008,32.77,81.09,12.22,1
2009,32.79,74.61,-6.1,1
2010,32.8,66.57,10.21,1
2011,32.81,73.05,14.19,1
2012,32.83,68.2,4.42,1
2013,32.84,53.05,1.15,1
2014,32.85,33.83,-7.66,1
2015,32.87,34.09,3.23,1
2016,32.88,15.3,6.74,1
2017,32.89,25.48,-6.54,1
2018,32.91,21.47,8.66,1
2019,32.92,19.38,-21.93,1
2020,32.93,-2.31,-20.12,1
2021,32.95,0.22,2.63,1
2022,32.96,-22.12,-7.3,1
2023,32.97,-29.1,-6.8,1
2024,32.99,-29.94,1.38,1
2025,33.0,-26.98,-3.33,1
2026,33.01,-44.7,-11.23,1
2027,33.03,-58.06,0.89,1
2028,33.04,-56.88,-16.02,1
2029,33.05,-37.62,-9.93,1
2030,33.06,-60.54,-7.52,1
2031,33.08,-90.43,5.52,1
2032,33.09,-81.32,3.99,1
2033,33.11,-44.07,-9.44,1
2034,33.12,-45.6,-10.28,1
2035,33.13,-15.9,-22.39,1
2036,33.15,31.26,2.35,1
2037,33.16,-0.62,-13.01,1
2038,33.17,-17.79,19.03,1
2039,33.19,-30.18,-10.77,1
2040,33.2,-20.04,4.74,1
2041,33.21,-40.21,-8.3,1
2042,33.22,-39.8,-0.68,1
2043,33.24,-40.46,-8.44,1
2044,33.25,-42.71,-1.03,1
2045,33.27,-45.88,-1.39,1
2046,33.28,-33.54,-3.63,1
2047,33.29,-46.28,-7.22,1
2048,33.31,-32.06,8.82,1
2049,33.32,-31.28,11.64,1
2050,33.33,-28.63,21.22,1
2051,33.35,-45.46,-7.89,1
2052,33.36,-15.12,-18.15,1
2053,33.37,-21.47,-3.24,1
2054,33.39,-5.08,-10.8,1
2055,33.4,-18.45,8.38,1
2056,33.41,10.79,6.7,1
2057,33.43,-7.88,5.97,1
2058,33.44,-7.39,12.22,1
2059,33.45,-17.7,-12.29,1
2060,33.47,-4.53,-1.94,1
2061,33.48,6.34,-5.21,1
2062,33.49,9.73,-5.23,1
2063,33.51,5.78,-6.89,1
2064,33.52,8.13,-2.11,1
2065,33.53,-0.48,15.51,1
2066,33.55,19.4,-3.47,1
2067,33.56,35.3,-6.28,1
2068,33.57,8.28,5.79,1
2069,33.59,11.34,10.52,1
2070,33.6,12.11,0.76,1
2071,33.61,37.98,-8.82,1
2072,33.63,24.8,-0.58,1
2073,33.64,21.69,12.33,1
2074,33.65,12.35,11.93,1
2075,33.67,10.32,4.34,1
2076,33.68,22.21,9.09,1
2077,33.69,15.22,7.53,1
2078,33.71,10.7,-13.04,1
2079,33.72,25.05,-1.15,1
2080,33.73,18.7,4.03,1
2081,33.75,10.01,11.68,1
2082,33.76,-2.78,1.52,1
2083,33.77,9.71,-8.94,1
2084,33.79,1.43,-17.14,1
2085,33.8,8.8,0.83,1
2086,33.81,21.41,1.57,1
2087,33.83,21.03,-3.02,1
2088,33.84,1.15,27.15,1
2089,33.85,16.4,25.23,1
2090,33.87,5.47,22.29,1
2091,33.88,-1.77,0.06,1
2092,33.89,4.11,0.5,1
2093,33.9,-6.99,-11.41,1
2094,33.92,15.1,-16.74,1
2095,33.93,6.64,-4.33,1
2096,33.95,4.95,-4.86,1
2097,33.96,-2.17,8.15,1
2098,33.97,0.8,-6.3,1
2099,33.99,-2.68,-18.09,1
2100,34.0,-6.04,-0.04,1
2101,34.01,7.56,-1.35,1
2102,34.03,17.23,-9.33,1
2103,34.04,-3.92,2.24,1
2104,34.05,-23.07,3.8,1
2105,34.07,-33.75,-6.82,1
2106,34.08,6.25,1.63,1
2107,34.09,-10.49,7.87,1
2108,34.11,-1.27,-0.62,1
2109,34.12,28.92,13.92,1
2110,34.13,10.39,2.48,1
2111,34.15,-4.0,-2.97,1
2112,34.16,0.42,20.79,1
2113,34.17,-28.68,28.82,1
2114,34.19,7.34,96.21,1
2115,34.2,36.02,332.68,1
2116,34.21,75.03,181.25,1
2117,34.23,-227.84,-208.05,1
2118,34.24,-260.21,-217.88,1
2119,34.25,29.0,-61.31,1
2120,34.27,104.51,189.55,1
2121,34.28,84.31,12.1,1
2122,34.29,61.73,128.2,1
2123,34.31,-56.63,217.4,1
2124,34.32,9.79,139.43,1
2125,34.33,-220.24,-13.32,1
2126,34.35,63.58,-244.08,1
2127,34.36,305.62,-60.87,1
2128,34.37,18.68,-236.76,1
2129,34.38,133.93,-447.81,1
2130,34.4,251.66,-90.41,1
2131,34.41,175.03,-82.53,1
2132,34.43,-99.16,-402.74,1
2133,34.44,18.84,-322.13,1
2134,34.45,52.04,100.42,1
2135,34.47,77.0,314.85,1
2136,34.48,14.16,108.54,1
2137,34.49,-243.34,-153.79,1
2138,34.51,15.74,-164.68,1
2139,34.52,-297.01,-405.68,1
2140,34.53,-23.62,123.81,1
2141,34.54,-121.21,99.4,1
2142,34.56,-23.37,326.56,1
2143,34.57,-152.18,-267.98,1
2144,34.59,-113.55,-86.24,1
2145,34.6,34.14,158.7,1
2146,34.61,100.81,-17.13,1
2147,34.63,51.3,94.04,1
2148,34.64,147.47,122.13,1
2149,34.65,11.15,353.01,1
2150,34.67,-15.42,330.21,1
2151,34.68,-158.44,120.26,1
2152,34.69,-0.87,116.35,1
2153,34.71,15.87,-342.96,1
2154,34.72,-158.35,258.02,1
2155,34.73,148.86,-170.24,1
2156,34.75,-212.3,126.83,1
2157,34.76,-179.48,5.44,1
2158,34.77,-118.51,-331.41,1
2159,34.79,16.28,222.13,1
2160,34.8,-24.95,-118.16,1
2161,34.81,29.77,-178.59,1
2162,34.83,-91.34,-7.22,1
2163,34.84,70.41,355.05,1
2164,34.85,-209.53,184.23,1
2165,34.87,-24.72,-35.51,1
2166,34.88,-94.91,-57.96,1
2167,34.89,9.22,-142.09,1
2168,34.91,7.91,-97.2,1
2169,34.92,58.37,46.15,1
2170,34.93,81.77,85.55,1
2171,34.95,105.58,38.74,1
2172,34.96,110.02,-12.12,1
2173,34.97,127.66,-15.18,1
2174,34.99,105.87,-4.89,1
2175,35.0,112.36,-11.44,1
2176,35.01,151.59,16.69,1
2177,35.03,132.07,45.04,1
2178,35.04,122.83,65.59,1
2179,35.05,142.23,105.31,1
2180,35.06,151.37,106.41,1
2181,35.08,104.54,128.36,1
2182,35.09,113.64,138.51,1
2183,35.11,95.03,133.22,1
2184,35.12,79.32,103.84,1
2185,35.13,48.63,91.26,1
2186,35.15,34.42,55.68,1
2187,35.16,29.77,33.49,1
2188,35.17,24.53,9.54,1
2189,35.19,18.6,12.14,1
2190,35.2,-17.11,-22.86,1
2191,35.21,-19.59,-53.47,1
2192,35.22,-45.42,-68.62,1
2193,35.24,-49.95,-87.4,1
2194,35.25,-46.76,-66.6,1
2195,35.27,-32.45,-75.41,1
2196,35.28,-76.17,-83.35,1
2197,35.29,-78.96,-90.02,1
2198,35.31,-98.87,-103.71,1
2199,35.32,-72.81,-126.5,1
2200,35.33,-81.54,-104.36,1
2201,35.35,-84.75,-108.71,1
2202,35.36,-68.47,-107.78,1
2203,35.37,-88.11,-84.54,1
2204,35.39,-83.45,-73.37,1
2205,35.4,-76.66,-69.21,1
2206,35.41,-57.71,-55.27,1
2207,35.43,-63.91,-60.12,1
2208,35.44,-64.14,-69.84,1
2209,35.45,-60.4,-49.26,1
2210,35.47,-49.54,-35.75,1
2211,35.48,-63.01,-44.01,1
2212,35.49,-54.14,-28.67,1
2213,35.51,-51.53,-16.56,1
2214,35.52,-32.28,-12.82,1
2215,35.53,-34.28,5.76,1
2216,35.55,-28.6,2.69,1
2217,35.56,-13.14,6.28,1
2218,35.57,-8.06,-4.65,1
2219,35.59,4.93,-21.04,1
2220,35.6,1.8,22.59,1
2221,35.61,-7.12,15.6,1
2222,35.63,17.99,2.25,1
2223,35.64,18.89,30.75,1
2224,35.65,13.72,19.02,1
2225,35.67,4.06,15.37,1
2226,35.68,23.06,24.85,1
2227,35.69,12.65,29.25,1
2228,35.71,27.76,27.24,1
2229,35.72,43.76,40.27,1
2230,35.73,28.7,36.13,1
2231,35.75,19.33,28.61,1
2232,35.76,31.76,23.92,1
2233,35.77,33.3,33.03,1
2234,35.79,47.4,45.16,1
2235,35.8,30.44,37.15,1
2236,35.81,26.62,45.95,1
2237,35.83,40.13,53.19,1
2238,35.84,18.17,26.02,1
2239,35.85,30.16,35.2,1
2240,35.87,36.22,47.65,1
2241,35.88,36.66,17.24,1
2242,35.89,20.0,7.66,1
2243,35.9,18.05,20.18,1
2244,35.92,33.1,17.09,1
2245,35.93,27.45,25.19,1
2246,35.95,9.13,10.11,1
2247,35.96,23.4,14.9,1
2248,35.97,12.41,18.0,1
2249,35.99,26.12,5.27,1
2250,36.0,2.18,16.55,1
2251,36.01,-2.74,17.65,1
2252,36.03,-4.91,3.56,1
2253,36.04,26.07,11.88,1
2254,36.05,-24.68,6.96,1
2255,36.07,-11.45,15.84,1
2256,36.08,19.25,14.91,1
2257,36.09,-16.63,-9.32,1
2258,36.11,11.04,-4.36,1
2259,36.12,16.95,4.71,1
2260,36.13,2.78,-3.06,1
2261,36.15,25.2,-2.65,1
2262,36.16,-12.44,-6.49,2
2263,36.17,-25.25,10.52,2
2264,36.19,38.07,-9.24,2
2265,36.2,-2.85,-40.49,2
2266,36.21,-15.93,-31.34,2
2267,36.23,12.57,-42.99,2
2268,36.24,3.97,-9.57,2
2269,36.25,90.2,-5.93,2
2270,36.27,145.08,-18.64,2
2271,36.28,185.54,-23.23,2
2272,36.29,194.74,-8.43,2
2273,36.31,148.8,7.93,2
2274,36.32,65.3,-41.19,2
2275,36.33,25.55,-57.67,2
2276,36.35,-73.73,56.95,2
2277,36.36,-122.85,-5.59,2
2278,36.37,-148.51,14.28,2
2279,36.38,-156.74,3.17,2
2280,36.4,-127.11,11.71,2
2281,36.41,-166.02,-3.74,2
2282,36.43,-180.11,9.4,2
2283,36.44,-160.39,-29.34,2
2284,36.45,-165.52,-14.17,2
2285,36.47,-154.21,-9.23,2
2286,36.48,-136.91,4.57,2
2287,36.49,-124.42,0.72,2
2288,36.51,-106.86,-13.19,2
2289,36.52,-100.04,-1.06,2
2290,36.53,-84.63,1.4,2
2291,36.54,-42.07,7.55,2
2292,36.56,-53.22,-14.44,1
2293,36.57,-16.01,-7.94,1
2294,36.59,-6.48,0.78,1
2295,36.6,12.72,8.34,1
2296,36.61,24.0,4.14,1
2297,36.63,33.84,4.64,1
2298,36.64,72.8,1.05,1
2299,36.65,73.69,-22.21,1
2300,36.67,69.87,-9.0,1
2301,36.68,76.62,-3.88,1
2302,36.69,87.11,-1.28,1
2303,36.71,124.71,12.4,1
2304,36.72,76.25,13.22,1
2305,36.73,74.43,-5.86,1
2306,36.75,73.62,11.95,1
2307,36.76,99.14,5.32,1
2308,36.77,101.18,1.57,1
2309,36.79,84.77,6.19,1
2310,36.8,100.3,-2.22,1
2311,36.81,63.17,-17.14,1
2312,36.83,60.19,-10.14,1
2313,36.84,58.09,-18.05,1
2314,36.85,52.25,-5.9,1
2315,36.87,58.2,-7.35,1
2316,36.88,32.6,5.06,1
2317,36.89,21.42,-4.11,1
2318,36.9,65.66,2.91,1
2319,36.92,34.17,-1.71,1
2320,36.93,13.41,-2.69,1
2321,36.95,9.21,-1.76,1
2322,36.96,3.17,10.69,1
2323,36.97,-3.96,7.68,1
2324,36.99,-1.85,3.66,1
2325,37.0,-29.49,-5.41,1
2326,37.01,-0.03,-1.69,1
2327,37.03,-25.85,-4.44,1
2328,37.04,-23.2,9.83,1
2329,37.05,-18.97,25.41,1
2330,37.06,2.33,1.46,1
2331,37.08,-22.43,-8.65,1
2332,37.09,-36.34,-2.28,1
2333,37.11,-27.11,9.88,1
2334,37.12,-22.32,13.55,1
2335,37.13,-32.29,-4.23,1
2336,37.15,-44.22,-0.4,1
2337,37.16,-52.27,15.82,1
2338,37.17,-3.61,0.78,1
2339,37.19,-19.8,27.06,1
2340,37.2,-51.37,6.7,1
2341,37.21,-28.28,21.48,1
2342,37.225,-31.37,-3.59,1
2343,37.24,-18.75,4.32,1
2344,37.25,-24.49,-2.91,1
2345,37.27,-10.72,-3.55,1
2346,37.28,-23.67,-7.22,1
2347,37.29,-29.64,2.87,1
2348,37.31,-23.99,-0.31,1
2349,37.32,-21.39,5.2,1
2350,37.33,-10.46,-11.9,1
2351,37.35,-22.78,-16.43,1
2352,37.36,-23.57,-5.89,1
2353,37.37,-4.94,-0.3,1
2354,37.39,-16.57,-7.43,1
2355,37.4,-15.05,-7.2,1
2356,37.41,-24.43,-5.93,1
2357,37.43,2.61,-10.33,1
2358,37.44,-7.54,2.99,1
2359,37.45,3.38,6.33,1
2360,37.47,-3.05,-4.24,1
2361,37.48,8.41,8.95,1
2362,37.49,-4.87,0.04,1
2363,37.51,-15.55,-9.28,1
2364,37.52,8.93,-2.14,1
2365,37.53,10.6,-6.83,1
2366,37.54,-12.74,-13.65,1
2367,37.56,2.26,-2.45,1
2368,37.57,5.58,9.53,1
2369,37.59,13.12,6.51,1
2370,37.6,4.54,-4.49,1
2371,37.61,-4.88,12.22,1
2372,37.63,21.34,-3.73,1
2373,37.64,1.57,8.37,1
2374,37.65,7.76,-4.0,1
2375,37.67,-8.88,-10.17,1
2376,37.68,13.71,12.5,1
2377,37.69,2.81,7.01,1
2378,37.71,2.34,13.83,1
2379,37.72,9.56,-1.33,1
2380,37.73,22.38,-10.19,1
2381,37.75,1.69,-8.67,1
2382,37.76,-0.25,-15.42,1
2383,37.77,10.4,14.49,1
2384,37.79,23.6,12.95,1
2385,37.8,8.37,-8.71,1
2386,37.81,-0.39,-2.5,1
2387,37.83,7.1,17.88,1
2388,37.84,16.14,3.69,1
2389,37.85,12.42,-6.07,1
2390,37.87,-8.01,1.47,1
2391,37.88,7.99,-9.41,1
2392,37.89,22.2,-8.82,1
2393,37.91,5.04,-0.74,1
2394,37.92,-7.96,8.08,1
2395,37.93,3.24,13.11,1
2396,37.95,1.95,-7.33,1
2397,37.96,16.33,9.29,1
2398,37.97,12.51,16.38,1
2399,37.99,18.74,-8.35,1
2400,38.0,3.57,-10.86,1
2401,38.01,1.19,-6.89,1
2402,38.03,-1.6,7.49,1
2403,38.04,24.35,21.75,1
2404,38.05,-6.31,-10.71,1
2405,38.07,-22.12,-12.74,1
2406,38.08,-17.17,3.47,1
2407,38.09,4.58,3.11,1
2408,38.11,4.61,-5.8,1
2409,38.12,-18.64,15.98,1
2410,38.13,-24.71,4.69,1
2411,38.15,18.12,-10.29,1
2412,38.16,-16.93,-11.28,0
2413,38.17,2.43,-20.58,0
2414,38.19,7.45,-10.5,0
2415,38.2,9.23,-11.69,0
2416,38.21,17.28,-3.38,0
2417,38.22,-12.6,15.03,0
2418,38.24,-21.05,23.36,0
2419,38.25,21.7,-18.21,0
2420,38.27,12.17,-4.6,0
2421,38.28,-74.77,-13.71,0
2422,38.29,-142.6,20.07,0
2423,38.31,-171.21,5.35,0
2424,38.32,-210.55,-10.17,0
2425,38.33,-206.97,4.52,0
2426,38.35,-157.37,1.1,0
2427,38.36,-130.74,-4.74,0
2428,38.37,-84.65,-30.51,0
2429,38.38,-37.46,-30.42,0
2430,38.4,29.03,-12.65,0
2431,38.41,117.5,5.97,0
2432,38.43,192.23,14.05,0
2433,38.44,280.96,35.15,0
2434,38.45,303.84,21.61,0
2435,38.47,292.93,2.65,0
2436,38.48,263.21,5.79,0
2437,38.49,260.22,11.65,0
2438,38.51,222.13,2.99,0
2439,38.52,174.16,18.27,0
2440,38.53,125.98,8.46,0
2441,38.55,105.21,-1.58,0
2442,38.56,93.95,0.99,1
2443,38.57,29.42,-13.9,1
2444,38.59,17.02,-16.48,1
2445,38.6,-30.15,-14.89,1
2446,38.61,-20.6,10.91,1
2447,38.63,-96.01,-1.72,1
2448,38.64,-102.06,-14.94,1
2449,38.65,-90.64,8.18,1
2450,38.67,-75.01,11.82,1
2451,38.68,-76.41,10.3,1
2452,38.69,-79.89,7.31,1
2453,38.71,-81.54,7.45,1
2454,38.72,-91.3,-11.18,1
2455,38.73,-108.33,-6.05,1
2456,38.75,-106.21,-10.89,1
2457,38.76,-94.63,2.56,1
2458,38.77,-104.03,15.0,1
2459,38.79,-104.95,13.2,1
2460,38.8,-98.69,-5.28,1
2461,38.81,-64.71,-9.4,1
2462,38.83,-61.93,0.3,1
2463,38.84,-84.43,-2.34,1
2464,38.85,-65.2,9.51,1
2465,38.87,-56.74,0.53,1
2466,38.88,-50.71,-7.19,1
2467,38.89,-51.11,-3.28,1
2468,38.9,-65.55,-10.2,1
2469,38.92,-27.27,0.77,1
2470,38.93,-41.79,-4.7,1
2471,38.95,-16.66,-0.91,1
2472,38.96,-23.22,-9.79,1
2473,38.97,-3.33,-6.07,1
2474,38.99,-15.66,-1.86,1
2475,39.0,-21.33,-6.85,1
2476,39.01,-5.75,1.6,1
2477,39.03,22.65,3.12,1
2478,39.04,-6.27,13.81,1
2479,39.05,5.93,-4.35,1
2480,39.06,-3.73,-1.86,1
2481,39.08,40.58,-3.16,1
2482,39.09,20.55,-21.62,1
2483,39.11,32.73,-2.39,1
2484,39.12,43.35,8.26,1
2485,39.13,37.38,-6.05,1
2486,39.15,27.35,1.64,1
2487,39.16,28.27,-1.84,1
2488,39.17,35.96,4.66,1
2489,39.19,37.95,-4.37,1
2490,39.2,31.48,11.32,1
2491,39.21,32.61,4.95,1
2492,39.23,53.55,16.19,1
2493,39.24,44.62,2.18,1
2494,39.25,39.54,-2.69,1
2495,39.27,40.2,-4.37,1
2496,39.28,49.24,2.43,1
2497,39.29,37.72,15.29,1
2498,39.31,11.19,-2.12,1
2499,39.32,20.56,5.22,1
2500,39.33,37.02,4.57,1
2501,39.35,28.31,8.04,1
2502,39.36,27.97,-12.5,1
2503,39.37,20.66,12.2,1
2504,39.39,26.3,-5.93,1
2505,39.4,15.18,-5.85,1
2506,39.41,18.76,-10.0,1
2507,39.43,13.25,-7.02,1
2508,39.44,16.53,-0.04,1
2509,39.45,6.77,14.05,1
2510,39.47,12.28,3.75,1
2511,39.48,29.4,-12.81,1
2512,39.49,-1.02,-11.97,1
2513,39.51,-2.68,4.76,1
2514,39.52,-6.64,4.49,1
2515,39.53,14.48,5.63,1
2516,39.54,10.54,9.56,1
2517,39.56,6.9,22.26,1
2518,39.57,-16.53,0.54,1
2519,39.59,-2.79,-0.44,1
2520,39.6,-11.96,-22.92,1
2521,39.61,-19.53,-5.3,1
2522,39.63,-28.47,2.38,1
2523,39.64,-7.03,-11.77,1
2524,39.65,-6.71,-7.88,1
2525,39.67,-0.09,10.63,1
2526,39.68,-0.4,-5.8,1
2527,39.69,-10.87,2.24,1
2528,39.71,-17.14,-0.5,1
2529,39.72,-31.31,3.86,1
2530,39.73,-22.22,-1.9,1
2531,39.75,-2.65,-10.95,1
2532,39.76,-30.26,-4.58,1
2533,39.77,-24.99,4.42,1
2534,39.79,-15.89,-4.05,1
2535,39.8,-4.08,-21.62,1
2536,39.81,-11.82,-0.19,1
2537,39.83,-23.71,6.37,1
2538,39.84,3.89,-0.0,1
2539,39.85,-12.27,-1.81,1
2540,39.87,-3.37,0.91,1
2541,39.88,-14.0,-2.0,1
2542,39.89,14.05,9.53,1
2543,39.91,-9.01,8.42,1
2544,39.92,-3.38,0.73,1
2545,39.93,-5.58,-4.19,1
2546,39.95,7.3,5.88,1
2547,39.96,-10.29,20.63,1
2548,39.97,-2.85,24.33,1
2549,39.99,-9.68,-2.39,1
2550,40.0,6.78,1.27,1
2551,40.01,-3.33,6.11,1
2552,40.03,-9.87,1.61,1
2553,40.04,2.82,-0.49,1
2554,40.05,-4.33,-3.14,1
2555,40.07,-18.83,2.91,1
2556,40.08,-13.41,3.23,1
2557,40.09,-11.96,-8.42,1
2558,40.11,14.35,-19.09,1
2559,40.12,5.74,3.11,1
2560,40.13,7.26,9.83,1
2561,40.15,-2.47,0.32,1
2562,40.16,-8.66,-9.03,0
2563,40.17,22.89,7.97,0
2564,40.19,-17.81,-25.99,0
2565,40.2,-43.49,-24.93,0
2566,40.21,-104.98,-28.21,0
2567,40.22,-200.8,-8.27,0
2568,40.24,-241.1,-33.35,0
2569,40.25,-153.2,-17.02,0
2570,40.27,-101.84,10.82,0
2571,40.28,-70.54,-1.6,0
2572,40.29,-9.86,1.44,0
2573,40.31,56.15,7.25,0
2574,40.32,115.13,16.98,0
2575,40.33,137.06,5.16,0
2576,40.35,177.18,18.62,0
2577,40.36,200.18,20.42,0
2578,40.37,188.16,30.07,0
2579,40.38,197.01,25.38,0
2580,40.4,178.37,-3.91,0
2581,40.41,189.86,11.39,0
2582,40.43,154.53,18.87,0
2583,40.44,137.86,33.18,0
2584,40.45,101.23,2.95,0
2585,40.47,115.17,-10.56,0
2586,40.48,67.68,9.38,0
2587,40.49,36.43,-5.43,0
2588,40.51,22.34,7.01,0
2589,40.52,29.72,17.73,0
2590,40.53,11.92,16.61,0
2591,40.55,0.34,-14.69,0
2592,40.56,-37.73,-2.0,1
2593,40.57,-22.51,-0.69,1
2594,40.59,-49.74,8.65,1
2595,40.6,-82.4,-10.07,1
2596,40.61,-83.54,-19.23,1
2597,40.63,-102.99,-3.62,1
2598,40.64,-108.65,-10.85,1
2599,40.65,-94.94,-37.31,1
2600,40.67,-84.77,-1.18,1
2601,40.68,-104.9,-20.46,1
2602,40.69,-95.72,-6.58,1
2603,40.71,-83.73,4.94,1
2604,40.72,-64.41,-8.3,1
2605,40.73,-67.6,-0.55,1
2606,40.75,-74.51,-9.04,1
2607,40.76,-64.47,-2.86,1
2608,40.77,-58.02,-9.27,1
2609,40.79,-64.62,-8.1,1
2610,40.8,-84.55,-19.05,1
2611,40.81,-78.75,-10.41,1
2612,40.83,-51.78,-19.45,1
2613,40.84,-47.69,-8.33,1
2614,40.85,-43.64,-2.74,1
2615,40.87,-35.59,-7.56,1
2616,40.88,-4.38,10.01,1
2617,40.89,-11.88,-0.87,1
2618,40.9,-5.11,14.05,1
2619,40.92,-19.05,-1.97,1
2620,40.93,25.03,15.62,1
2621,40.95,-1.56,4.54,1
2622,40.96,12.65,12.73,1
2623,40.97,16.67,-4.74,1
2624,40.99,19.47,11.07,1
2625,41.0,7.49,8.33,1
2626,41.01,21.73,9.14,1
2627,41.03,31.42,10.43,1
2628,41.04,19.79,12.78,1
2629,41.05,34.0,-7.3,1
2630,41.06,23.88,-12.75,1
2631,41.08,25.97,16.65,1
2632,41.09,16.48,0.27,1
2633,41.11,8.87,12.29,1
2634,41.12,20.22,9.3,1
2635,41.13,49.37,17.62,1
2636,41.15,22.5,1.17,1
2637,41.16,39.31,-6.07,1
2638,41.17,41.52,-0.89,1
2639,41.19,48.44,5.48,1
2640,41.2,29.83,-12.62,1
2641,41.21,22.16,-6.94,1
2642,41.23,20.48,-2.91,1
2643,41.24,28.72,13.05,1
2644,41.25,31.99,10.86,1
2645,41.27,34.99,-5.19,1
2646,41.28,33.73,-8.18,1
2647,41.29,27.09,-15.89,1
2648,41.31,22.27,-21.67,1
2649,41.32,20.32,-22.9,1
2650,41.33,30.89,9.83,1
2651,41.35,8.71,13.87,1
2652,41.36,5.53,-5.85,1
2653,41.37,-0.13,-10.0,1
2654,41.38,15.87,-7.15,1
2655,41.4,14.39,33.32,1
2656,41.41,0.57,-5.35,1
2657,41.43,-11.58,-12.48,1
2658,41.44,8.26,6.13,1
2659,41.45,-4.78,0.36,1
2660,41.47,5.35,8.8,1
2661,41.48,-18.09,-12.3,1
2662,41.49,2.22,6.16,1
2663,41.51,-13.3,9.37,1
2664,41.52,5.44,-10.11,1
2665,41.53,-7.79,-5.07,1
2666,41.54,8.4,8.26,1
2667,41.56,-24.75,0.35,1
2668,41.57,-11.82,13.96,1
2669,41.59,-16.43,-1.86,1
2670,41.6,6.07,-10.17,1
2671,41.61,-0.58,-7.35,1
2672,41.63,4.66,0.99,1
2673,41.64,-10.82,12.53,1
2674,41.65,-3.3,8.06,1
2675,41.67,-9.44,-0.45,1
2676,41.68,-38.53,-8.85,1
2677,41.69,-26.12,18.19,1
2678,41.71,3.9,0.71,1
2679,41.72,-9.79,5.35,1
2680,41.73,-6.72,-10.81,1
2681,41.75,2.09,6.41,1
2682,41.76,-4.73,-0.5,1
2683,41.77,-2.28,-12.87,1
2684,41.79,-10.03,-27.77,1
2685,41.8,-3.05,12.77,1
2686,41.81,-13.77,7.53,1
2687,41.83,-9.26,9.94,1
2688,41.84,-6.05,-2.89,1
2689,41.85,12.38,-0.83,1
2690,41.87,-2.8,-0.19,1
2691,41.88,-1.56,-22.94,1
2692,41.89,-18.58,2.91,1
2693,41.91,4.76,8.84,1
2694,41.92,-4.66,-0.29,1
2695,41.93,-7.36,2.2,1
2696,41.95,-18.93,33.74,1
2697,41.96,8.91,8.84,1
2698,41.97,5.56,-4.38,1
2699,41.99,-8.67,-16.8,1
2700,42.0,-13.49,-6.25,1
2701,42.01,15.01,-5.06,1
2702,42.03,-8.71,9.28,1
2703,42.04,1.78,-15.33,1
2704,42.05,-3.9,-5.18,1
2705,42.06,-10.52,14.2,1
2706,42.08,-12.97,-6.95,1
2707,42.09,-6.87,-4.21,1
2708,42.11,-3.2,10.67,1
2709,42.12,-3.91,2.25,1
2710,42.13,19.0,-13.32,1
2711,42.15,-1.35,6.76,1
2712,42.16,7.23,4.36,2
2713,42.17,27.51,6.24,2
2714,42.19,-5.45,-11.01,2
2715,42.2,5.32,2.22,2
2716,42.21,60.91,7.63,2
2717,42.22,96.26,16.71,2
2718,42.24,169.35,15.75,2
2719,42.25,202.24,37.12,2
2720,42.27,246.47,22.54,2
2721,42.28,183.08,6.07,2
2722,42.29,140.8,4.52,2
2723,42.31,87.94,-7.1,2
2724,42.32,43.34,-22.73,2
2725,42.33,0.63,-37.96,2
2726,42.35,-60.18,-37.43,2
2727,42.36,-184.25,-25.07,2
2728,42.37,-256.86,-39.37,2
2729,42.38,-315.27,-34.95,2
2730,42.4,-330.16,-6.04,2
2731,42.41,-316.78,-3.37,2
2732,42.43,-275.79,-19.25,2
2733,42.44,-250.16,-11.04,2
2734,42.45,-207.8,17.11,2
2735,42.47,-176.71,17.41,2
2736,42.48,-109.63,1.63,2
2737,42.49,-45.59,-12.07,2
2738,42.51,-30.25,3.46,2
2739,42.52,-4.88,-3.45,2
2740,42.53,-0.08,-3.7,2
2741,42.55,17.54,-6.47,2
2742,42.56,21.19,18.18,1
2743,42.57,55.54,17.11,1
2744,42.59,52.91,21.11,1
2745,42.6,69.63,1.68,1
2746,42.61,66.38,12.76,1
2747,42.63,92.21,-3.51,1
2748,42.64,99.89,7.7,1
2749,42.65,109.44,15.09,1
2750,42.67,95.79,2.02,1
2751,42.68,119.77,6.92,1
2752,42.69,115.41,14.32,1
2753,42.71,114.66,12.77,1
2754,42.72,110.27,9.97,1
2755,42.73,117.66,-4.05,1
2756,42.75,115.35,8.92,1
2757,42.76,102.75,4.36,1
2758,42.77,108.23,15.71,1
2759,42.79,101.62,6.78,1
2760,42.8,78.86,3.95,1
2761,42.81,71.48,4.53,1
2762,42.83,83.39,-3.45,1
2763,42.84,47.71,-0.38,1
2764,42.85,58.58,1.2,1
2765,42.87,22.34,18.57,1
2766,42.88,51.81,-1.7,1
2767,42.89,46.44,-15.37,1
2768,42.9,4.1,5.47,1
2769,42.92,-1.87,25.36,1
2770,42.93,20.25,1.03,1
2771,42.95,-14.35,-17.27,1
2772,42.96,3.65,-17.83,1
2773,42.97,-9.8,1.08,1
2774,42.99,-19.16,-3.38,1
2775,43.0,-21.16,-14.68,1
2776,43.01,-34.22,-7.62,1
2777,43.03,-36.77,8.25,1
2778,43.04,-8.49,21.44,1
2779,43.05,-41.28,-13.6,1
2780,43.06,-53.93,-1.25,1
2781,43.08,-50.89,-19.77,1
2782,43.09,-25.59,-12.8,1
2783,43.11,-61.75,-15.35,1
2784,43.12,-43.29,-1.94,1
2785,43.13,-68.31,2.12,1
2786,43.15,-36.52,1.76,1
2787,43.16,-46.46,-13.31,1
2788,43.17,-45.09,23.37,1
2789,43.19,-33.74,5.51,1
2790,43.2,-33.58,-7.72,1
2791,43.21,-55.83,-12.14,1
2792,43.23,-40.08,-13.82,1
2793,43.24,-33.77,-10.15,1
2794,43.25,-39.78,-24.89,1
2795,43.27,-41.13,-0.15,1
2796,43.28,-48.87,-0.69,1
2797,43.29,-28.88,3.53,1
2798,43.31,-13.66,-0.92,1
2799,43.32,-23.7,11.96,1
2800,43.33,-23.16,-0.39,1
2801,43.35,-14.62,0.38,1
2802,43.36,-20.49,-9.47,1
2803,43.37,-21.9,-4.87,1
2804,43.38,-22.34,0.2,1
2805,43.4,-4.04,12.98,1
2806,43.41,-8.61,2.01,1
2807,43.43,5.96,11.88,1
2808,43.44,-1.82,15.51,1
2809,43.45,1.34,15.04,1
2810,43.47,8.93,-0.28,1
2811,43.48,-9.74,-0.52,1
2812,43.49,-13.32,2.49,1
2813,43.51,17.47,-12.42,1
2814,43.52,11.11,0.65,1
2815,43.53,9.19,1.78,1
2816,43.54,20.47,17.36,1
2817,43.56,27.93,-10.57,1
2818,43.57,22.54,-13.9,1
2819,43.59,1.68,6.16,1
2820,43.6,23.36,6.52,1
2821,43.61,16.74,-2.8,1
2822,43.63,9.13,6.53,1
2823,43.64,7.45,-0.07,1
2824,43.65,18.03,0.12,1
2825,43.67,16.76,-12.99,1
2826,43.68,15.85,12.86,1
2827,43.69,13.42,-5.1,1
2828,43.71,34.55,-11.47,1
2829,43.72,7.77,-5.06,1
2830,43.73,4.17,15.37,1
2831,43.75,4.27,-4.43,1
2832,43.76,18.5,17.47,1
2833,43.77,6.22,10.3,1
2834,43.79,14.62,11.3,1
2835,43.8,-4.95,18.43,1
2836,43.81,26.36,-2.96,1
2837,43.83,4.96,-2.02,1
2838,43.84,6.42,12.27,1
2839,43.85,-2.45,-9.47,1
2840,43.87,17.53,-3.73,1
2841,43.88,11.86,-5.92,1
2842,43.89,8.36,-18.6,1
2843,43.91,-2.65,-21.36,1
2844,43.92,7.0,-20.48,1
2845,43.93,-2.71,-0.23,1
2846,43.95,-12.66,-8.53,1
2847,43.96,13.12,-16.72,1
2848,43.97,5.64,-28.76,1
2849,43.99,3.96,-4.95,1
2850,44.0,-8.69,12.92,1
2851,44.01,24.15,9.47,1
2852,44.03,-5.59,-7.76,1
2853,44.04,-1.74,3.83,1
2854,44.05,-11.02,7.07,1
2855,44.06,-10.08,-12.38,1
2856,44.08,-9.7,-3.67,1
2857,44.09,21.42,12.63,1
2858,44.11,-10.15,7.09,1
2859,44.12,9.23,7.19,1
2860,44.13,4.96,6.16,1
2861,44.15,8.21,17.69,1
2862,44.16,10.82,34.89,1
2863,44.17,-0.31,44.48,1
2864,44.19,-16.76,76.66,1
2865,44.2,-7.51,309.49,1
2866,44.21,6.73,318.3,1
2867,44.22,53.56,192.12,1
2868,44.24,-145.99,34.8,1
2869,44.25,62.18,86.39,1
2870,44.27,158.32,-242.5,1
2871,44.28,172.92,-286.29,1
2872,44.29,-107.67,-31.47,1
2873,44.31,24.01,38.96,1
2874,44.32,-21.24,-15.89,1
2875,44.33,-25.73,133.6,1
2876,44.35,94.92,-59.97,1
2877,44.36,-162.53,-365.77,1
2878,44.37,-123.47,-194.48,1
2879,44.385000000000005,-5.33,93.41,1
2880,44.4,102.83,-130.78,1
2881,44.41,-50.1,-11.21,1
2882,44.43,-114.15,-278.38,1
2883,44.44,78.19,-80.86,1
2884,44.45,-265.1,135.73,1
2885,44.47,13.22,-126.29,1
2886,44.48,-156.63,-304.84,1
2887,44.49,-227.31,-36.21,1
2888,44.51,116.98,-312.99,1
2889,44.52,-201.76,-20.92,1
2890,44.53,202.64,-266.85,1
2891,44.55,-157.44,11.68,1
2892,44.56,368.09,245.5,1
2893,44.57,55.99,-61.42,1
2894,44.59,97.67,-198.22,1
2895,44.6,-42.46,212.2,1
2896,44.61,195.23,-229.34,1
2897,44.63,-19.96,-104.96,1
2898,44.64,-52.16,325.4,1
2899,44.65,-57.48,135.55,1
2900,44.67,-11.83,145.81,1
2901,44.68,-252.11,140.11,1
2902,44.69,-48.48,21.87,1
2903,44.71,59.43,-192.39,1
2904,44.72,77.56,253.72,1
2905,44.73,24.81,231.86,1
2906,44.75,-154.9,-57.68,1
2907,44.76,-24.95,172.62,1
2908,44.77,-66.91,-9.72,1
2909,44.79,168.81,229.68,1
2910,44.8,-60.7,58.27,1
2911,44.81,55.15,49.78,1
2912,44.83,-0.21,89.84,1
2913,44.84,185.7,396.28,1
2914,44.85,6.95,-83.15,1
2915,44.87,-27.0,223.4,1
2916,44.88,-69.44,80.72,1
2917,44.89,73.17,-183.61,1
2918,44.9,23.31,-169.8,1
2919,44.92,317.97,-224.07,1
2920,44.93,124.49,65.85,1
2921,44.95,110.05,-37.51,1
2922,44.96,-27.54,93.82,1
2923,44.97,44.81,29.04,1
2924,44.99,-24.2,0.37,1
2925,45.0,30.9,-25.58,1
2926,45.01,73.47,-44.1,1
2927,45.03,12.22,-72.77,1
2928,45.04,-3.96,-103.31,1
2929,45.05,-70.14,-107.92,1
2930,45.07,-124.45,-57.77,1
2931,45.08,-101.68,-39.79,1
2932,45.09,-107.47,-23.16,1
2933,45.11,-75.87,15.27,1
2934,45.12,-57.02,49.68,1
2935,45.13,-36.11,74.72,1
2936,45.15,-13.21,110.74,1
2937,45.16,-8.35,136.66,1
2938,45.17,15.91,157.61,1
2939,45.19,12.43,145.45,1
2940,45.2,35.76,131.76,1
2941,45.21,32.88,115.8,1
2942,45.22,2.97,95.26,1
2943,45.24,8.61,64.71,1
2944,45.25,24.77,40.04,1
2945,45.27,20.57,31.91,1
2946,45.28,15.12,24.17,1
2947,45.29,5.91,13.07,1
2948,45.31,20.98,-22.39,1
2949,45.32,-9.76,-44.59,1
2950,45.33,1.03,-70.07,1
2951,45.35,37.1,-84.08,1
2952,45.36,37.52,-82.54,1
2953,45.37,11.74,-83.02,1
2954,45.38,-5.29,-81.0,1
2955,45.4,-32.75,-73.21,1
2956,45.41,-12.54,-80.45,1
2957,45.43,-31.92,-96.32,1
2958,45.44,-38.2,-94.68,1
2959,45.45,-35.97,-101.2,1
2960,45.47,-27.37,-70.73,1
2961,45.48,-33.25,-86.59,1
2962,45.49,-35.62,-83.24,1
2963,45.51,-15.17,-89.48,1
2964,45.52,-16.0,-73.59,1
2965,45.53,-25.21,-77.53,1
2966,45.54,-21.48,-56.99,1
2967,45.56,-34.2,-60.43,1
2968,45.57,-31.35,-33.78,1
2969,45.59,-25.99,-28.88,1
2970,45.6,-27.92,-32.98,1
2971,45.61,-9.33,-33.44,1
2972,45.63,-18.72,-31.51,1
2973,45.64,-12.3,-30.52,1
2974,45.65,-8.85,-32.67,1
2975,45.67,17.65,-22.71,1
2976,45.68,16.78,-12.67,1
2977,45.69,0.07,-1.05,1
2978,45.71,-4.32,-6.43,1
2979,45.72,4.57,-12.45,1
2980,45.73,5.22,7.69,1
2981,45.75,-5.14,20.54,1
2982,45.76,6.23,22.27,1
2983,45.77,10.67,34.89,1
2984,45.79,20.3,25.94,1
2985,45.8,8.69,29.23,1
2986,45.81,44.37,30.07,1
2987,45.83,17.95,24.86,1
2988,45.84,11.6,28.85,1
2989,45.85,1.83,31.45,1
2990,45.87,18.21,43.46,1
2991,45.88,11.33,28.93,1
2992,45.89,0.52,45.46,1
2993,45.9,23.14,49.17,1
2994,45.92,22.65,29.24,1
2995,45.93,0.1,29.21,1
2996,45.95,-3.43,26.08,1
2997,45.96,-1.8,31.21,1
2998,45.97,20.17,43.56,1
2999,45.99,17.59,29.34,1
3000,46.0,21.01,30.3,1
3001,46.01,2.33,15.29,1
3002,46.03,21.57,34.8,1
3003,46.04,10.04,27.09,1
3004,46.05,6.83,33.28,1
3005,46.06,-27.83,17.72,1
3006,46.08,15.34,-5.25,1
3007,46.09,-17.85,12.34,1
3008,46.11,4.97,27.67,1
3009,46.12,16.19,12.8,1
3010,46.13,9.05,11.03,1
3011,46.15,2.71,18.76,1
3012,46.16,5.82,-0.61,2
3013,46.17,-5.6,22.24,2
3014,46.19,21.58,13.44,2
3015,46.2,5.44,1.4,2
3016,46.21,1.42,-2.16,2
3017,46.22,13.64,-4.24,2
3018,46.24,-0.4,-10.58,2
3019,46.25,2.41,4.46,2
3020,46.27,26.46,12.02,2
3021,46.28,99.92,6.19,2
3022,46.29,168.43,-13.34,2
3023,46.31,189.11,-8.97,2
3024,46.32,172.59,-27.06,2
3025,46.33,128.53,-15.16,2
3026,46.35,52.75,-3.88,2
3027,46.36,-17.98,-6.45,2
3028,46.37,-53.97,-12.03,2
3029,46.39,-80.12,8.85,2
3030,46.4,-123.0,-3.79,2
3031,46.41,-165.71,9.49,2
3032,46.43,-154.62,9.37,2
3033,46.44,-154.52,-17.72,2
3034,46.45,-169.15,-7.0,2
3035,46.47,-164.88,-17.95,2
3036,46.48,-166.27,-2.68,2
3037,46.49,-135.31,0.94,2
3038,46.51,-134.26,-17.87,2
3039,46.52,-124.51,-9.5,2
3040,46.53,-88.01,-14.87,2
3041,46.54,-66.82,-19.34,2
3042,46.56,-60.89,-1.88,1
3043,46.57,-53.58,-8.26,1
3044,46.59,-12.95,-4.51,1
3045,46.6,-3.46,2.02,1
3046,46.61,-17.57,-4.71,1
3047,46.63,-8.12,-4.19,1
3048,46.64,30.59,-9.07,1
3049,46.65,28.54,-21.9,1
3050,46.67,52.9,8.21,1
3051,46.68,40.61,-6.93,1
3052,46.69,73.35,-10.53,1
3053,46.71,85.86,-11.68,1
3054,46.72,90.16,-4.65,1
3055,46.73,90.71,-6.59,1
3056,46.75,87.64,-26.21,1
3057,46.76,70.99,-7.84,1
3058,46.77,97.12,-0.94,1
3059,46.79,78.37,-3.88,1
3060,46.8,82.5,5.95,1
3061,46.81,73.13,-22.36,1
3062,46.83,65.45,9.69,1
3063,46.84,75.72,-10.22,1
3064,46.85,72.55,13.26,1
3065,46.87,64.12,25.21,1
3066,46.88,59.16,-11.64,1
3067,46.89,37.09,13.11,1
3068,46.9,64.32,-8.96,1
3069,46.92,44.22,8.49,1
3070,46.93,45.61,15.08,1
3071,46.95,43.44,14.99,1
3072,46.96,2.29,14.41,1
3073,46.97,9.79,9.19,1
3074,46.99,3.31,-1.84,1
3075,47.0,11.56,-6.41,1
3076,47.01,-5.54,-7.36,1
3077,47.03,-1.46,2.38,1
3078,47.04,-15.5,-11.69,1
3079,47.05,-0.88,-21.42,1
3080,47.07,-30.19,1.75,1
3081,47.08,-13.72,12.67,1
3082,47.09,-23.03,17.76,1
3083,47.11,-0.06,7.88,1
3084,47.12,-18.03,10.22,1
3085,47.13,-33.04,-8.58,1
3086,47.15,-31.6,7.15,1
3087,47.16,-12.45,12.5,1
3088,47.17,-17.24,16.27,1
3089,47.19,-21.77,4.73,1
3090,47.2,-46.92,-2.27,1
3091,47.21,-16.29,4.57,1
3092,47.22,-16.26,-2.02,1
3093,47.24,-23.38,6.01,1
3094,47.25,-46.19,12.12,1
3095,47.27,-35.84,-6.04,1
3096,47.28,-44.36,-1.61,1
3097,47.29,-32.79,0.95,1
3098,47.31,-32.99,4.33,1
3099,47.32,-36.88,-1.5,1
3100,47.33,-36.96,-1.13,1
3101,47.35,-38.16,-5.03,1
3102,47.36,-31.07,-15.6,1
3103,47.37,-25.14,3.04,1
3104,47.38,-24.55,12.12,1
3105,47.4,-44.63,-5.74,1
3106,47.41,-9.83,2.15,1
3107,47.43,-23.21,-5.97,1
3108,47.44,-10.74,-5.61,1
3109,47.45,-10.51,-31.87,1
3110,47.47,-15.86,4.55,1
3111,47.48,-13.32,-7.15,1
3112,47.49,3.41,6.04,1
3113,47.51,-16.85,3.14,1
3114,47.52,17.28,-11.44,1
3115,47.53,7.56,0.69,1
3116,47.54,5.45,-7.79,1
3117,47.56,-6.94,-6.93,1
3118,47.57,5.19,2.41,1
3119,47.59,5.23,-9.39,1
3120,47.6,21.54,-10.02,1
3121,47.61,3.13,15.48,1
3122,47.63,31.47,10.68,1
3123,47.64,9.15,-5.12,1
3124,47.65,14.68,10.68,1
3125,47.67,4.16,1.74,1
3126,47.68,15.37,9.06,1
3127,47.69,28.7,5.39,1
3128,47.71,11.19,-3.5,1
3129,47.72,18.51,0.94,1
3130,47.73,17.08,3.46,1
3131,47.75,2.59,-0.7,1
3132,47.76,15.28,5.8,1
3133,47.77,16.05,2.79,1
3134,47.79,13.85,3.26,1
3135,47.8,7.14,7.34,1
3136,47.81,-8.21,4.2,1
3137,47.83,13.99,5.34,1
3138,47.84,16.53,8.69,1
3139,47.85,2.3,-7.21,1
3140,47.87,-14.41,-4.81,1
3141,47.88,9.79,6.38,1
3142,47.89,7.04,-3.06,1
3143,47.9,10.52,0.29,1
3144,47.92,-6.43,-24.22,1
3145,47.93,10.31,-2.06,1
3146,47.95,-4.0,3.89,1
3147,47.96,16.08,0.25,1
3148,47.97,-9.2,-15.01,1
3149,47.99,11.26,-9.86,1
3150,48.0,-2.03,-6.42,1
3151,48.01,-4.41,0.59,1
3152,48.03,-2.0,4.19,1
3153,48.04,15.35,2.34,1
3154,48.05,5.01,6.99,1
3155,48.06,-31.96,11.53,1
3156,48.08,20.8,10.03,1
3157,48.09,-9.94,7.95,1
3158,48.11,24.99,0.12,1
3159,48.12,-11.29,10.75,1
3160,48.13,14.38,-1.71,1
3161,48.15,20.41,3.98,1
3162,48.16,-10.87,-6.23,0
3163,48.17,-5.0,-16.19,0
3164,48.19,10.44,7.72,0
3165,48.2,-14.58,-12.6,0
3166,48.21,-5.97,-21.19,0
3167,48.22,23.43,12.19,0
3168,48.24,0.15,-5.44,0
3169,48.25,-77.82,2.69,0
3170,48.27,-93.76,0.71,0
3171,48.28,-171.0,-9.16,0
3172,48.29,-170.15,-21.89,0
3173,48.31,-188.98,1.55,0
3174,48.32,-184.19,-1.9,0
3175,48.33,-148.78,-11.48,0
3176,48.35,-83.83,-22.85,0
3177,48.36,-43.79,-22.58,0
3178,48.37,-16.07,-10.77,0
3179,48.39,50.87,6.92,0
3180,48.4,148.66,29.99,0
3181,48.41,239.65,15.07,0
3182,48.43,286.3,8.55,0
3183,48.44,294.82,23.06,0
3184,48.45,291.69,29.25,0
3185,48.47,266.58,27.29,0
3186,48.48,223.33,26.78,0
3187,48.49,207.34,18.74,0
3188,48.51,150.29,10.85,0
3189,48.52,114.15,-12.26,0
3190,48.53,74.06,-15.67,0
3191,48.54,56.24,-11.62,0
3192,48.56,34.84,13.66,1
3193,48.57,-21.33,-10.28,1
3194,48.59,-40.11,-17.05,1
3195,48.6,-43.88,2.99,1
3196,48.61,-45.79,-15.41,1
3197,48.63,-84.8,-4.14,1
3198,48.64,-112.49,7.97,1
3199,48.65,-83.84,-3.8,1
3200,48.67,-104.71,-10.74,1
3201,48.68,-97.94,5.76,1
3202,48.69,-102.35,1.56,1
3203,48.71,-119.97,-15.29,1
3204,48.72,-118.25,-5.5,1
3205,48.73,-121.41,-6.18,1
3206,48.75,-106.99,-10.11,1
3207,48.76,-82.02,-4.82,1
3208,48.77,-91.1,5.72,1
3209,48.79,-92.68,7.02,1
3210,48.8,-73.12,-1.49,1
3211,48.81,-71.8,-21.85,1
3212,48.83,-54.86,-12.4,1
3213,48.84,-68.56,5.96,1
3214,48.85,-54.09,-2.63,1
3215,48.87,-59.11,11.17,1
3216,48.88,-33.97,21.74,1
3217,48.89,-45.35,2.95,1
3218,48.9,-25.65,-0.95,1
3219,48.92,-25.21,-8.02,1
3220,48.93,-13.55,1.27,1
3221,48.95,-11.35,-2.19,1
3222,48.96,6.32,2.21,1
3223,48.97,-8.79,1.63,1
3224,48.99,-3.87,7.03,1
3225,49.0,-0.59,-13.83,1
3226,49.01,17.69,2.32,1
3227,49.03,18.27,7.6,1
3228,49.04,28.06,3.08,1
3229,49.05,15.59,7.51,1
3230,49.06,48.38,-1.37,1
3231,49.08,34.47,5.34,1
3232,49.09,36.45,-12.9,1
3233,49.11,19.83,-10.96,1
3234,49.12,49.86,-1.93,1
3235,49.13,35.24,18.54,1
3236,49.15,40.91,16.67,1
3237,49.16,35.38,-7.42,1
3238,49.17,48.36,-14.82,1
3239,49.19,41.62,-11.66,1
3240,49.2,41.12,-8.83,1
3241,49.21,45.69,-2.25,1
3242,49.22,30.57,2.18,1
3243,49.24,16.07,-0.99,1
3244,49.25,31.82,3.69,1
3245,49.27,48.65,-1.79,1
3246,49.28,36.82,-2.15,1
3247,49.29,21.25,6.44,1
3248,49.31,18.67,13.83,1
3249,49.32,28.24,8.03,1
3250,49.33,32.18,-11.39,1
3251,49.35,27.86,2.72,1
3252,49.36,-7.5,10.95,1
3253,49.37,11.68,0.64,1
3254,49.38,6.22,-8.96,1
3255,49.4,1.72,-1.52,1
3256,49.41,-1.76,-2.03,1
3257,49.43,28.71,-8.85,1
3258,49.44,6.9,11.98,1
3259,49.45,-13.39,0.26,1
3260,49.47,-5.69,16.76,1
3261,49.48,25.14,6.43,1
3262,49.49,2.78,-1.99,1
3263,49.51,-17.9,9.67,1
3264,49.52,-13.3,-3.55,1
3265,49.53,12.21,-1.8,1
3266,49.54,-3.78,5.09,1
3267,49.56,-0.16,8.4,1
3268,49.57,14.87,3.29,1
3269,49.59,0.44,-9.48,1
3270,49.6,14.83,-13.57,1
3271,49.61,-6.44,-9.79,1
3272,49.63,-3.09,-11.16,1
3273,49.64,-17.37,4.4,1
3274,49.65,-10.04,9.37,1
3275,49.67,-15.68,-10.75,1
3276,49.68,1.73,-2.45,1
3277,49.69,-19.86,0.78,1
3278,49.71,-23.92,7.03,1
3279,49.72,-26.05,-2.89,1
3280,49.73,-11.95,1.98,1
3281,49.75,-9.26,-2.59,1
3282,49.76,-15.13,1.12,1
3283,49.77,-30.88,-17.78,1
3284,49.79,-4.31,-7.93,1
3285,49.8,-20.9,7.49,1
3286,49.81,-18.81,4.1,1
3287,49.83,-39.22,6.91,1
3288,49.84,-5.52,2.19,1
3289,49.85,-4.91,-1.05,1
3290,49.87,-14.96,7.48,1
3291,49.88,-15.1,-6.84,1
3292,49.89,-6.16,8.5,1
3293,49.9,1.13,9.41,1
3294,49.92,-1.46,-2.36,1
3295,49.93,10.47,8.41,1
3296,49.95,12.84,12.63,1
3297,49.96,-3.26,6.05,1
3298,49.97,-5.83,-2.21,1
3299,49.99,19.11,-9.06,1
3300,50.0,-0.9,-10.42,1
3301,50.01,-13.64,-19.43,1
3302,50.03,-13.37,1.22,1
3303,50.04,5.71,-14.98,1
3304,50.05,-8.06,-0.89,1
3305,50.06,4.57,3.16,1
3306,50.08,-37.23,13.08,1
3307,50.09,-2.03,-12.89,1
3308,50.11,17.34,-3.56,1
3309,50.12,-16.76,-10.56,1
3310,50.13,2.86,-1.32,1
3311,50.15,38.56,9.97,1
3312,50.16,3.58,-19.49,0
3313,50.17,7.12,-2.06,0
3314,50.19,2.52,-8.94,0
3315,50.2,-41.56,-1.3,0
3316,50.21,-122.49,-4.42,0
3317,50.22,-186.12,19.05,0
3318,50.24,-214.04,7.09,0
3319,50.25,-155.83,-21.58,0
3320,50.27,-126.52,-12.6,0
3321,50.28,-69.84,-23.12,0
3322,50.29,-2.84,-2.12,0
3323,50.31,71.64,25.61,0
3324,50.32,118.25,7.41,0
3325,50.33,147.58,6.77,0
3326,50.35,158.56,16.23,0
3327,50.36,167.36,0.71,0
3328,50.37,181.59,4.72,0
3329,50.38,180.51,35.68,0
3330,50.4,196.57,13.13,0
3331,50.41,169.72,11.33,0
3332,50.43,154.79,11.29,0
3333,50.44,139.25,12.11,0
3334,50.45,117.28,3.56,0
3335,50.47,97.74,8.38,0
3336,50.48,80.02,-8.82,0
3337,50.49,36.7,10.84,0
3338,50.51,42.93,17.33,0
3339,50.52,12.34,20.04,0
3340,50.53,-2.54,-1.2,0
3341,50.54,-20.6,-6.71,0
3342,50.56,-17.37,-9.79,1
3343,50.57,-41.64,-5.29,1
3344,50.59,-50.66,9.99,1
3345,50.6,-73.27,-9.24,1
3346,50.61,-44.26,1.34,1
3347,50.63,-53.72,-9.19,1
3348,50.64,-77.91,-5.23,1
3349,50.65,-82.23,1.04,1
3350,50.67,-70.01,-0.64,1
3351,50.68,-103.56,-12.87,1
3352,50.69,-94.14,-13.15,1
3353,50.71,-94.67,-17.87,1
3354,50.72,-89.95,-6.63,1
3355,50.73,-94.91,-3.06,1
3356,50.75,-96.16,-21.02,1
3357,50.76,-82.45,-5.89,1
3358,50.77,-80.58,1.51,1
3359,50.79,-74.36,-9.8,1
3360,50.8,-95.72,-6.46,1
3361,50.81,-81.72,15.83,1
3362,50.83,-64.14,-1.26,1
3363,50.84,-62.55,-12.69,1
3364,50.85,-38.64,7.31,1
3365,50.87,-10.65,14.05,1
3366,50.88,-22.25,-3.32,1
3367,50.89,-32.2,-11.48,1
3368,50.91,-13.29,-6.07,1
3369,50.92,5.52,-5.64,1
3370,50.93,-3.82,-2.75,1
3371,50.95,4.12,3.42,1
3372,50.96,4.2,-2.35,1
3373,50.97,22.55,1.32,1
3374,50.99,20.52,-22.72,1
3375,51.0,10.05,-0.36,1
3376,51.01,17.41,1.3,1
3377,51.03,22.22,-1.88,1
3378,51.04,22.7,-5.27,1
3379,51.05,38.77,9.31,1
3380,51.06,35.03,19.8,1
3381,51.08,40.46,-6.75,1
3382,51.09,23.03,7.3,1
3383,51.11,24.73,-2.31,1
3384,51.12,58.47,-7.82,1
3385,51.13,47.54,4.74,1
3386,51.15,47.74,-3.28,1
3387,51.16,24.59,-10.16,1
3388,51.17,32.86,-9.11,1
3389,51.19,31.2,5.9,1
3390,51.2,25.62,-1.7,1
3391,51.21,45.93,-8.96,1
3392,51.22,44.3,0.31,1
3393,51.24,30.98,-4.39,1
3394,51.25,41.47,18.4,1
3395,51.27,36.31,2.31,1
3396,51.28,37.18,5.44,1
3397,51.29,13.09,14.27,1
3398,51.31,25.57,-1.62,1
3399,51.32,5.94,4.64,1
3400,51.33,21.05,8.74,1
3401,51.35,9.51,25.08,1
3402,51.36,1.6,20.12,1
3403,51.37,10.13,-14.29,1
3404,51.38,22.61,6.36,1
3405,51.4,8.51,-3.37,1
3406,51.41,1.86,-2.57,1
3407,51.43,3.39,5.46,1
3408,51.44,14.15,-3.81,1
3409,51.45,15.82,5.77,1
3410,51.47,5.86,6.24,1
3411,51.48,13.0,-17.13,1
3412,51.49,-7.76,0.57,1
3413,51.51,-25.47,11.31,1
3414,51.52,-23.37,3.59,1
3415,51.53,0.75,-8.24,1
3416,51.55,-17.23,0.34,1
3417,51.56,-36.4,-9.12,1
3418,51.57,-14.34,-5.02,1
3419,51.59,8.46,5.32,1
3420,51.6,-3.56,-0.41,1
3421,51.61,-28.78,-6.38,1
3422,51.63,-21.9,-9.79,1
3423,51.64,-6.51,-14.77,1
3424,51.65,-19.87,10.08,1
3425,51.67,-15.79,-3.52,1
3426,51.68,-7.55,5.54,1
3427,51.69,-17.0,-2.09,1
3428,51.71,2.19,-5.17,1
3429,51.72,7.93,15.91,1
3430,51.73,-29.99,17.34,1
3431,51.75,1.44,2.67,1
3432,51.76,-15.25,-8.25,1
3433,51.77,-26.5,-10.61,1
3434,51.79,-4.27,0.11,1
3435,51.8,4.3,-7.67,1
3436,51.81,-10.71,-7.22,1
3437,51.83,-6.61,-4.28,1
3438,51.84,-4.49,-3.16,1
3439,51.85,8.97,-9.76,1
3440,51.87,-22.02,-8.76,1
3441,51.88,-21.76,15.44,1
3442,51.89,-4.59,1.26,1
3443,51.9,-6.92,13.7,1
3444,51.92,-3.17,-1.01,1
3445,51.93,-3.27,-2.96,1
3446,51.95,9.19,-11.54,1
3447,51.96,2.96,0.02,1
3448,51.97,-1.68,32.47,1
3449,51.99,0.79,3.54,1
3450,52.0,18.6,2.59,1
3451,52.01,7.84,3.58,1
3452,52.03,-15.37,15.03,1
3453,52.04,1.15,18.97,1
3454,52.05,26.1,-10.06,1
3455,52.06,-2.19,1.59,1
3456,52.08,-45.18,-5.73,1
3457,52.09,-10.08,-8.88,1
3458,52.11,14.72,-1.85,1
3459,52.12,-6.11,-0.51,1
3460,52.13,24.08,4.87,1
3461,52.15,-10.11,-12.0,1
3462,52.16,10.72,-5.75,2
3463,52.17,15.76,11.42,2
3464,52.19,-3.34,-7.9,2
3465,52.2,24.43,-11.49,2
3466,52.21,7.01,6.35,2
3467,52.23,-10.3,-1.73,2
3468,52.24,11.38,-7.02,2
3469,52.25,31.11,7.17,2
3470,52.27,75.96,16.1,2
3471,52.28,117.68,32.46,2
3472,52.29,162.91,4.34,2
3473,52.31,214.73,9.58,2
3474,52.32,206.19,16.33,2
3475,52.33,180.12,-8.82,2
3476,52.35,127.32,-18.31,2
3477,52.36,81.14,-19.62,2
3478,52.37,34.29,-12.96,2
3479,52.38,-11.88,-34.75,2
3480,52.4,-88.48,-30.11,2
3481,52.41,-160.06,-19.27,2
3482,52.43,-263.97,-17.59,2
3483,52.44,-335.25,-7.99,2
3484,52.45,-326.54,-35.65,2
3485,52.47,-290.21,-18.71,2
3486,52.48,-268.36,-7.4,2
3487,52.49,-239.39,-6.33,2
3488,52.51,-220.54,-19.46,2
3489,52.52,-161.91,-9.16,2
3490,52.53,-123.31,2.94,2
3491,52.54,-97.57,0.46,2
3492,52.56,-47.65,5.9,1
3493,52.57,-44.28,22.36,1
3494,52.59,-14.12,3.49,1
3495,52.6,23.62,14.07,1
3496,52.61,48.74,9.39,1
3497,52.63,63.24,20.52,1
3498,52.64,68.47,1.66,1
3499,52.65,87.76,14.74,1
3500,52.67,115.41,27.37,1
3501,52.68,95.99,17.8,1
3502,52.69,93.74,6.72,1
3503,52.71,107.83,7.98,1
3504,52.72,142.73,13.63,1
3505,52.73,115.09,12.24,1
3506,52.75,116.41,18.54,1
3507,52.76,119.35,9.6,1
3508,52.77,116.45,18.16,1
3509,52.79,111.84,14.04,1
3510,52.8,104.11,17.22,1
3511,52.81,92.83,-17.7,1
3512,52.83,96.42,14.34,1
3513,52.84,85.95,9.09,1
3514,52.85,84.51,4.14,1
3515,52.87,75.9,7.24,1
3516,52.88,62.94,12.38,1
3517,52.89,44.03,-9.35,1
3518,52.9,32.68,-15.07,1
3519,52.92,40.64,-1.65,1
3520,52.93,44.36,4.33,1
3521,52.95,17.33,7.19,1
3522,52.96,15.49,-13.23,1
3523,52.97,24.71,7.62,1
3524,52.99,18.44,-7.97,1
3525,53.0,4.91,-7.83,1
3526,53.01,-14.66,-13.11,1
3527,53.03,-7.77,-11.84,1
3528,53.04,-25.25,-0.9,1
3529,53.05,-27.14,-7.72,1
3530,53.06,-29.15,-19.89,1
3531,53.08,-30.23,-1.66,1
3532,53.09,-26.74,6.58,1
3533,53.11,-39.73,-21.76,1
3534,53.12,-43.06,-14.02,1
3535,53.13,-37.67,4.44,1
3536,53.15,-45.67,6.82,1
3537,53.16,-62.99,3.67,1
3538,53.17,-60.04,-6.42,1
3539,53.19,-31.18,-0.9,1
3540,53.2,-37.35,-4.16,1
3541,53.21,-53.92,-14.45,1
3542,53.22,-53.88,-10.86,1
3543,53.24,-30.39,8.87,1
3544,53.25,-36.26,5.08,1
3545,53.27,-51.69,-3.66,1
3546,53.28,-40.28,7.84,1
3547,53.29,-25.47,11.45,1
3548,53.31,-33.52,-23.47,1
3549,53.32,-36.9,-4.37,1
3550,53.33,-31.77,7.77,1
3551,53.35,-33.13,10.15,1
3552,53.36,-21.61,1.69,1
3553,53.37,-23.1,8.15,1
3554,53.38,-20.84,-12.18,1
3555,53.4,-11.82,1.09,1
3556,53.41,-29.46,-8.35,1
3557,53.43,-37.34,-9.94,1
3558,53.44,-9.09,-9.64,1
3559,53.45,5.84,19.42,1
3560,53.47,-0.17,-2.14,1
3561,53.48,-16.74,-18.33,1
3562,53.49,10.13,-4.29,1
3563,53.51,11.96,6.96,1
3564,53.52,-4.82,-4.79,1
3565,53.53,2.24,9.82,1
3566,53.54,16.09,-3.83,1
3567,53.56,16.03,5.63,1
3568,53.57,-12.48,4.49,1
3569,53.59,14.34,9.13,1
3570,53.6,4.06,5.36,1
3571,53.61,4.53,-1.36,1
3572,53.63,5.68,2.85,1
3573,53.64,11.24,21.5,1
3574,53.65,31.77,0.07,1
3575,53.67,19.09,-19.07,1
3576,53.68,18.42,2.42,1
3577,53.69,23.52,-11.79,1
3578,53.71,5.61,11.11,1
3579,53.72,12.04,0.68,1
3580,53.73,24.28,-1.89,1
3581,53.75,26.24,3.22,1
3582,53.76,7.77,2.13,1
3583,53.77,0.32,-16.5,1
3584,53.79,20.46,-4.52,1
3585,53.8,11.83,3.26,1
3586,53.81,1.07,23.55,1
3587,53.83,0.45,-16.45,1
3588,53.84,0.58,7.87,1
3589,53.85,14.12,7.92,1
3590,53.87,9.41,-2.6,1
3591,53.88,0.67,-6.72,1
3592,53.89,-5.24,12.63,1
3593,53.9,14.51,3.56,1
3594,53.92,11.17,1.53,1
3595,53.93,15.34,-8.85,1
3596,53.95,12.02,-1.61,1
3597,53.96,11.28,4.41,1
3598,53.97,1.19,10.92,1
3599,53.99,11.87,-4.16,1
3600,54.0,2.6,-8.05,1
3601,54.01,15.07,-8.76,1
3602,54.03,-1.81,-5.39,1
3603,54.04,10.74,2.61,1
3604,54.05,14.59,-2.67,1
3605,54.06,3.21,-2.21,1
3606,54.08,-21.45,-8.54,1
3607,54.09,0.97,-9.98,1
3608,54.11,-7.56,-3.99,1
3609,54.12,6.46,-9.36,1
3610,54.13,-0.06,10.09,1
3611,54.15,-29.66,91.43,1
3612,54.16,4.28,188.09,1
3613,54.17,-7.45,273.54,1
3614,54.19,-30.66,47.68,1
3615,54.2,-31.46,72.25,1
3616,54.21,-252.0,78.94,1
3617,54.22,171.55,107.15,1
3618,54.24,253.78,57.79,1
3619,54.25,36.33,-134.09,1
3620,54.27,42.75,-86.73,1
3621,54.28,-228.79,-2.15,1
3622,54.29,14.82,-175.24,1
3623,54.31,-95.82,-192.13,1
3624,54.32,84.5,53.32,1
3625,54.33,-123.13,-268.51,1
3626,54.35,41.15,23.27,1
3627,54.36,74.51,-318.56,1
3628,54.37,-147.72,168.73,1
3629,54.38,113.79,-218.8,1
3630,54.4,-36.19,74.31,1
3631,54.41,102.61,-284.74,1
3632,54.43,125.14,148.19,1
3633,54.44,-150.39,-453.21,1
3634,54.45,-186.28,-225.16,1
3635,54.47,136.01,-222.19,1
3636,54.48,90.85,-41.12,1
3637,54.49,-147.55,-0.79,1
3638,54.51,-135.07,155.68,1
3639,54.52,31.99,155.84,1
3640,54.53,168.3,228.58,1
3641,54.54,45.97,-109.23,1
3642,54.56,38.9,249.42,1
3643,54.57,-182.49,76.51,1
3644,54.59,236.56,8.98,1
3645,54.6,222.21,-201.67,1
3646,54.61,7.17,444.45,1
3647,54.63,-296.83,-239.96,1
3648,54.64,239.87,-265.85,1
3649,54.65,-19.35,-198.85,1
3650,54.67,153.7,81.87,1
3651,54.68,95.54,72.92,1
3652,54.69,-85.62,-1.0,1
3653,54.71,38.27,243.72,1
3654,54.72,-60.87,321.91,1
3655,54.73,-170.15,375.71,1
3656,54.75,-360.06,56.38,1
3657,54.76,-230.87,33.05,1
3658,54.77,69.46,193.27,1
3659,54.79,75.3,238.39,1
3660,54.8,24.33,108.89,1
3661,54.81,21.08,12.43,1
3662,54.83,-139.22,-250.47,1
3663,54.84,35.41,-52.96,1
3664,54.85,11.42,-25.77,1
3665,54.87,50.71,75.2,1
3666,54.88,-38.23,-55.54,1
3667,54.89,-52.28,-88.71,1
3668,54.9,30.48,93.63,1
3669,54.92,-38.21,-24.68,1
3670,54.93,-161.66,73.84,1
3671,54.95,34.62,-0.29,1
3672,54.96,-88.66,32.62,1
3673,54.97,-1.04,-26.46,1
3674,54.99,20.06,-90.27,1
3675,55.0,9.26,-134.97,1
3676,55.01,-55.37,-154.73,1
3677,55.03,-107.56,-143.47,1
3678,55.04,-96.36,-107.28,1
3679,55.05,-67.69,-83.63,1
3680,55.06,4.09,-95.68,1
3681,55.08,37.02,-56.42,1
3682,55.09,105.19,-1.37,1
3683,55.11,133.71,58.89,1
3684,55.12,182.52,64.19,1
3685,55.13,172.59,109.31,1
3686,55.15,162.3,120.1,1
3687,55.16,137.66,119.54,1
3688,55.17,136.29,105.71,1
3689,55.19,151.14,132.29,1
3690,55.2,108.99,110.42,1
3691,55.21,82.75,103.43,1
3692,55.22,73.7,89.05,1
3693,55.24,64.31,70.98,1
3694,55.25,51.44,21.49,1
3695,55.27,46.64,20.35,1
3696,55.28,29.34,3.9,1
3697,55.29,23.45,-16.19,1
3698,55.31,4.11,-13.89,1
3699,55.32,-17.2,-38.88,1
3700,55.33,-32.5,-40.1,1
3701,55.35,-22.91,-65.14,1
3702,55.36,-33.91,-74.14,1
3703,55.37,-67.11,-58.88,1
3704,55.38,-69.64,-60.79,1
3705,55.4,-48.14,-64.09,1
3706,55.41,-59.16,-87.56,1
3707,55.43,-69.5,-70.25,1
3708,55.44,-64.59,-67.97,1
3709,55.45,-55.35,-69.29,1
3710,55.47,-46.6,-57.67,1
3711,55.48,-60.11,-57.65,1
3712,55.49,-72.44,-66.17,1
3713,55.51,-57.13,-50.65,1
3714,55.52,-63.87,-52.53,1
3715,55.53,-63.05,-30.48,1
3716,55.54,-62.48,-38.37,1
3717,55.56,-44.01,-51.07,1
3718,55.57,-49.13,-28.15,1
3719,55.59,-36.95,-16.02,1
3720,55.6,-42.98,-17.53,1
3721,55.61,-46.38,-26.04,1
3722,55.63,-40.73,-2.23,1
3723,55.64,-42.34,10.23,1
3724,55.65,-6.19,-10.82,1
3725,55.67,-32.9,-10.22,1
3726,55.68,-20.51,-7.25,1
3727,55.69,-14.79,0.45,1
3728,55.71,-3.01,-7.41,1
3729,55.72,7.23,7.33,1
3730,55.73,-5.42,19.59,1
3731,55.75,-12.25,8.87,1
3732,55.76,3.62,13.37,1
3733,55.77,-11.78,15.84,1
3734,55.79,23.38,21.49,1
3735,55.8,6.76,6.2,1
3736,55.81,21.15,-0.84,1
3737,55.83,28.01,19.28,1
3738,55.84,28.33,28.85,1
3739,55.85,18.12,34.84,1
3740,55.87,31.75,17.79,1
3741,55.88,8.22,34.42,1
3742,55.89,29.79,35.26,1
3743,55.9,18.54,6.59,1
3744,55.92,30.82,21.21,1
3745,55.93,25.28,30.65,1
3746,55.95,16.93,45.65,1
3747,55.96,31.52,29.22,1
3748,55.97,29.85,14.0,1
3749,55.99,40.57,22.0,1
3750,56.0,25.91,23.94,1
3751,56.01,50.52,24.29,1
3752,56.03,20.66,50.12,1
3753,56.04,13.4,14.87,1
3754,56.05,8.95,26.22,1
3755,56.06,18.58,7.44,1
3756,56.08,-4.31,15.25,1
3757,56.09,6.97,5.8,1
3758,56.11,0.95,5.25,1
3759,56.12,49.64,21.59,1
3760,56.13,12.99,17.97,1
3761,56.15,-3.44,8.79,1
3762,56.16,16.09,-26.0,2
3763,56.17,20.68,0.72,2
3764,56.19,12.9,13.62,2
3765,56.2,22.14,-1.08,2
3766,56.21,-8.92,-0.7,2
3767,56.22,23.88,-14.04,2
3768,56.24,0.59,-13.65,2
3769,56.25,-24.5,-23.95,2
3770,56.27,5.78,-29.7,2
3771,56.28,11.92,-9.73,2
3772,56.29,-17.44,13.42,2
3773,56.31,4.12,-4.07,2
3774,56.32,57.85,17.24,2
3775,56.33,130.79,-21.84,2
3776,56.35,149.94,-16.26,2
3777,56.36,142.7,-16.17,2
3778,56.37,129.96,-9.58,2
3779,56.38,89.2,11.22,2
3780,56.4,52.22,8.15,2
3781,56.41,-23.62,-5.02,2
3782,56.43,-49.82,-22.28,2
3783,56.44,-100.35,3.94,2
3784,56.45,-122.69,0.27,2
3785,56.47,-169.18,-0.88,2
3786,56.48,-131.43,-3.7,2
3787,56.49,-167.25,-3.44,2
3788,56.51,-153.55,10.9,2
3789,56.52,-182.86,-6.85,2
3790,56.53,-134.51,2.07,2
3791,56.54,-152.49,12.28,2
3792,56.56,-147.91,-11.81,1
3793,56.57,-115.53,0.15,1
3794,56.59,-76.22,1.24,1
3795,56.6,-66.8,2.68,1
3796,56.61,-70.87,-8.49,1
3797,56.63,-62.71,-0.21,1
3798,56.64,-23.35,-13.9,1
3799,56.65,-18.87,-13.35,1
3800,56.67,-5.53,-9.8,1
3801,56.68,7.84,-13.08,1
3802,56.69,19.85,2.16,1
3803,56.71,39.83,-7.69,1
3804,56.72,42.16,4.4,1
3805,56.73,56.11,6.2,1
3806,56.75,70.35,6.01,1
3807,56.76,87.61,5.34,1
3808,56.77,84.79,9.24,1
3809,56.79,100.42,-6.59,1
3810,56.8,69.22,-20.55,1
3811,56.81,91.18,-0.34,1
3812,56.83,75.54,-20.12,1
3813,56.84,109.3,-4.64,1
3814,56.85,100.4,9.4,1
3815,56.87,98.37,-7.41,1
3816,56.88,74.32,-10.07,1
3817,56.89,79.2,-8.5,1
3818,56.9,67.59,-7.73,1
3819,56.92,53.61,-3.94,1
3820,56.93,72.27,-4.75,1
3821,56.95,48.41,-9.17,1
3822,56.96,45.03,-13.35,1
3823,56.97,23.23,2.99,1
3824,56.99,9.85,0.73,1
3825,57.0,29.83,16.59,1
3826,57.01,13.09,4.34,1
3827,57.03,4.01,10.89,1
3828,57.04,14.35,-7.41,1
3829,57.05,32.55,0.37,1
3830,57.06,0.67,10.08,1
3831,57.08,-8.45,-1.09,1
3832,57.09,1.17,0.65,1
3833,57.11,-24.39,6.17,1
3834,57.12,-6.1,9.88,1
3835,57.13,-21.47,4.47,1
3836,57.15,-10.53,-8.35,1
3837,57.16,-29.13,-6.08,1
3838,57.17,-41.88,9.48,1
3839,57.19,-31.3,20.49,1
3840,57.2,-21.38,-1.2,1
3841,57.21,-19.2,18.95,1
3842,57.22,-26.09,10.98,1
3843,57.24,-42.66,10.21,1
3844,57.25,-36.09,-3.02,1
3845,57.27,-51.15,-6.53,1
3846,57.28,-37.71,-2.12,1
3847,57.29,-38.18,6.02,1
3848,57.31,-20.33,-4.58,1
3849,57.32,-56.54,3.34,1
3850,57.33,-39.96,18.72,1
3851,57.35,-33.77,-3.11,1
3852,57.36,-3.33,-4.55,1
3853,57.37,-22.62,0.46,1
3854,57.38,-31.57,-16.92,1
3855,57.4,-29.41,5.13,1
3856,57.41,-15.4,19.93,1
3857,57.43,-16.07,4.84,1
3858,57.44,-11.82,3.43,1
3859,57.45,-5.63,-2.12,1
3860,57.47,-18.89,0.13,1
3861,57.48,-15.09,9.52,1
3862,57.49,-6.25,-5.33,1
3863,57.51,8.83,-15.73,1
3864,57.52,-12.73,16.66,1
3865,57.53,5.72,-1.03,1
3866,57.54,-9.32,-4.85,1
3867,57.56,7.69,-2.22,1
3868,57.57,0.86,1.62,1
3869,57.59,-5.32,-5.33,1
3870,57.6,-21.12,-5.32,1
3871,57.61,4.39,-3.68,1
3872,57.63,-8.88,2.0,1
3873,57.64,-14.27,-12.55,1
3874,57.65,7.0,-11.96,1
3875,57.67,18.62,-13.68,1
3876,57.68,-2.01,1.03,1
3877,57.69,7.59,6.4,1
3878,57.71,13.93,0.25,1
3879,57.72,19.4,-2.74,1
3880,57.73,7.86,6.78,1
3881,57.75,5.88,-7.38,1
3882,57.76,-11.07,-1.29,1
3883,57.77,18.36,-0.57,1
3884,57.79,10.73,-7.76,1
3885,57.8,17.12,0.89,1
3886,57.81,29.26,-14.41,1
3887,57.83,12.75,1.33,1
3888,57.84,10.83,2.12,1
3889,57.85,5.03,5.59,1
3890,57.87,17.63,8.12,1
3891,57.88,24.62,5.03,1
3892,57.89,19.24,6.52,1
3893,57.9,6.93,-9.49,1
3894,57.92,24.77,12.57,1
3895,57.93,7.15,3.56,1
3896,57.95,0.41,4.95,1
3897,57.96,-2.13,-3.98,1
3898,57.97,1.87,-14.22,1
3899,57.99,1.64,3.97,1
3900,58.0,6.53,-5.79,1
3901,58.01,3.01,2.78,1
3902,58.025000000000006,10.88,-8.07,1
3903,58.04,-0.15,8.67,1
3904,58.05,-1.41,3.43,1
3905,58.06,6.44,8.04,1
3906,58.08,-11.92,0.73,1
3907,58.09,-6.23,2.94,1
3908,58.11,-17.19,0.23,1
3909,58.12,-0.95,4.08,1
3910,58.13,-0.07,5.47,1
3911,58.15,3.27,-2.83,1
3912,58.16,13.18,0.49,0
3913,58.17,-26.55,-6.24,0
3914,58.19,18.33,15.63,0
3915,58.2,-4.55,4.54,0
3916,58.21,-20.95,0.2,0
3917,58.22,33.02,23.95,0
3918,58.24,-9.04,13.4,0
3919,58.25,-72.52,5.15,0
3920,58.27,-114.72,-0.27,0
3921,58.28,-147.56,-30.37,0
3922,58.29,-182.92,-25.72,0
3923,58.31,-193.72,-25.98,0
3924,58.32,-190.25,-31.47,0
3925,58.33,-138.23,-22.61,0
3926,58.35,-101.82,-36.54,0
3927,58.36,-42.1,-17.16,0
3928,58.37,12.54,2.43,0
3929,58.38,84.31,-1.72,0
3930,58.4,168.06,-8.25,0
3931,58.41,246.34,32.87,0
3932,58.43,305.34,18.74,0
3933,58.44,319.74,19.04,0
3934,58.45,293.32,8.33,0
3935,58.47,266.2,13.66,0
3936,58.48,226.93,24.17,0
3937,58.49,193.83,31.52,0
3938,58.51,150.21,21.27,0
3939,58.52,91.79,20.91,0
3940,58.53,71.21,6.21,0
3941,58.54,49.6,-7.89,0
3942,58.56,13.61,-0.35,1
3943,58.57,-16.85,-8.95,1
3944,58.59,-18.78,-3.38,1
3945,58.6,-35.26,-3.25,1
3946,58.61,-66.92,-5.47,1
3947,58.63,-75.84,-24.61,1
3948,58.64,-81.68,-12.62,1
3949,58.65,-102.72,2.23,1
3950,58.66,-111.33,-10.04,1
3951,58.68,-120.18,-14.16,1
3952,58.69,-108.21,-29.33,1
3953,58.71,-121.2,9.46,1
3954,58.72,-120.32,-10.27,1
3955,58.73,-124.42,2.88,1
3956,58.75,-100.17,2.53,1
3957,58.76,-103.29,7.47,1
3958,58.77,-96.43,7.91,1
3959,58.79,-74.39,1.8,1
3960,58.8,-76.61,23.65,1
3961,58.81,-66.92,1.53,1
3962,58.83,-72.95,17.11,1
3963,58.84,-68.43,5.62,1
3964,58.85,-54.55,8.07,1
3965,58.87,-58.82,-2.3,1
3966,58.88,-58.02,14.0,1
3967,58.89,-38.0,11.58,1
3968,58.9,-24.76,4.23,1
3969,58.92,-20.77,-1.7,1
3970,58.93,-33.99,5.27,1
3971,58.95,2.04,-17.14,1
3972,58.96,14.3,-5.52,1
3973,58.97,-0.45,-8.18,1
3974,58.99,-10.23,-5.21,1
3975,59.0,14.77,-1.33,1
3976,59.01,1.35,-11.61,1
3977,59.03,22.06,2.58,1
3978,59.04,19.11,3.89,1
3979,59.05,46.08,-18.68,1
3980,59.06,27.59,5.81,1
3981,59.08,26.35,-13.95,1
3982,59.09,17.58,-1.25,1
3983,59.11,53.35,3.08,1
3984,59.12,37.89,-10.27,1
3985,59.13,22.08,9.94,1
3986,59.15,30.77,-5.84,1
3987,59.16,51.77,-4.7,1
3988,59.17,41.63,-2.91,1
3989,59.19,31.87,1.03,1
3990,59.2,35.52,0.45,1
3991,59.21,48.74,-10.84,1
3992,59.22,39.96,0.7,1
3993,59.24,35.58,2.82,1
3994,59.25,34.36,0.71,1
3995,59.27,36.2,-13.75,1
3996,59.28,26.59,-16.55,1
3997,59.29,33.68,10.8,1
3998,59.3,27.22,10.18,1
3999,59.32,36.56,2.5,1
4000,59.33,23.37,6.13,1
4001,59.35,27.13,4.95,1
4002,59.36,44.59,17.32,1
4003,59.37,18.16,22.84,1
4004,59.38,18.19,19.73,1
4005,59.4,12.71,-7.14,1
4006,59.41,25.12,-2.69,1
4007,59.43,-2.87,-12.26,1
4008,59.44,-20.39,-4.14,1
4009,59.45,-0.99,-7.38,1
4010,59.47,12.09,-9.08,1
4011,59.48,2.33,-3.25,1
4012,59.49,-7.17,13.31,1
4013,59.51,-6.83,11.89,1
4014,59.52,9.03,-13.21,1
4015,59.53,-11.48,2.66,1
4016,59.54,-18.1,-5.28,1
4017,59.56,-23.02,7.59,1
4018,59.57,-5.8,-5.23,1
4019,59.59,-9.48,10.6,1
4020,59.6,-16.08,3.19,1
4021,59.61,-2.19,-2.83,1
4022,59.63,-5.42,-12.61,1
4023,59.64,-7.62,-15.17,1
4024,59.65,-7.91,6.78,1
4025,59.67,-10.9,3.93,1
4026,59.68,3.97,-2.05,1
4027,59.69,-17.13,3.64,1
4028,59.71,-6.2,-4.91,1
4029,59.72,2.5,-0.44,1
4030,59.73,-10.26,-8.87,1
4031,59.75,-19.31,-6.93,1
4032,59.76,-15.61,8.41,1
4033,59.77,-4.22,2.79,1
4034,59.79,-20.46,-1.84,1
4035,59.8,-16.19,-11.69,1
4036,59.81,-12.24,3.33,1
4037,59.83,-2.44,-11.17,1
4038,59.84,-16.96,-11.04,1
4039,59.85,-6.05,-9.04,1
4040,59.87,-25.94,15.42,1
4041,59.88,4.42,0.87,1
4042,59.89,-10.5,11.9,1
4043,59.9,-14.61,17.3,1
4044,59.92,-22.42,0.18,1
4045,59.93,-3.45,10.44,1
4046,59.94,0.09,-1.16,1
4047,59.96,-13.97,0.04,1
4048,59.97,-1.84,-3.3,1
4049,59.985,9.46,-2.67,1
4050,60.0,7.67,9.34,1
4051,60.01,-10.84,13.26,1
4052,60.03,-2.76,8.58,1
4053,60.04,5.75,-7.28,1
4054,60.05,-15.21,14.64,1
4055,60.06,-6.65,2.3,1
4056,60.08,-13.47,-1.54,1
4057,60.09,4.79,-15.4,1
4058,60.11,7.76,18.99,1
4059,60.12,11.14,-10.3,1
4060,60.13,10.48,0.22,1
4061,60.15,23.76,-6.58,1
4062,60.16,7.11,0.27,0
4063,60.17,10.41,2.36,0
4064,60.19,17.29,-1.77,0
4065,60.2,-4.38,-29.58,0
4066,60.21,3.0,-34.55,0
4067,60.22,-10.4,-66.91,0
4068,60.24,-74.14,84.01,0
4069,60.25,-121.84,42.0,0
4070,60.27,-196.53,-16.62,0
4071,60.28,-179.73,-22.76,0
4072,60.29,-161.99,-17.15,0
4073,60.31,-137.05,14.66,0
4074,60.32,-67.03,4.61,0
4075,60.33,2.14,4.75,0
4076,60.35,64.45,-3.63,0
4077,60.36,93.15,-3.92,0
4078,60.37,137.1,13.41,0
4079,60.38,153.75,-5.42,0
4080,60.4,183.58,4.86,0
4081,60.41,192.64,-14.52,0
4082,60.43,184.98,-15.47,0
4083,60.44,188.05,-5.35,0
4084,60.45,168.56,5.83,0
4085,60.47,163.84,4.37,0
4086,60.48,139.51,12.88,0
4087,60.49,122.73,12.92,0
4088,60.51,94.69,-4.0,0
4089,60.52,64.54,13.9,0
4090,60.53,52.89,4.01,0
4091,60.54,50.75,15.23,0
4092,60.56,15.15,4.22,1
4093,60.57,3.1,25.79,1
4094,60.58,-12.14,11.07,1
4095,60.6,-5.47,2.7,1
4096,60.61,-34.62,12.76,1
4097,60.62,-50.95,-0.43,1
4098,60.64,-61.0,5.27,1
4099,60.65,-59.58,-2.39,1
4100,60.67,-76.26,1.81,1
4101,60.68,-85.62,-9.78,1
4102,60.69,-90.57,-5.54,1
4103,60.71,-73.57,2.59,1
4104,60.72,-87.97,0.3,1
4105,60.73,-98.09,-6.85,1
4106,60.75,-106.22,-14.43,1
4107,60.76,-102.34,-5.77,1
4108,60.77,-93.91,-8.31,1
4109,60.79,-112.84,-12.36,1
4110,60.8,-94.29,-8.98,1
4111,60.81,-78.36,-12.44,1
4112,60.83,-89.78,-15.87,1
4113,60.84,-87.43,-6.89,1
4114,60.85,-61.41,-16.86,1
4115,60.87,-61.94,2.66,1
4116,60.88,-48.95,-6.75,1
4117,60.89,-42.58,-4.91,1
4118,60.9,-24.68,-0.58,1
4119,60.92,-25.03,-3.31,1
4120,60.93,-20.42,2.81,1
4121,60.95,-14.9,-11.04,1
4122,60.96,1.91,-4.92,1
4123,60.97,-4.53,0.32,1
4124,60.99,14.51,6.61,1
4125,61.0,18.1,1.88,1
4126,61.01,34.23,-1.61,1
4127,61.03,27.15,9.83,1
4128,61.04,14.0,14.14,1
4129,61.05,13.28,-6.47,1
4130,61.06,38.9,1.79,1
4131,61.08,35.51,-5.47,1
4132,61.09,34.72,3.31,1
4133,61.11,36.21,-2.81,1
4134,61.12,46.78,1.22,1
4135,61.13,38.25,0.9,1
4136,61.15,32.22,19.14,1
4137,61.16,20.45,7.22,1
4138,61.17,50.92,8.48,1
4139,61.19,35.2,-5.39,1
4140,61.2,28.17,-4.56,1
4141,61.21,54.35,7.16,1
4142,61.22,37.99,9.42,1
4143,61.24,29.07,-9.54,1
4144,61.25,34.8,-7.77,1
4145,61.26,39.64,-0.82,1
4146,61.28,28.45,9.32,1
4147,61.29,25.66,3.13,1
4148,61.31,18.68,3.34,1
4149,61.32,25.39,8.28,1
4150,61.33,21.46,-2.16,1
4151,61.35,26.59,13.73,1
4152,61.36,8.29,13.49,1
4153,61.37,3.96,-2.82,1
4154,61.38,-1.45,-15.92,1
4155,61.4,-0.05,-17.05,1
4156,61.41,25.24,7.45,1
4157,61.43,22.31,-20.67,1
4158,61.44,18.48,-8.7,1
4159,61.45,-6.07,15.24,1
4160,61.47,-16.88,1.86,1
4161,61.48,14.12,4.96,1
4162,61.49,1.8,13.51,1
4163,61.51,0.13,11.92,1
4164,61.52,-2.27,-5.63,1
4165,61.53,14.52,7.05,1
4166,61.54,-9.03,0.21,1
4167,61.56,-23.05,3.97,1
4168,61.57,-0.47,-5.85,1
4169,61.59,-15.67,-12.93,1
4170,61.6,-10.08,-2.33,1
4171,61.61,-10.3,6.39,1
4172,61.63,-6.15,3.15,1
4173,61.64,-19.61,-4.27,1
4174,61.65,-20.37,9.47,1
4175,61.67,-13.78,-3.9,1
4176,61.68,20.24,-10.13,1
4177,61.69,8.96,-0.9,1
4178,61.71,-19.05,10.53,1
4179,61.72,-30.61,3.55,1
4180,61.73,-7.23,-2.46,1
4181,61.75,-32.45,2.92,1
4182,61.76,-31.3,11.34,1
4183,61.77,-14.31,-3.45,1
4184,61.79,6.38,-12.33,1
4185,61.8,-7.64,-11.26,1
4186,61.81,-8.23,-13.12,1
4187,61.83,-12.65,-5.41,1
4188,61.84,-6.31,-3.51,1
4189,61.85,-17.78,-2.4,1
4190,61.86,-23.58,0.21,1
4191,61.88,-13.67,9.83,1
4192,61.89,16.71,-4.95,1
4193,61.9,10.92,-4.48,1
4194,61.92,1.83,8.08,1
4195,61.93,5.25,17.6,1
4196,61.95,-14.35,17.55,1
4197,61.96,-3.56,-7.45,1
4198,61.97,4.94,3.35,1
4199,61.99,16.66,1.31,1
4200,62.0,9.76,-7.9,1
4201,62.01,11.35,-15.03,1
4202,62.03,-14.95,-1.87,1
4203,62.04,2.88,-4.63,1
4204,62.05,-4.98,1.76,1
4205,62.06,-7.29,0.21,1
4206,62.08,-39.44,8.75,1
4207,62.09,-22.75,-4.44,1
4208,62.11,16.61,-0.19,1
4209,62.12,-15.18,0.05,1
4210,62.13,-0.86,6.45,1
4211,62.15,14.66,3.35,1
4212,62.16,-3.29,1.09,2
4213,62.17,9.56,-8.23,2
4214,62.19,10.43,2.05,2
4215,62.2,24.02,-13.61,2
4216,62.21,8.69,-5.65,2
4217,62.22,1.4,2.01,2
4218,62.24,-6.74,0.67,2
4219,62.25,21.25,-10.43,2
4220,62.27,54.61,7.37,2
4221,62.28,149.23,16.93,2
4222,62.29,165.22,17.52,2
4223,62.31,210.91,11.95,2
4224,62.32,183.78,12.87,2
4225,62.33,153.19,11.82,2
4226,62.35,147.55,6.12,2
4227,62.36,92.49,-12.68,2
4228,62.37,51.43,-6.58,2
4229,62.38,-3.65,-9.07,2
4230,62.4,-60.42,-23.98,2
4231,62.41,-123.11,1.56,2
4232,62.43,-221.7,-11.16,2
4233,62.44,-291.03,-9.53,2
4234,62.45,-286.7,1.44,2
4235,62.47,-290.92,-6.63,2
4236,62.48,-297.67,-7.21,2
4237,62.49,-254.63,-8.83,2
4238,62.5,-223.84,-12.25,2
4239,62.52,-206.7,-12.65,2
4240,62.53,-161.75,2.52,2
4241,62.54,-136.17,-14.45,2
4242,62.56,-67.26,-10.96,1
4243,62.57,-54.71,-1.03,1
4244,62.585,-13.87,-6.61,1
4245,62.6,26.07,1.77,1
4246,62.61,59.71,10.74,1
4247,62.63,58.21,11.86,1
4248,62.64,50.2,0.95,1
4249,62.65,63.39,-4.83,1
4250,62.67,103.98,-14.62,1
4251,62.68,109.22,8.83,1
4252,62.69,113.49,12.19,1
4253,62.71,135.74,1.73,1
4254,62.72,124.99,16.21,1
4255,62.73,117.99,6.96,1
4256,62.75,116.75,22.09,1
4257,62.76,135.39,14.23,1
4258,62.77,115.01,6.11,1
4259,62.79,112.44,16.62,1
4260,62.8,106.68,1.17,1
4261,62.81,120.64,8.05,1
4262,62.83,98.84,-11.74,1
4263,62.84,103.77,-1.21,1
4264,62.85,76.83,-0.94,1
4265,62.87,83.36,9.66,1
4266,62.88,64.34,-7.51,1
4267,62.89,40.18,1.25,1
4268,62.9,36.85,3.72,1
4269,62.92,44.72,9.11,1
4270,62.93,40.99,7.92,1
4271,62.95,11.45,6.35,1
4272,62.96,7.0,2.9,1
4273,62.97,16.93,-0.98,1
4274,62.99,9.88,-5.44,1
4275,63.0,-17.92,6.8,1
4276,63.01,-24.27,-0.18,1
4277,63.03,5.32,22.94,1
4278,63.04,-30.48,14.46,1
4279,63.05,-15.42,-11.75,1
4280,63.06,-8.09,2.22,1
4281,63.08,-13.79,-5.98,1
4282,63.09,-47.09,0.62,1
4283,63.11,-48.1,6.57,1
4284,63.12,-52.24,-16.26,1
4285,63.13,-57.98,-11.12,1
4286,63.14,-56.78,-5.74,1
4287,63.16,-48.76,-21.19,1
4288,63.17,-23.75,-7.32,1
4289,63.18,-33.4,-4.32,1
4290,63.2,-45.38,-1.45,1
4291,63.21,-54.45,3.86,1
4292,63.22,-33.19,-0.14,1
4293,63.24,-48.51,-5.93,1
4294,63.25,-52.79,-18.96,1
4295,63.27,-50.73,-19.16,1
4296,63.28,15.6,-4.21,1
4297,63.29,-20.11,-4.82,1
4298,63.31,-30.17,-14.06,1
4299,63.32,-40.54,1.6,1
4300,63.33,-22.1,2.0,1
4301,63.35,-35.31,3.03,1
4302,63.36,-37.99,12.54,1
4303,63.37,-42.56,-7.55,1
4304,63.38,-28.7,-2.6,1
4305,63.4,-19.05,9.36,1
4306,63.41,-30.43,3.92,1
4307,63.43,-15.03,-4.62,1
4308,63.44,-25.74,4.46,1
4309,63.45,-17.17,4.44,1
4310,63.47,-20.1,-4.52,1
4311,63.48,2.73,15.2,1
4312,63.49,12.53,3.88,1
4313,63.51,5.67,-10.46,1
4314,63.52,-4.22,-6.52,1
4315,63.53,9.16,-4.31,1
4316,63.54,4.97,-1.44,1
4317,63.56,-15.76,11.95,1
4318,63.57,2.59,0.22,1
4319,63.59,-3.36,-17.15,1
4320,63.6,13.31,-5.73,1
4321,63.61,25.56,1.95,1
4322,63.63,28.49,-1.85,1
4323,63.64,46.2,5.62,1
4324,63.65,20.9,7.52,1
4325,63.67,18.2,12.8,1
4326,63.68,22.4,15.94,1
4327,63.69,-7.56,-1.08,1
4328,63.71,7.75,3.23,1
4329,63.72,-2.08,3.37,1
4330,63.73,13.49,5.82,1
4331,63.75,19.13,-7.12,1
4332,63.76,18.43,10.19,1
4333,63.77,10.18,-7.85,1
4334,63.78,11.74,-12.22,1
4335,63.8,17.36,4.58,1
4336,63.81,2.8,18.12,1
4337,63.82,12.78,4.84,1
4338,63.84,22.67,-9.95,1
4339,63.85,9.54,-1.97,1
4340,63.86,-3.0,12.9,1
4341,63.88,-17.43,7.61,1
4342,63.89,30.02,-0.85,1
4343,63.9,12.27,1.99,1
4344,63.92,3.0,-19.78,1
4345,63.93,17.67,-21.16,1
4346,63.95,28.78,-17.92,1
4347,63.96,11.18,11.93,1
4348,63.97,1.96,22.54,1
4349,63.99,4.18,22.47,1
4350,64.0,23.04,-6.03,1
4351,64.01,-0.07,-10.66,1
4352,64.02,-2.04,-2.76,1
4353,64.04,2.66,-4.11,1
4354,64.05,9.44,-3.46,1
4355,64.06,-16.75,7.09,1
4356,64.08,-3.58,1.36,1
4357,64.09,-5.41,-3.71,1
4358,64.11,4.77,6.67,1
4359,64.12,4.22,2.16,1
4360,64.13,-12.17,-6.86,1
4361,64.14,-22.4,12.69,1
4362,64.16,-6.75,34.01,1
4363,64.17,1.68,71.62,1
4364,64.18,-18.35,166.04,1
4365,64.2,3.9,246.61,1
4366,64.21,17.08,214.06,1
4367,64.22,-25.88,98.64,1
4368,64.24,-47.77,59.14,1
4369,64.25,-161.16,-40.97,1
4370,64.26,-270.39,-23.4,1
4371,64.28,92.15,167.19,1
4372,64.29,97.46,16.41,1
4373,64.3,255.99,0.47,1
4374,64.32,23.09,-232.26,1
4375,64.33,327.8,-291.31,1
4376,64.34,-180.07,-142.23,1
4377,64.36,392.38,-301.59,1
4378,64.37,-66.47,-476.32,1
4379,64.38,-12.97,-466.65,1
4380,64.4,-30.43,-85.37,1
4381,64.41,-187.73,-54.87,1
4382,64.42,-163.5,-24.56,1
4383,64.44,-241.39,-129.7,1
4384,64.45,-14.99,-220.16,1
4385,64.46,-150.07,303.4,1
4386,64.48,23.6,161.32,1
4387,64.49,73.51,359.39,1
4388,64.5,-1.14,18.48,1
4389,64.52,24.32,28.13,1
4390,64.53,-183.6,125.15,1
4391,64.54,443.4,-165.4,1
4392,64.56,27.45,-9.21,1
4393,64.57,-174.04,-156.81,1
4394,64.58,323.39,28.96,1
4395,64.6,-130.22,277.86,1
4396,64.61,-129.4,31.26,1
4397,64.62,8.49,124.11,1
4398,64.64,-74.17,198.04,1
4399,64.65,134.49,46.08,1
4400,64.66,-59.67,-405.35,1
4401,64.68,95.45,-107.83,1
4402,64.69,77.21,-64.86,1
4403,64.7,75.99,3.56,1
4404,64.72,-44.21,-105.48,1
4405,64.73,66.13,98.66,1
4406,64.75,27.17,132.7,1
4407,64.76,-103.76,199.25,1
4408,64.77,-294.59,66.75,1
4409,64.79,-21.56,39.41,1
4410,64.8,67.4,-41.61,1
4411,64.81,133.17,-68.74,1
4412,64.82,-89.25,11.75,1
4413,64.84,-31.2,246.66,1
4414,64.85,-50.51,359.63,1
4415,64.86,-0.92,199.67,1
4416,64.88,-226.61,-116.96,1
4417,64.89,24.02,-177.03,1
4418,64.9,18.95,54.79,1
4419,64.92,193.17,33.74,1
4420,64.93,-235.1,18.07,1
4421,64.94,-152.68,-76.91,1
4422,64.96,-59.67,-136.57,1
4423,64.97,-37.48,17.14,1
4424,64.98,40.24,0.24,1
4425,65.0,39.74,-32.49,1
4426,65.01,112.7,-51.99,1
4427,65.02,111.13,-67.44,1
4428,65.04,93.9,-58.66,1
4429,65.05,67.35,-51.47,1
4430,65.06,-4.98,-47.3,1
4431,65.08,-43.54,-11.65,1
4432,65.09,-60.88,45.9,1
4433,65.1,-29.69,69.11,1
4434,65.12,-32.1,134.18,1
4435,65.13,18.82,140.77,1
4436,65.14,13.31,168.86,1
4437,65.16,14.85,163.75,1
4438,65.17,32.09,144.39,1
4439,65.18,60.84,140.82,1
4440,65.2,51.02,104.57,1
4441,65.21,76.96,89.0,1
4442,65.22,69.96,79.1,1
4443,65.24,100.72,23.36,1
4444,65.25,57.85,21.15,1
4445,65.26,70.7,-12.91,1
4446,65.28,45.74,-27.88,1
4447,65.29,52.49,-38.05,1
4448,65.3,41.65,-75.4,1
4449,65.32,14.29,-89.08,1
4450,65.33,17.68,-83.4,1
4451,65.34,17.89,-91.55,1
4452,65.36,10.46,-93.16,1
4453,65.37,-0.92,-80.62,1
4454,65.38,-1.43,-86.57,1
4455,65.4,-16.93,-77.32,1
4456,65.41,-16.72,-78.08,1
4457,65.43,-29.36,-89.58,1
4458,65.44,-14.41,-79.99,1
4459,65.45,-47.74,-84.97,1
4460,65.46,-32.99,-68.64,1
4461,65.48,-37.07,-64.32,1
4462,65.49,-26.54,-72.45,1
4463,65.5,-42.78,-56.42,1
4464,65.52,-45.63,-49.36,1
4465,65.53,-46.27,-48.56,1
4466,65.54,-20.23,-55.57,1
4467,65.56,-23.58,-39.9,1
4468,65.57,-38.38,-50.55,1
4469,65.58,-42.03,-44.56,1
4470,65.6,-26.35,-28.33,1
4471,65.61,-20.08,-35.0,1
4472,65.62,-29.84,-24.61,1
4473,65.64,-34.41,-11.5,1
4474,65.65,-24.02,-10.06,1
4475,65.66,-24.55,-24.76,1
4476,65.68,-16.83,3.46,1
4477,65.69,-5.11,23.82,1
4478,65.7,-12.43,12.91,1
4479,65.72,-10.12,-16.11,1
4480,65.73,-19.05,9.77,1
4481,65.74,-1.67,18.45,1
4482,65.76,-13.64,16.87,1
4483,65.77,-6.88,11.8,1
4484,65.78,-19.14,32.46,1
4485,65.8,-1.58,43.59,1
4486,65.81,10.0,19.84,1
4487,65.82,1.79,9.36,1
4488,65.84,-11.53,27.95,1
4489,65.85,36.06,30.9,1
4490,65.86,-0.61,29.16,1
4491,65.88,-2.3,14.31,1
4492,65.89,-5.96,35.24,1
4493,65.9,26.9,15.57,1
4494,65.92,-0.74,35.99,1
4495,65.93,15.91,15.29,1
4496,65.94,9.9,47.3,1
4497,65.96,20.28,40.41,1
4498,65.97,-1.49,35.13,1
4499,65.98,2.28,25.08,1
4500,66.0,7.83,26.19,1
4501,66.01,38.94,19.0,1
4502,66.02,20.13,26.94,1
4503,66.04,16.65,27.72,1
4504,66.05,19.07,32.86,1
4505,66.06,16.81,48.45,1
4506,66.08,7.19,0.09,1
4507,66.09,-16.64,2.79,1
4508,66.11,-2.81,29.23,1
4509,66.12,8.57,7.33,1
4510,66.13,4.63,17.11,1
4511,66.14,2.57,29.11,1
4512,66.16,40.16,15.01,2
4513,66.17,25.05,2.91,2
4514,66.18,8.26,-9.71,2
4515,66.2,11.36,5.22,2
4516,66.21,6.85,-10.5,2
4517,66.22,8.56,4.78,2
4518,66.24,32.16,15.08,2
4519,66.25,7.77,11.03,2
4520,66.26,21.65,24.77,2
4521,66.28,118.01,-32.11,2
4522,66.29,171.12,-16.16,2
4523,66.3,190.51,-15.43,2
4524,66.32,176.21,-34.84,2
4525,66.33,126.5,-34.93,2
4526,66.34,43.13,-19.43,2
4527,66.36,-11.66,-14.75,2
4528,66.37,-43.77,-21.54,2
4529,66.38,-85.97,-3.36,2
4530,66.4,-134.87,11.3,2
4531,66.41,-162.39,13.1,2
4532,66.42,-145.25,-10.96,2
4533,66.44,-174.33,-21.1,2
4534,66.45,-143.07,-13.22,2
4535,66.46,-131.92,-6.66,2
4536,66.48,-148.63,-1.56,2
4537,66.49,-152.98,7.41,2
4538,66.5,-125.76,10.24,2
4539,66.52,-110.64,15.12,2
4540,66.53,-91.56,-6.61,2
4541,66.54,-88.19,1.08,2
4542,66.56,-74.16,6.61,1
4543,66.57,-48.36,-0.44,1
4544,66.58,-33.32,-7.25,1
4545,66.6,-37.4,-18.14,1
4546,66.61,-18.88,3.23,1
4547,66.62,11.66,-6.66,1
4548,66.64,10.29,-16.62,1
4549,66.65,35.63,-2.47,1
4550,66.66,50.21,-28.97,1
4551,66.68,83.56,-25.4,1
4552,66.69,78.18,-11.73,1
4553,66.7,82.57,-4.17,1
4554,66.72,78.77,-8.5,1
4555,66.73,98.67,5.25,1
4556,66.75,89.33,14.45,1
4557,66.76,70.91,15.28,1
4558,66.77,91.95,2.65,1
4559,66.79,85.65,-2.1,1
4560,66.8,94.09,3.6,1
4561,66.81,65.02,-3.4,1
4562,66.82,78.67,-3.27,1
4563,66.84,71.52,-10.01,1
4564,66.85,55.46,15.75,1
4565,66.86,75.2,15.87,1
4566,66.88,65.23,-6.37,1
4567,66.89,54.92,-12.92,1
4568,66.9,31.22,3.63,1
4569,66.92,37.32,-1.62,1
4570,66.93,33.97,-7.62,1
4571,66.94,12.38,8.56,1
4572,66.96,1.43,-4.96,1
4573,66.97,16.95,-15.23,1
4574,66.98,12.66,-14.31,1
4575,67.0,0.29,-21.49,1
4576,67.01,1.14,-1.41,1
4577,67.02,-11.65,4.81,1
4578,67.04,-11.88,17.49,1
4579,67.05,-19.81,11.52,1
4580,67.06,-41.28,-16.61,1
4581,67.08,-32.3,-8.48,1
4582,67.09,-15.98,4.75,1
4583,67.1,-19.94,11.54,1
4584,67.12,-30.63,7.43,1
4585,67.13,-38.1,8.71,1
4586,67.14,-19.17,-11.69,1
4587,67.16,-35.23,21.39,1
4588,67.17,-24.45,28.01,1
4589,67.18,-20.45,9.78,1
4590,67.2,-29.89,-10.06,1
4591,67.21,-32.44,-8.14,1
4592,67.22,-44.83,-8.9,1
4593,67.24,-25.29,1.07,1
4594,67.25,-21.91,11.08,1
4595,67.26,-38.93,9.59,1
4596,67.28,-24.9,7.0,1
4597,67.29,-34.63,5.49,1
4598,67.3,-25.8,10.88,1
4599,67.32,-26.1,-0.66,1
4600,67.33,-25.87,-7.33,1
4601,67.34,3.01,-13.09,1
4602,67.36,-14.97,11.24,1
4603,67.37,-20.02,3.09,1
4604,67.38,-27.78,6.82,1
4605,67.4,-3.63,-3.62,1
4606,67.41,-13.78,6.97,1
4607,67.43,-18.08,13.06,1
4608,67.44,-18.28,9.48,1
4609,67.45,0.21,-11.17,1
4610,67.46,1.86,-10.73,1
4611,67.48,-6.67,-22.4,1
4612,67.49,-2.0,20.05,1
4613,67.5,1.29,-2.32,1
4614,67.52,-6.54,8.39,1
4615,67.53,-0.74,-4.98,1
4616,67.54,1.98,-1.06,1
4617,67.56,27.05,-3.14,1
4618,67.57,11.09,11.78,1
4619,67.58,9.01,17.66,1
4620,67.6,-1.26,5.22,1
4621,67.61,15.21,-2.84,1
4622,67.62,6.83,-9.49,1
4623,67.64,1.12,-7.33,1
4624,67.65,22.58,-5.78,1
4625,67.66,7.35,-8.23,1
4626,67.68,3.98,-2.67,1
4627,67.69,-9.29,-25.81,1
4628,67.7,15.52,-25.93,1
4629,67.72,9.25,-10.3,1
4630,67.73,2.27,4.48,1
4631,67.74,4.93,4.54,1
4632,67.76,11.1,-0.24,1
4633,67.77,2.75,8.65,1
4634,67.78,15.55,8.85,1
4635,67.8,-5.42,12.88,1
4636,67.81,11.91,3.23,1
4637,67.82,6.23,10.16,1
4638,67.84,-3.68,2.57,1
4639,67.85,10.22,-9.67,1
4640,67.86,24.4,-1.16,1
4641,67.88,14.05,-4.22,1
4642,67.89,-10.01,-6.88,1
4643,67.9,-4.01,-7.73,1
4644,67.92,13.87,3.23,1
4645,67.93,11.26,-9.78,1
4646,67.94,15.75,-2.07,1
4647,67.96,26.0,-3.33,1
4648,67.97,6.24,-2.92,1
4649,67.98,-12.9,-2.05,1
4650,68.0,-7.18,0.77,1
4651,68.01,3.59,-6.06,1
4652,68.02,2.79,18.41,1
4653,68.04,-10.31,7.87,1
4654,68.05,-2.94,8.83,1
4655,68.06,20.6,-6.95,1
4656,68.08,0.24,-5.0,1
4657,68.09,-35.34,8.39,1
4658,68.11,-19.5,5.01,1
4659,68.12,11.42,-8.96,1
4660,68.13,-5.44,-12.08,1
4661,68.14,-9.08,0.14,1
4662,68.16,16.64,-0.07,0
4663,68.17,-6.7,12.31,0
4664,68.18,-11.83,7.3,0
4665,68.2,13.29,10.86,0
4666,68.21,-4.61,4.52,0
4667,68.22,19.28,-21.95,0
4668,68.24,-0.84,1.54,0
4669,68.25,-14.94,4.06,0
4670,68.26,-0.27,15.6,0
4671,68.28,20.97,21.36,0
4672,68.29,-79.76,26.46,0
4673,68.3,-142.57,29.55,0
4674,68.32,-168.89,-16.77,0
4675,68.33,-206.69,-8.47,0
4676,68.34,-207.93,-10.51,0
4677,68.36,-155.76,-25.01,0
4678,68.37,-89.26,-29.94,0
4679,68.38,-46.11,-19.3,0
4680,68.4,-8.6,-23.78,0
4681,68.41,45.38,-22.53,0
4682,68.42,142.12,-6.39,0
4683,68.44,207.65,-3.54,0
4684,68.45,263.78,2.49,0
4685,68.46,267.57,3.76,0
4686,68.48,284.78,-3.02,0
4687,68.49,254.89,21.23,0
4688,68.5,233.95,27.02,0
4689,68.52,193.46,9.05,0
4690,68.53,157.62,23.83,0
4691,68.54,115.49,31.36,0
4692,68.56,90.21,0.72,1
4693,68.57,49.67,-20.99,1
4694,68.58,12.06,5.86,1
4695,68.6,-41.06,7.85,1
4696,68.61,-48.24,-10.27,1
4697,68.62,-44.4,-3.59,1
4698,68.64,-36.48,21.96,1
4699,68.65,-48.95,-16.46,1
4700,68.66,-55.96,-8.96,1
4701,68.68,-78.92,7.5,1
4702,68.69,-73.15,15.78,1
4703,68.7,-90.59,-19.68,1
4704,68.72,-96.76,-17.03,1
4705,68.73,-90.23,-4.1,1
4706,68.75,-95.95,-2.1,1
4707,68.76,-99.67,-14.3,1
4708,68.77,-106.59,-9.55,1
4709,68.79,-92.37,-7.42,1
4710,68.8,-105.09,13.55,1
4711,68.81,-79.77,10.6,1
4712,68.82,-105.59,-2.52,1
4713,68.84,-60.47,13.83,1
4714,68.85,-65.25,-15.09,1
4715,68.86,-66.07,15.4,1
4716,68.88,-62.9,-4.34,1
4717,68.89,-54.38,14.61,1
4718,68.9,-53.18,6.0,1
4719,68.92,-43.82,3.39,1
4720,68.93,-36.69,-9.18,1
4721,68.94,-21.18,1.2,1
4722,68.96,-13.37,7.74,1
4723,68.97,-7.84,-8.21,1
4724,68.98,-21.96,1.46,1
4725,69.0,17.65,7.61,1
4726,69.01,2.64,-11.31,1
4727,69.02,-7.2,-1.0,1
4728,69.04,-8.71,-0.87,1
4729,69.05,14.72,2.67,1
4730,69.06,15.07,-12.62,1
4731,69.08,14.02,-6.63,1
4732,69.09,40.31,-15.49,1
4733,69.11,40.59,-7.78,1
4734,69.12,16.96,-3.42,1
4735,69.13,28.26,7.15,1
4736,69.14,43.35,7.79,1
4737,69.16,39.63,10.67,1
4738,69.17,45.42,-0.28,1
4739,69.18,32.85,-10.34,1
4740,69.2,53.52,5.2,1
4741,69.21,32.84,4.26,1
4742,69.22,23.05,0.63,1
4743,69.24,28.99,-2.4,1
4744,69.25,36.86,-3.5,1
4745,69.26,35.67,-0.16,1
4746,69.28,35.6,-2.18,1
4747,69.29,28.32,-8.29,1
4748,69.3,47.53,14.03,1
4749,69.32,19.58,-1.96,1
4750,69.33,24.29,4.22,1
4751,69.34,10.54,-3.72,1
4752,69.36,30.02,3.0,1
4753,69.37,16.33,-6.94,1
4754,69.38,15.42,8.61,1
4755,69.4,22.47,-2.37,1
4756,69.41,24.36,13.78,1
4757,69.43,15.27,-4.01,1
4758,69.44,14.25,-10.42,1
4759,69.45,20.47,2.92,1
4760,69.46,12.48,6.99,1
4761,69.48,5.77,4.22,1
4762,69.49,-12.03,-2.28,1
4763,69.5,4.46,7.2,1
4764,69.52,7.76,3.95,1
4765,69.53,-15.79,13.22,1
4766,69.54,-2.41,-1.22,1
4767,69.56,-7.27,6.72,1
4768,69.57,-6.67,9.69,1
4769,69.58,-14.29,15.66,1
4770,69.6,-5.35,-0.24,1
4771,69.61,13.25,-17.86,1
4772,69.62,-14.78,-5.05,1
4773,69.64,-8.87,-11.84,1
4774,69.65,-23.71,-1.56,1
4775,69.66,8.99,-4.1,1
4776,69.68,-4.52,-4.36,1
4777,69.69,-8.64,3.66,1
4778,69.7,-18.66,-4.08,1
4779,69.72,10.2,2.6,1
4780,69.73,-12.42,5.32,1
4781,69.75,-11.5,0.67,1
4782,69.76,-15.11,-2.32,1
4783,69.77,-8.64,-14.09,1
4784,69.79,-9.36,0.33,1
4785,69.8,-6.25,-9.31,1
4786,69.81,-2.2,8.54,1
4787,69.82,-21.63,16.43,1
4788,69.84,-17.63,-5.01,1
4789,69.85,-10.76,-3.94,1
4790,69.86,-9.06,1.8,1
4791,69.88,-20.22,8.33,1
4792,69.89,-19.43,4.68,1
4793,69.9,-12.2,4.55,1
4794,69.92,15.85,-3.5,1
4795,69.93,3.05,-6.61,1
4796,69.94,-19.84,-15.37,1
4797,69.96,-11.17,-3.54,1
4798,69.97,-0.03,2.86,1
4799,69.98,-8.41,13.41,1
4800,70.0,-7.85,-3.44,1
4801,70.01,2.01,-11.53,1
4802,70.02,13.35,-9.98,1
4803,70.04,-8.93,7.94,1
4804,70.05,-10.36,-6.27,1
4805,70.06,-7.01,-1.69,1
4806,70.08,1.55,-3.61,1
4807,70.09,-31.34,2.83,1
4808,70.11,-13.95,-4.4,1
4809,70.12,2.38,0.25,1
4810,70.13,0.67,4.75,1
4811,70.14,15.08,-5.2,1
4812,70.16,1.81,-9.94,0
4813,70.17,8.14,10.88,0
4814,70.18,20.77,5.13,0
4815,70.2,1.12,-11.22,0
4816,70.21,5.28,0.58,0
4817,70.22,18.74,-12.49,0
4818,70.24,-8.66,-31.87,0
4819,70.25,-90.09,-8.82,0
4820,70.26,-145.74,-22.54,0
4821,70.28,-220.53,-22.61,0
4822,70.29,-174.61,-8.14,0
4823,70.3,-158.18,21.12,0
4824,70.32,-108.87,0.5,0
4825,70.33,-35.28,14.32,0
4826,70.34,17.87,10.17,0
