,Timestamp,Data1,Data2,Label
0,6.0,1.65,-4.94,1
1,6.01,2.25,-10.28,1
2,6.03,-0.61,-3.49,1
3,6.04,-6.65,4.56,1
4,6.05,1.28,5.85,1
5,6.07,14.99,5.57,1
6,6.08,8.57,10.41,1
7,6.09,-8.2,14.96,1
8,6.11,-9.12,12.52,1
9,6.12,2.43,7.8,1
10,6.13,8.6,4.74,1
11,6.15,7.96,3.24,2
12,6.16,26.56,6.34,2
13,6.17,107.88,13.83,2
14,6.19,249.48,27.85,2
15,6.2,363.68,66.11,2
16,6.21,381.12,131.76,2
17,6.23,339.4,176.68,2
18,6.24,297.98,146.97,2
19,6.25,252.78,60.7,2
20,6.27,173.37,-19.85,2
21,6.28,67.78,-71.2,2
22,6.29,-20.13,-106.86,2
23,6.31,-72.21,-130.67,2
24,6.32,-113.38,-138.15,2
25,6.33,-161.72,-133.91,2
26,6.35,-203.67,-126.5,2
27,6.36,-225.63,-118.35,2
28,6.37,-236.43,-103.86,2
29,6.39,-242.77,-79.27,2
30,6.4,-236.89,-49.16,2
31,6.41,-221.47,-22.18,2
32,6.43,-209.95,-9.11,2
33,6.44,-202.88,-13.36,2
34,6.45,-194.68,-15.61,2
35,6.47,-188.36,-1.61,2
36,6.48,-186.87,12.28,2
37,6.49,-189.22,18.15,2
38,6.51,-189.71,26.44,2
39,6.52,-178.44,33.65,2
40,6.53,-159.48,34.89,2
41,6.55,-144.49,33.03,2
42,6.56,-127.82,28.7,1
43,6.57,-103.98,27.21,1
44,6.59,-81.35,32.09,1
45,6.6,-66.82,36.51,1
46,6.61,-61.78,36.73,1
47,6.63,-57.73,34.82,1
48,6.64,-40.89,31.13,1
49,6.65,-20.8,25.37,1
50,6.67,-15.7,20.96,1
51,6.68,-15.67,18.12,1
52,6.69,-4.8,12.27,1
53,6.71,8.56,6.89,1
54,6.72,16.53,10.95,1
55,6.73,26.35,18.33,1
56,6.75,38.25,13.48,1
57,6.76,43.48,2.48,1
58,6.77,46.03,4.0,1
59,6.79,52.58,9.78,1
60,6.8,56.31,5.67,1
61,6.81,54.95,2.37,1
62,6.82,57.66,5.42,1
63,6.84,64.78,6.86,1
64,6.85,68.32,10.68,1
65,6.86,65.69,19.31,1
66,6.88,61.37,18.89,1
67,6.89,62.05,4.76,1
68,6.91,70.97,-8.13,1
69,6.92,78.96,-15.65,1
70,6.93,75.63,-22.75,1
71,6.95,66.75,-18.96,1
72,6.96,66.58,-1.95,1
73,6.97,75.36,6.35,1
74,6.99,78.58,-5.14,1
75,7.0,72.29,-16.33,1
76,7.01,68.44,-5.62,1
77,7.03,72.37,11.78,1
78,7.04,78.89,9.55,1
79,7.05,78.58,0.32,1
80,7.07,65.92,3.96,1
81,7.08,54.32,5.17,1
82,7.09,60.45,-4.73,1
83,7.11,73.34,-7.25,1
84,7.12,70.02,-1.75,1
85,7.13,54.59,-3.94,1
86,7.15,50.41,-10.53,1
87,7.16,57.21,-12.46,1
88,7.17,53.92,-11.84,1
89,7.19,41.61,-11.03,1
90,7.2,38.57,-7.76,1
91,7.21,43.21,-4.83,1
92,7.23,41.26,-9.53,1
93,7.24,34.7,-17.71,1
94,7.25,34.38,-20.04,1
95,7.27,37.1,-15.7,1
96,7.28,35.39,-5.81,1
97,7.29,33.2,3.32,1
98,7.31,33.15,4.01,1
99,7.32,32.22,1.14,1
100,7.33,31.53,2.85,1
101,7.35,29.54,7.38,1
102,7.36,22.04,7.67,1
103,7.37,17.7,3.4,1
104,7.39,21.58,-0.99,1
105,7.4,20.99,-5.62,1
106,7.41,13.7,-7.01,1
107,7.43,14.88,-5.15,1
108,7.44,23.92,-8.85,1
109,7.45,24.13,-8.72,1
110,7.47,14.17,3.95,1
111,7.48,5.92,10.81,1
112,7.49,1.14,6.64,1
113,7.51,-0.31,2.48,1
114,7.52,4.6,-3.36,1
115,7.53,10.73,-5.36,1
116,7.55,13.15,0.49,1
117,7.56,8.97,-0.81,1
118,7.57,-6.1,-6.88,1
119,7.59,-20.38,-4.75,1
120,7.6,-18.06,-1.59,1
121,7.61,-11.72,2.14,1
122,7.63,-15.59,11.19,1
123,7.64,-18.75,12.5,1
124,7.65,-14.08,3.72,1
125,7.67,-11.36,0.92,1
126,7.68,-15.03,4.14,1
127,7.69,-21.07,-0.62,1
128,7.71,-24.39,-13.76,1
129,7.72,-23.81,-17.48,1
130,7.73,-25.84,-3.71,1
131,7.75,-32.57,7.74,1
132,7.76,-33.25,0.64,1
133,7.77,-26.98,-10.0,1
134,7.79,-26.7,-6.38,1
135,7.8,-30.51,5.66,1
136,7.81,-27.74,12.55,1
137,7.83,-23.91,9.76,1
138,7.84,-25.25,0.98,1
139,7.85,-27.13,-5.5,1
140,7.87,-26.35,-5.02,1
141,7.88,-25.95,-0.33,1
142,7.89,-31.36,5.47,1
143,7.91,-36.3,7.55,1
144,7.92,-29.4,6.21,1
145,7.93,-21.28,10.05,1
146,7.95,-23.66,12.76,1
147,7.96,-24.11,6.43,1
148,7.97,-21.32,3.4,1
149,7.99,-26.76,4.96,1
150,8.0,-30.96,-0.5,1
151,8.01,-27.79,-3.17,1
152,8.03,-29.82,8.12,1
153,8.04,-34.11,16.52,1
154,8.05,-29.06,7.29,1
155,8.07,-24.48,-6.67,1
156,8.08,-28.85,-11.41,1
157,8.09,-26.91,-11.58,1
158,8.1,-13.73,-13.59,1
159,8.12,-12.14,-11.84,1
160,8.13,-26.34,1.29,1
161,8.15,-33.62,14.77,0
162,8.16,-29.3,9.3,0
163,8.17,-20.47,-3.08,0
164,8.19,-6.19,-2.82,0
165,8.2,4.48,-3.12,0
166,8.21,4.37,-8.76,0
167,8.23,-6.3,-3.86,0
168,8.24,-54.29,3.39,0
169,8.25,-157.06,2.6,0
170,8.27,-266.87,4.37,0
171,8.28,-334.34,5.82,0
172,8.29,-361.61,-0.35,0
173,8.31,-355.18,-5.76,0
174,8.32,-316.93,-8.12,0
175,8.33,-268.42,-16.18,0
176,8.35,-227.5,-32.53,0
177,8.36,-191.7,-44.12,0
178,8.37,-155.95,-38.66,0
179,8.39,-121.53,-28.43,0
180,8.4,-73.24,-25.21,0
181,8.41,31.89,-14.48,0
182,8.43,192.17,7.97,0
183,8.44,318.21,20.01,0
184,8.45,353.98,16.89,0
185,8.47,351.28,15.52,0
186,8.48,358.37,18.32,0
187,8.49,358.66,18.67,0
188,8.51,341.46,18.0,0
189,8.52,320.07,19.26,0
190,8.53,291.76,22.13,0
191,8.55,256.57,22.66,1
192,8.56,233.98,18.47,1
193,8.57,227.54,18.6,1
194,8.59,221.55,33.45,1
195,8.6,205.51,52.59,1
196,8.61,178.13,51.8,1
197,8.63,148.8,24.23,1
198,8.64,127.21,-5.88,1
199,8.65,109.65,-9.56,1
200,8.67,91.64,8.08,1
201,8.68,78.11,14.7,1
202,8.69,69.27,1.8,1
203,8.71,54.18,-10.05,1
204,8.72,31.78,-11.2,1
205,8.73,19.89,-9.51,1
206,8.75,22.94,-12.3,1
207,8.76,18.19,-19.27,1
208,8.77,-3.26,-19.48,1
209,8.78,-22.29,-8.22,1
210,8.8,-30.31,0.71,1
211,8.81,-39.34,2.77,1
212,8.82,-53.44,6.3,1
213,8.84,-60.91,5.33,1
214,8.85,-56.81,-4.87,1
215,8.87,-53.28,-12.12,1
216,8.88,-57.37,-12.16,1
217,8.89,-63.24,-9.34,1
218,8.91,-69.18,-3.74,1
219,8.92,-74.99,-1.68,1
220,8.93,-76.18,-7.24,1
221,8.95,-71.57,-10.21,1
222,8.96,-62.81,-7.67,1
223,8.97,-58.96,-5.95,1
224,8.99,-69.7,-5.11,1
225,9.0,-83.99,-6.09,1
226,9.01,-85.72,-8.98,1
227,9.03,-80.49,-8.17,1
228,9.04,-81.13,-5.83,1
229,9.05,-84.31,-6.31,1
230,9.07,-78.57,-6.33,1
231,9.08,-69.29,-1.61,1
232,9.09,-71.6,7.06,1
233,9.11,-77.2,8.38,1
234,9.12,-72.2,-3.41,1
235,9.13,-69.09,-10.18,1
236,9.15,-73.25,-3.28,1
237,9.16,-70.56,-0.15,1
238,9.17,-63.15,-6.31,1
239,9.19,-59.27,-7.55,1
240,9.2,-55.39,2.58,1
241,9.21,-55.26,11.61,1
242,9.23,-64.37,6.34,1
243,9.24,-67.99,-6.15,1
244,9.25,-54.43,-9.59,1
245,9.27,-43.33,-3.13,1
246,9.28,-49.08,1.52,1
247,9.29,-52.77,1.58,1
248,9.31,-44.96,2.6,1
249,9.32,-38.62,1.16,1
250,9.33,-36.71,-6.44,1
251,9.35,-36.34,-13.1,1
252,9.36,-38.07,-13.53,1
253,9.37,-38.89,-7.68,1
254,9.39,-36.41,1.51,1
255,9.4,-31.8,4.78,1
256,9.41,-25.71,-1.89,1
257,9.43,-18.24,-5.48,1
258,9.44,-13.9,0.98,1
259,9.45,-12.59,0.37,1
260,9.47,-9.18,-9.6,1
261,9.48,-11.66,-9.68,1
262,9.49,-21.88,0.88,1
263,9.51,-20.78,9.5,1
264,9.52,-7.65,10.14,1
265,9.53,-3.36,5.15,1
266,9.55,-7.46,2.06,1
267,9.56,-1.23,1.99,1
268,9.57,13.33,2.4,1
269,9.59,16.35,5.56,1
270,9.6,9.79,9.37,1
271,9.61,8.98,8.24,1
272,9.63,9.56,4.56,1
273,9.64,10.37,2.11,1
274,9.65,18.36,0.27,1
275,9.67,18.28,4.42,1
276,9.68,3.47,11.96,1
277,9.69,0.49,8.97,1
278,9.71,17.65,1.53,1
279,9.72,30.11,0.12,1
280,9.73,25.19,-4.39,1
281,9.75,17.2,-13.8,1
282,9.76,18.47,-15.92,1
283,9.77,19.48,-5.01,1
284,9.79,13.64,9.6,1
285,9.8,14.62,10.75,1
286,9.81,27.54,-0.0,1
287,9.83,37.2,-6.23,1
288,9.84,33.94,-7.33,1
289,9.85,29.0,-7.69,1
290,9.87,31.1,-1.83,1
291,9.88,30.7,5.31,1
292,9.89,24.64,6.04,1
293,9.91,22.94,7.89,1
294,9.92,25.94,12.77,1
295,9.93,26.71,11.97,1
296,9.95,27.22,6.12,1
297,9.96,34.49,2.46,1
298,9.97,43.31,0.76,1
299,9.99,38.25,-4.17,1
300,10.0,24.16,-9.45,1
301,10.01,20.77,-6.79,1
302,10.02,25.6,0.54,1
303,10.04,26.65,2.27,1
304,10.05,26.46,1.01,1
305,10.06,28.61,3.54,1
306,10.08,29.42,3.88,1
307,10.09,25.78,-3.72,1
308,10.1,21.43,-11.4,1
309,10.12,21.45,-11.89,1
310,10.13,21.59,-6.62,1
311,10.15,17.97,0.93,0
312,10.16,16.18,5.44,0
313,10.17,18.58,4.37,0
314,10.19,9.11,3.81,0
315,10.2,-50.73,10.74,0
316,10.21,-178.03,20.38,0
317,10.23,-310.61,28.77,0
318,10.24,-368.14,50.21,0
319,10.25,-349.55,83.21,0
320,10.27,-302.61,85.33,0
321,10.28,-249.02,31.74,0
322,10.29,-175.8,-40.32,0
323,10.31,-79.42,-84.45,0
324,10.32,13.29,-99.6,0
325,10.33,84.3,-103.94,0
326,10.35,140.7,-99.86,0
327,10.36,178.76,-83.61,0
328,10.37,192.48,-63.27,0
329,10.39,203.71,-47.54,0
330,10.4,226.55,-27.28,0
331,10.41,239.81,0.26,0
332,10.43,232.4,16.23,0
333,10.44,220.31,13.84,0
334,10.45,209.99,10.51,0
335,10.47,198.34,18.09,0
336,10.48,189.55,26.32,0
337,10.49,181.86,26.66,0
338,10.51,170.68,27.07,0
339,10.52,163.07,29.85,0
340,10.53,159.19,30.44,0
341,10.55,146.14,29.73,1
342,10.56,124.91,26.34,1
343,10.57,109.61,15.5,1
344,10.59,106.71,9.82,1
345,10.6,111.3,23.26,1
346,10.61,111.98,35.28,1
347,10.63,101.24,28.49,1
348,10.64,86.11,22.49,1
349,10.65,76.98,25.63,1
350,10.67,72.54,24.01,1
351,10.68,66.31,16.95,1
352,10.69,54.23,15.15,1
353,10.71,32.79,18.92,1
354,10.72,9.09,18.87,1
355,10.73,-3.23,16.17,1
356,10.75,-8.7,16.83,1
357,10.76,-23.56,13.1,1
358,10.77,-44.41,3.5,1
359,10.78,-50.67,0.62,1
360,10.8,-39.1,2.42,1
361,10.81,-30.03,0.44,1
362,10.83,-34.75,3.36,1
363,10.84,-45.73,12.37,1
364,10.85,-59.89,7.65,1
365,10.87,-79.81,-12.62,1
366,10.88,-101.34,-21.47,1
367,10.89,-114.54,-9.89,1
368,10.91,-109.33,1.98,1
369,10.92,-90.69,3.48,1
370,10.93,-78.27,0.71,1
371,10.95,-76.58,-3.04,1
372,10.96,-75.98,-9.16,1
373,10.97,-75.21,-12.43,1
374,10.99,-71.94,-7.54,1
375,11.0,-63.33,-3.79,1
376,11.01,-65.44,-12.37,1
377,11.03,-85.13,-23.95,1
378,11.04,-97.44,-22.91,1
379,11.05,-91.81,-12.64,1
380,11.07,-85.17,-3.63,1
381,11.08,-80.7,6.85,1
382,11.09,-70.28,16.57,1
383,11.11,-61.34,8.18,1
384,11.12,-67.0,-16.1,1
385,11.13,-80.04,-28.97,1
386,11.15,-81.63,-18.03,1
387,11.16,-72.63,-0.02,1
388,11.17,-66.87,5.88,1
389,11.19,-61.44,-2.41,1
390,11.2,-45.89,-14.44,1
391,11.21,-32.46,-19.52,1
392,11.23,-42.3,-12.5,1
393,11.24,-63.84,-1.3,1
394,11.25,-64.61,-2.25,1
395,11.27,-47.91,-9.11,1
396,11.28,-44.87,-2.36,1
397,11.29,-53.7,4.49,1
398,11.31,-52.78,-4.56,1
399,11.32,-48.91,-10.14,1
400,11.33,-54.62,-2.69,1
401,11.35,-56.43,1.98,1
402,11.36,-43.24,-1.59,1
403,11.37,-30.84,-8.68,1
404,11.39,-31.22,-15.87,1
405,11.4,-30.31,-19.45,1
406,11.41,-20.68,-17.28,1
407,11.43,-17.88,-7.84,1
408,11.44,-24.21,1.7,1
409,11.45,-23.02,0.25,1
410,11.47,-12.34,-4.55,1
411,11.48,-4.29,0.67,1
412,11.49,-2.28,5.8,1
413,11.51,-4.96,-2.12,1
414,11.52,-10.15,-11.88,1
415,11.53,-12.11,-10.45,1
416,11.55,-8.51,-0.45,1
417,11.56,-2.11,8.49,1
418,11.57,1.09,7.9,1
419,11.59,-1.78,0.96,1
420,11.6,-1.01,-2.26,1
421,11.61,11.46,-2.13,1
422,11.63,24.79,-3.94,1
423,11.64,24.1,-6.28,1
424,11.65,12.67,-6.54,1
425,11.67,5.79,-3.47,1
426,11.68,10.43,1.14,1
427,11.69,16.21,-3.92,1
428,11.71,13.2,-15.76,1
429,11.72,8.38,-14.24,1
430,11.73,10.28,-3.87,1
431,11.75,20.21,0.98,1
432,11.76,30.54,7.05,1
433,11.77,28.69,11.64,1
434,11.79,21.41,4.25,1
435,11.8,23.79,-0.67,1
436,11.81,29.71,10.13,1
437,11.83,29.2,21.33,1
438,11.84,28.44,17.53,1
439,11.85,34.53,5.12,1
440,11.87,39.5,0.58,1
441,11.88,34.31,5.25,1
442,11.89,27.72,3.7,1
443,11.91,29.32,-3.75,1
444,11.92,32.28,-3.08,1
445,11.93,29.53,0.72,1
446,11.94,25.32,-1.53,1
447,11.96,27.66,-1.27,1
448,11.97,35.56,4.86,1
449,11.98,33.45,4.01,1
450,12.0,19.71,-6.32,1
451,12.01,18.36,-8.83,1
452,12.02,29.59,2.54,1
453,12.04,30.38,13.03,1
454,12.05,27.42,14.05,1
455,12.06,35.83,9.57,1
456,12.08,42.15,1.43,1
457,12.09,31.76,-5.86,1
458,12.11,17.82,-3.65,1
459,12.12,20.78,3.54,1
460,12.13,31.36,6.19,1
461,12.15,24.63,6.5,2
462,12.16,8.56,6.76,2
463,12.17,6.81,2.9,2
464,12.19,16.47,-2.29,2
465,12.2,31.81,-1.49,2
466,12.21,69.01,7.53,2
467,12.23,144.56,25.98,2
468,12.24,248.45,46.29,2
469,12.25,340.25,49.24,2
470,12.27,381.15,34.32,2
471,12.28,366.5,24.4,2
472,12.29,319.94,30.95,2
473,12.31,270.09,40.91,2
474,12.32,230.24,38.61,2
475,12.33,195.11,23.7,2
476,12.35,158.63,4.82,2
477,12.36,116.11,-13.36,2
478,12.37,38.1,-29.86,2
479,12.39,-103.4,-38.75,2
480,12.4,-256.03,-35.33,2
481,12.41,-330.44,-27.32,2
482,12.43,-333.94,-20.42,2
483,12.44,-332.24,-11.44,2
484,12.45,-333.13,-7.63,2
485,12.47,-321.11,-16.29,2
486,12.48,-302.83,-26.85,2
487,12.49,-282.84,-31.48,2
488,12.51,-262.8,-31.56,2
489,12.52,-242.14,-26.18,2
490,12.53,-218.32,-19.48,2
491,12.55,-191.06,-16.99,1
492,12.56,-149.28,-12.94,1
493,12.57,-106.1,-4.79,1
494,12.59,-103.82,0.66,1
495,12.6,-125.9,1.73,1
496,12.61,-118.08,1.06,1
497,12.63,-94.51,0.08,1
498,12.64,-94.09,-0.72,1
499,12.65,-94.83,0.13,1
500,12.67,-72.55,0.64,1
501,12.68,-52.59,-4.18,1
502,12.69,-45.35,-11.71,1
503,12.71,-32.13,-13.09,1
504,12.72,-15.88,-8.31,1
505,12.73,-6.75,-4.01,1
506,12.75,0.51,0.11,1
507,12.76,6.64,4.69,1
508,12.77,10.7,3.5,1
509,12.79,21.21,-1.16,1
510,12.8,35.55,-0.3,1
511,12.81,38.69,3.85,1
512,12.83,31.46,4.64,1
513,12.84,29.36,2.15,1
514,12.85,36.49,-4.26,1
515,12.87,43.47,-9.79,1
516,12.88,45.78,-4.47,1
517,12.89,49.19,4.57,1
518,12.91,54.56,1.85,1
519,12.92,56.42,-5.69,1
520,12.93,55.51,-1.14,1
521,12.95,53.9,8.45,1
522,12.96,55.65,8.86,1
523,12.97,64.75,5.15,1
524,12.99,72.12,2.04,1
525,13.0,69.63,-2.54,1
526,13.01,65.91,-2.6,1
527,13.03,70.0,5.51,1
528,13.04,76.91,12.54,1
529,13.05,77.35,9.02,1
530,13.07,71.57,0.82,1
531,13.08,67.6,2.27,1
532,13.09,68.72,14.26,1
533,13.11,72.1,22.68,1
534,13.12,75.84,19.98,1
535,13.13,73.92,8.15,1
536,13.15,63.06,-8.27,1
537,13.16,59.18,-16.15,1
538,13.17,71.56,-5.0,1
539,13.19,78.4,14.69,1
540,13.2,64.15,25.37,1
541,13.21,46.04,19.87,1
542,13.23,43.59,3.94,1
543,13.24,48.54,-3.69,1
544,13.25,44.94,3.75,1
545,13.27,41.31,7.44,1
546,13.28,51.6,-0.97,1
547,13.29,64.14,-11.0,1
548,13.31,64.56,-14.02,1
549,13.32,53.88,-8.13,1
550,13.33,38.62,-0.82,1
551,13.35,27.64,3.4,1
552,13.36,25.76,9.26,1
553,13.37,26.77,13.64,1
554,13.39,25.92,7.12,1
555,13.4,27.76,-7.78,1
556,13.41,27.51,-16.93,1
557,13.43,17.14,-13.77,1
558,13.44,10.67,-4.3,1
559,13.45,17.71,3.32,1
560,13.47,20.7,4.66,1
561,13.48,12.18,0.21,1
562,13.49,5.56,-5.29,1
563,13.51,3.51,-6.96,1
564,13.52,2.86,-2.81,1
565,13.53,7.47,4.71,1
566,13.55,10.24,8.87,1
567,13.56,0.41,7.73,1
568,13.57,-8.84,5.58,1
569,13.59,-7.92,2.55,1
570,13.6,-11.26,0.29,1
571,13.61,-15.19,4.7,1
572,13.63,-3.83,11.37,1
573,13.64,7.32,10.22,1
574,13.65,-5.1,1.22,1
575,13.67,-31.07,-4.3,1
576,13.68,-37.78,-0.66,1
577,13.69,-19.1,2.95,1
578,13.71,-6.55,2.05,1
579,13.72,-10.97,2.54,1
580,13.73,-10.83,3.14,1
581,13.75,-8.73,-1.48,1
582,13.76,-22.75,-8.23,1
583,13.77,-44.67,-6.44,1
584,13.79,-49.56,7.45,1
585,13.8,-31.09,14.16,1
586,13.81,-10.07,-0.93,1
587,13.83,-8.89,-17.14,1
588,13.84,-22.05,-12.99,1
589,13.85,-30.8,0.38,1
590,13.86,-36.69,3.24,1
591,13.88,-43.75,-1.4,1
592,13.89,-37.95,1.73,1
593,13.9,-20.66,9.88,1
594,13.92,-16.37,11.3,1
595,13.93,-32.19,6.22,1
596,13.94,-47.49,-0.03,1
597,13.96,-40.0,-6.24,1
598,13.97,-16.81,-14.82,1
599,13.98,-5.31,-22.23,1
600,14.0,-11.97,-16.62,1
601,14.01,-21.46,-3.19,1
602,14.02,-26.5,-0.54,1
603,14.04,-30.06,-4.85,1
604,14.05,-31.67,-0.64,1
605,14.07,-29.78,7.45,1
606,14.08,-27.42,6.02,1
607,14.09,-29.55,-0.63,1
608,14.11,-35.92,2.56,1
609,14.12,-36.3,21.7,1
610,14.13,-25.27,52.75,1
611,14.15,-26.43,92.2,1
612,14.16,-76.45,165.71,1
613,14.17,-126.0,296.61,1
614,14.19,-64.86,405.98,1
615,14.2,67.14,371.58,1
616,14.21,152.16,185.61,1
617,14.23,213.31,-2.8,1
618,14.24,309.55,16.42,1
619,14.25,391.59,215.4,1
620,14.27,378.42,298.49,1
621,14.28,295.75,188.8,1
622,14.29,230.19,100.33,1
623,14.31,185.86,104.74,1
624,14.32,114.38,97.36,1
625,14.33,-40.39,50.72,1
626,14.35,-260.87,15.71,1
627,14.36,-389.98,1.41,1
628,14.37,-365.73,-16.56,1
629,14.39,-298.62,-41.44,1
630,14.4,-273.86,-61.75,1
631,14.41,-302.72,-76.32,1
632,14.43,-383.29,-90.47,1
633,14.44,-474.91,-104.74,1
634,14.45,-368.96,-117.08,1
635,14.47,-32.42,-127.28,1
636,14.48,86.83,-136.87,1
637,14.49,-145.55,-145.72,1
638,14.51,-259.77,-152.67,1
639,14.52,-94.28,-158.01,1
640,14.53,11.49,-162.69,1
641,14.55,-148.29,-166.66,1
642,14.56,-357.93,-169.54,1
643,14.57,-339.94,-171.61,1
644,14.59,-203.46,-172.46,1
645,14.6,-194.59,-172.48,1
646,14.61,-246.69,-172.19,1
647,14.63,-194.51,-171.43,1
648,14.64,-69.43,-170.01,1
649,14.65,100.18,-168.13,1
650,14.67,257.54,-165.25,1
651,14.68,285.35,-161.64,1
652,14.69,282.43,-157.46,1
653,14.71,313.73,-152.95,1
654,14.72,255.71,-148.11,1
655,14.73,102.52,-143.45,1
656,14.75,-2.34,-138.59,1
657,14.76,32.62,-132.88,1
658,14.77,151.95,-126.37,1
659,14.79,301.54,-119.8,1
660,14.8,374.27,-113.32,1
661,14.81,270.9,-106.97,1
662,14.83,207.88,-100.91,1
663,14.84,247.23,-94.38,1
664,14.85,61.11,-86.67,1
665,14.87,-255.16,-78.86,1
666,14.88,-291.77,-72.25,1
667,14.89,-154.16,-66.18,1
668,14.91,-67.32,-59.81,1
669,14.92,45.23,-53.15,1
670,14.93,81.63,-46.23,1
671,14.95,-46.38,-39.19,1
672,14.96,-34.95,-77.3,1
673,14.97,173.34,-240.04,1
674,14.99,253.12,-479.93,1
675,15.0,169.74,-666.98,1
676,15.01,100.02,-765.75,1
677,15.03,40.95,-752.12,1
678,15.04,-58.7,-623.69,1
679,15.05,-153.13,-492.14,1
680,15.07,-172.61,-420.58,1
681,15.08,-104.12,-356.69,1
682,15.09,-0.66,-272.15,1
683,15.11,76.02,-193.38,1
684,15.12,111.64,-131.39,1
685,15.13,134.31,-72.87,1
686,15.15,163.35,-13.16,1
687,15.16,187.18,41.98,1
688,15.17,196.5,90.48,1
689,15.19,193.7,134.84,1
690,15.2,179.61,176.02,1
691,15.21,172.47,214.16,1
692,15.23,182.61,249.3,1
693,15.24,180.97,280.59,1
694,15.25,162.37,316.8,1
695,15.27,153.78,387.79,1
696,15.28,145.63,509.09,1
697,15.29,120.98,624.84,1
698,15.31,100.04,665.95,1
699,15.32,95.07,655.61,1
700,15.33,91.95,653.67,1
701,15.35,84.24,656.45,1
702,15.36,69.03,641.88,1
703,15.37,41.97,619.28,1
704,15.39,21.53,593.11,1
705,15.4,19.78,555.81,1
706,15.41,13.19,515.91,1
707,15.43,-3.09,486.98,1
708,15.44,-2.84,474.86,1
709,15.45,9.85,473.45,1
710,15.47,4.6,453.0,1
711,15.48,-19.8,405.39,1
712,15.49,-40.19,371.89,1
713,15.51,-50.87,367.94,1
714,15.52,-59.85,360.69,1
715,15.53,-67.49,333.27,1
716,15.55,-73.4,304.34,1
717,15.56,-78.42,290.36,1
718,15.57,-76.94,277.39,1
719,15.59,-69.19,246.59,1
720,15.6,-67.4,207.88,1
721,15.61,-74.49,178.4,1
722,15.63,-78.91,159.55,1
723,15.64,-80.25,146.75,1
724,15.65,-90.1,129.27,1
725,15.67,-107.33,97.34,1
726,15.68,-116.23,63.48,1
727,15.69,-110.51,45.28,1
728,15.71,-103.71,35.4,1
729,15.72,-104.15,18.59,1
730,15.73,-100.29,-1.6,1
731,15.75,-87.07,-16.31,1
732,15.76,-82.61,-28.72,1
733,15.77,-96.89,-45.27,1
734,15.78,-109.25,-67.49,1
735,15.8,-102.72,-90.03,1
736,15.81,-86.91,-99.72,1
737,15.82,-76.45,-96.11,1
738,15.84,-78.53,-100.5,1
739,15.85,-90.05,-121.71,1
740,15.86,-96.5,-144.18,1
741,15.88,-93.11,-154.13,1
742,15.89,-87.21,-154.55,1
743,15.9,-78.59,-158.37,1
744,15.92,-68.04,-168.61,1
745,15.93,-64.06,-176.9,1
746,15.94,-66.88,-177.65,1
747,15.96,-67.88,-171.05,1
748,15.97,-64.2,-172.27,1
749,15.98,-60.09,-190.73,1
750,16.0,-58.93,-202.25,1
751,16.01,-58.05,-193.77,1
752,16.03,-51.35,-188.64,1
753,16.04,-43.68,-197.16,1
754,16.05,-43.94,-206.48,1
755,16.07,-43.27,-210.04,1
756,16.08,-32.76,-204.9,1
757,16.09,-26.76,-193.1,1
758,16.11,-31.84,-188.41,1
759,16.12,-33.29,-191.33,1
760,16.13,-29.96,-187.91,1
761,16.15,-26.31,-182.05,1
762,16.16,-16.87,-182.79,2
763,16.17,-12.43,-184.11,2
764,16.19,-10.11,-183.78,2
765,16.2,41.99,-186.01,2
766,16.21,170.34,-182.22,2
767,16.23,310.18,-162.85,2
768,16.24,372.29,-143.42,2
769,16.25,349.91,-141.32,2
770,16.27,297.55,-147.62,2
771,16.28,234.64,-153.27,2
772,16.29,154.22,-159.31,2
773,16.31,71.63,-160.52,2
774,16.32,4.06,-155.24,2
775,16.33,-46.78,-151.69,2
776,16.35,-80.48,-152.52,2
777,16.36,-100.07,-146.94,2
778,16.37,-119.54,-131.98,2
779,16.39,-143.87,-129.93,2
780,16.4,-160.13,-144.63,2
781,16.41,-163.24,-148.05,2
782,16.42,-163.03,-135.48,2
783,16.44,-164.17,-119.48,2
784,16.45,-162.67,-99.87,2
785,16.46,-157.81,-84.63,2
786,16.48,-154.23,-83.43,2
787,16.49,-155.02,-85.05,2
788,16.5,-156.77,-75.95,2
789,16.52,-148.69,-62.73,2
790,16.53,-127.79,-57.34,2
791,16.54,-109.3,-55.99,2
792,16.56,-103.22,-47.85,1
793,16.57,-95.36,-32.5,1
794,16.58,-71.83,-22.34,1
795,16.6,-47.21,-24.76,1
796,16.61,-35.83,-25.99,1
797,16.62,-26.98,-14.38,1
798,16.64,-13.38,-4.41,1
799,16.65,-3.65,-5.79,1
800,16.67,-3.18,-6.23,1
801,16.68,-3.59,-2.03,1
802,16.69,6.99,1.57,1
803,16.71,25.16,5.75,1
804,16.72,36.58,9.15,1
805,16.73,37.9,12.08,1
806,16.75,36.48,17.58,1
807,16.76,38.74,22.17,1
808,16.77,49.45,27.39,1
809,16.79,64.18,35.0,1
810,16.8,66.72,37.15,1
811,16.81,56.94,34.72,1
812,16.83,57.74,35.42,1
813,16.84,73.95,39.45,1
814,16.85,86.69,47.07,1
815,16.87,88.22,53.77,1
816,16.88,85.4,53.74,1
817,16.89,84.99,56.0,1
818,16.91,85.37,63.53,1
819,16.92,85.07,65.48,1
820,16.93,88.0,63.23,1
821,16.95,88.32,64.02,1
822,16.96,82.0,65.85,1
823,16.97,81.73,66.65,1
824,16.99,87.92,65.13,1
825,17.0,84.27,63.51,1
826,17.01,72.86,66.55,1
827,17.03,70.24,69.98,1
828,17.04,78.25,68.09,1
829,17.05,85.12,67.54,1
830,17.06,81.28,74.59,1
831,17.08,73.69,78.7,1
832,17.09,76.8,70.16,1
833,17.1,84.43,61.33,1
834,17.12,78.09,63.42,1
835,17.13,61.86,68.41,1
836,17.14,56.63,68.02,1
837,17.16,63.57,64.74,1
838,17.17,66.92,63.1,1
839,17.18,63.88,61.23,1
840,17.2,61.17,57.16,1
841,17.21,59.97,57.9,1
842,17.22,55.3,62.24,1
843,17.24,42.92,56.26,1
844,17.25,34.16,45.59,1
845,17.26,39.98,47.98,1
846,17.28,46.46,57.49,1
847,17.29,43.29,58.22,1
848,17.3,35.67,52.67,1
849,17.32,26.78,50.76,1
850,17.33,26.21,51.13,1
851,17.35,36.43,48.51,1
852,17.36,34.68,47.56,1
853,17.37,16.38,52.12,1
854,17.39,10.03,49.11,1
855,17.4,19.67,33.57,1
856,17.41,18.66,28.87,1
857,17.43,5.18,39.96,1
858,17.44,-0.2,38.27,1
859,17.45,1.98,23.19,1
860,17.47,1.88,24.21,1
861,17.48,4.53,36.1,1
862,17.49,6.28,29.86,1
863,17.51,-3.01,16.18,1
864,17.52,-12.07,20.13,1
865,17.53,-8.86,30.81,1
866,17.55,-1.33,31.72,1
867,17.56,-2.22,26.07,1
868,17.57,-14.67,22.26,1
869,17.59,-26.58,24.04,1
870,17.6,-24.55,24.96,1
871,17.61,-18.76,18.81,1
872,17.63,-20.09,12.44,1
873,17.64,-18.59,13.81,1
874,17.65,-12.72,18.47,1
875,17.67,-16.02,16.83,1
876,17.68,-28.25,7.93,1
877,17.69,-37.42,1.41,1
878,17.7,-38.41,4.5,1
879,17.72,-34.4,9.62,1
880,17.73,-31.07,9.1,1
881,17.75,-31.66,5.62,1
882,17.76,-33.09,-4.88,1
883,17.77,-27.79,-16.42,1
884,17.78,-16.73,-11.02,1
885,17.8,-11.73,-3.39,1
886,17.81,-17.43,-11.15,1
887,17.82,-26.08,-12.66,1
888,17.84,-31.29,0.93,1
889,17.85,-32.41,3.97,1
890,17.86,-36.66,-11.63,1
891,17.88,-44.25,-21.89,1
892,17.89,-38.55,-11.94,1
893,17.9,-19.37,-2.15,1
894,17.92,-11.53,-13.67,1
895,17.93,-23.35,-29.26,1
896,17.94,-37.54,-27.53,1
897,17.96,-40.29,-21.65,1
898,17.97,-37.33,-20.88,1
899,17.99,-39.45,-14.71,1
900,18.0,-44.51,-12.02,1
901,18.01,-44.8,-23.96,1
902,18.03,-39.31,-32.06,1
903,18.04,-33.65,-21.29,1
904,18.05,-34.5,-5.61,1
905,18.07,-39.14,-8.15,1
906,18.08,-36.58,-23.72,1
907,18.09,-22.24,-23.93,1
908,18.11,-12.72,-11.08,1
909,18.12,-25.02,-9.24,1
910,18.13,-42.97,-14.02,1
911,18.15,-39.66,-13.74,1
912,18.16,-21.93,-16.8,0
913,18.17,-16.32,-25.6,0
914,18.19,-25.29,-25.63,0
915,18.2,-36.63,-14.49,0
916,18.21,-62.37,-11.39,0
917,18.23,-128.71,-23.7,0
918,18.24,-230.92,-33.99,0
919,18.25,-331.12,-33.18,0
920,18.27,-390.08,-30.92,0
921,18.28,-387.14,-35.61,0
922,18.29,-337.46,-49.41,0
923,18.31,-281.93,-65.43,0
924,18.32,-241.68,-68.16,0
925,18.33,-206.83,-48.93,0
926,18.34,-168.16,-18.14,0
927,18.36,-122.82,-2.53,0
928,18.37,-45.31,-12.28,0
929,18.38,93.33,-20.86,0
930,18.4,253.13,-13.88,0
931,18.41,347.38,-6.77,0
932,18.42,358.68,-3.9,0
933,18.44,349.32,2.86,0
934,18.45,354.86,9.89,0
935,18.46,349.97,6.43,0
936,18.48,319.33,-2.29,0
937,18.49,288.29,2.39,0
938,18.5,272.81,18.59,0
939,18.52,258.74,24.52,0
940,18.53,232.63,16.81,0
941,18.54,197.48,9.17,0
942,18.56,170.02,5.73,1
943,18.57,166.05,5.57,1
944,18.58,173.25,12.13,1
945,18.6,161.21,18.84,1
946,18.61,127.14,13.89,1
947,18.63,96.17,4.48,1
948,18.64,76.85,4.25,1
949,18.65,57.55,8.49,1
950,18.67,38.67,6.72,1
951,18.68,30.39,0.33,1
952,18.69,31.07,-3.73,1
953,18.71,27.38,1.0,1
954,18.72,14.24,11.28,1
955,18.73,-0.57,11.31,1
956,18.75,-12.85,-2.96,1
957,18.76,-21.04,-14.53,1
958,18.77,-23.96,-9.04,1
959,18.79,-27.62,4.86,1
960,18.8,-35.39,3.02,1
961,18.81,-44.01,-14.42,1
962,18.83,-49.71,-23.16,1
963,18.84,-50.53,-20.17,1
964,18.85,-52.55,-17.92,1
965,18.87,-60.02,-16.54,1
966,18.88,-65.75,-13.72,1
967,18.89,-65.33,-10.79,1
968,18.91,-60.92,-5.71,1
969,18.92,-55.1,1.16,1
970,18.93,-52.07,4.57,1
971,18.95,-53.03,4.29,1
972,18.96,-58.12,2.64,1
973,18.97,-68.18,-2.76,1
974,18.98,-76.51,-8.56,1
975,19.0,-77.65,-4.84,1
976,19.01,-75.01,5.08,1
977,19.02,-69.19,8.14,1
978,19.04,-63.25,5.45,1
979,19.05,-64.31,5.02,1
980,19.06,-67.69,4.91,1
981,19.08,-67.05,3.24,1
982,19.09,-68.21,2.65,1
983,19.1,-70.7,3.6,1
984,19.12,-66.77,3.42,1
985,19.13,-62.4,2.43,1
986,19.14,-64.02,4.21,1
987,19.16,-64.9,5.5,1
988,19.17,-61.2,3.22,1
989,19.18,-55.27,2.2,1
990,19.2,-50.52,2.42,1
991,19.21,-50.85,1.52,1
992,19.22,-53.98,2.0,1
993,19.24,-53.07,-1.02,1
994,19.25,-47.87,-9.54,1
995,19.26,-45.92,-8.92,1
996,19.28,-49.54,2.66,1
997,19.29,-47.0,6.19,1
998,19.31,-33.49,-0.91,1
999,19.32,-24.2,-4.21,1
1000,19.33,-26.19,-2.26,1
1001,19.35,-26.53,-1.71,1
1002,19.36,-22.44,-1.57,1
1003,19.37,-24.84,1.54,1
1004,19.39,-29.58,8.07,1
1005,19.4,-23.88,12.85,1
1006,19.41,-14.24,11.53,1
1007,19.43,-12.72,8.71,1
1008,19.44,-13.61,7.27,1
1009,19.45,-9.87,6.4,1
1010,19.47,-8.37,7.9,1
1011,19.48,-7.99,10.86,1
1012,19.49,2.46,9.28,1
1013,19.51,12.52,2.15,1
1014,19.52,4.39,-5.52,1
1015,19.53,-7.61,-10.36,1
1016,19.55,-2.42,-8.79,1
1017,19.56,9.96,0.3,1
1018,19.57,10.07,11.71,1
1019,19.59,1.4,17.77,1
1020,19.6,-0.81,10.31,1
1021,19.61,8.17,-5.6,1
1022,19.62,23.49,-10.02,1
1023,19.64,31.51,-1.68,1
1024,19.65,22.45,2.85,1
1025,19.67,11.63,5.53,1
1026,19.68,15.81,9.2,1
1027,19.69,25.24,4.39,1
1028,19.7,30.02,-1.68,1
1029,19.72,30.86,1.61,1
1030,19.73,24.05,4.55,1
1031,19.75,15.97,1.06,1
1032,19.76,20.27,1.06,1
1033,19.77,30.65,3.71,1
1034,19.78,30.73,-2.67,1
1035,19.8,21.74,-11.67,1
1036,19.81,18.74,-10.99,1
1037,19.82,22.03,-6.05,1
1038,19.84,18.54,-5.29,1
1039,19.85,13.38,-5.65,1
1040,19.86,19.67,-2.15,1
1041,19.88,34.77,4.62,1
1042,19.89,44.96,9.72,1
1043,19.9,41.58,7.47,1
1044,19.92,31.6,0.75,1
1045,19.93,23.81,2.24,1
1046,19.95,14.09,11.97,1
1047,19.96,4.93,10.71,1
1048,19.97,11.07,-3.75,1
1049,19.99,26.38,-6.99,1
1050,20.0,26.23,5.86,1
1051,20.01,14.95,13.1,1
1052,20.03,14.68,8.85,1
1053,20.04,20.52,3.22,1
1054,20.05,20.89,-0.46,1
1055,20.07,19.15,-4.14,1
1056,20.08,17.71,-11.06,1
1057,20.09,20.94,-19.29,1
1058,20.11,30.6,-16.13,1
1059,20.12,34.65,-0.16,1
1060,20.13,28.53,9.26,1
1061,20.15,21.19,4.12,1
1062,20.16,7.36,-5.87,0
1063,20.17,-40.18,-16.83,0
1064,20.19,-141.08,-23.31,0
1065,20.2,-271.76,-19.28,0
1066,20.21,-366.08,-18.06,0
1067,20.23,-372.68,-24.79,0
1068,20.24,-313.68,-20.59,0
1069,20.25,-247.0,-3.24,0
1070,20.26,-184.44,5.88,0
1071,20.28,-110.47,2.49,0
1072,20.29,-34.22,1.47,0
1073,20.3,29.49,6.5,0
1074,20.32,83.79,15.44,0
1075,20.33,131.18,28.49,0
1076,20.34,165.79,32.27,0
1077,20.36,189.42,16.1,0
1078,20.37,210.23,-4.01,0
1079,20.38,231.09,-6.15,0
1080,20.4,244.22,5.59,0
1081,20.41,240.8,7.99,0
1082,20.42,225.59,1.4,0
1083,20.44,211.14,4.16,0
1084,20.45,205.48,11.09,0
1085,20.46,205.11,11.57,0
1086,20.48,198.84,9.09,0
1087,20.49,185.82,3.58,0
1088,20.5,175.09,1.24,0
1089,20.52,165.62,9.8,0
1090,20.53,151.84,14.53,0
1091,20.54,139.45,7.51,0
1092,20.56,135.58,2.96,1
1093,20.57,133.89,5.35,1
1094,20.59,122.76,7.92,1
1095,20.6,102.1,8.44,1
1096,20.61,82.34,6.78,1
1097,20.63,70.5,7.59,1
1098,20.64,62.46,14.83,1
1099,20.65,49.27,17.08,1
1100,20.67,32.32,7.44,1
1101,20.68,20.97,2.01,1
1102,20.69,13.6,6.42,1
1103,20.71,-0.57,5.85,1
1104,20.72,-20.24,0.84,1
1105,20.73,-31.09,4.14,1
1106,20.75,-28.54,11.17,1
1107,20.76,-26.79,9.3,1
1108,20.77,-36.2,0.94,1
1109,20.79,-46.57,-5.21,1
1110,20.8,-50.92,-8.18,1
1111,20.81,-57.91,-7.48,1
1112,20.83,-64.97,-2.54,1
1113,20.84,-61.02,1.03,1
1114,20.85,-57.17,-2.33,1
1115,20.87,-67.87,-10.21,1
1116,20.88,-80.14,-15.01,1
1117,20.89,-79.88,-13.1,1
1118,20.9,-77.71,-5.8,1
1119,20.92,-80.89,1.59,1
1120,20.93,-76.89,0.99,1
1121,20.94,-67.68,-3.37,1
1122,20.96,-71.99,-3.77,1
1123,20.97,-83.87,-5.82,1
1124,20.98,-86.26,-7.03,1
1125,21.0,-85.61,0.31,1
1126,21.01,-87.12,1.54,1
1127,21.02,-83.12,-13.45,1
1128,21.04,-78.23,-22.72,1
1129,21.05,-81.17,-12.58,1
1130,21.06,-87.04,-2.16,1
1131,21.08,-89.09,-5.57,1
1132,21.09,-83.52,-13.67,1
1133,21.1,-70.79,-14.3,1
1134,21.12,-68.72,-4.07,1
1135,21.13,-85.82,5.41,1
1136,21.14,-94.57,1.62,1
1137,21.16,-81.73,-5.08,1
1138,21.17,-73.02,-2.23,1
1139,21.18,-77.73,1.78,1
1140,21.2,-77.18,1.09,1
1141,21.21,-70.15,1.86,1
1142,21.23,-69.13,0.72,1
1143,21.24,-66.41,-8.24,1
1144,21.25,-50.0,-16.25,1
1145,21.27,-32.02,-11.43,1
1146,21.28,-30.0,2.54,1
1147,21.29,-41.47,8.88,1
1148,21.31,-50.14,3.25,1
1149,21.32,-46.41,0.56,1
1150,21.33,-36.8,3.76,1
1151,21.35,-27.95,3.44,1
1152,21.36,-20.04,1.8,1
1153,21.37,-19.53,0.24,1
1154,21.39,-27.05,-6.6,1
1155,21.4,-31.66,-13.81,1
1156,21.41,-28.75,-14.24,1
1157,21.43,-23.22,-7.6,1
1158,21.44,-18.24,0.81,1
1159,21.45,-10.9,0.14,1
1160,21.47,-1.17,-3.98,1
1161,21.48,4.33,3.17,1
1162,21.49,1.63,9.35,1
1163,21.51,-9.35,2.93,1
1164,21.52,-19.49,-1.02,1
1165,21.53,-11.36,1.3,1
1166,21.54,8.67,-0.51,1
1167,21.56,15.67,-4.74,1
1168,21.57,10.7,-7.7,1
1169,21.58,8.87,-7.15,1
1170,21.6,11.75,1.91,1
1171,21.61,15.9,11.14,1
1172,21.62,18.68,5.5,1
1173,21.64,17.92,-7.61,1
1174,21.65,15.39,-10.82,1
1175,21.67,16.01,-6.02,1
1176,21.68,20.95,-2.69,1
1177,21.69,21.64,-3.44,1
1178,21.7,16.83,-7.29,1
1179,21.72,20.02,-6.53,1
1180,21.73,28.13,1.08,1
1181,21.75,25.95,5.93,1
1182,21.76,24.29,8.3,1
1183,21.77,34.27,11.92,1
1184,21.78,37.03,10.5,1
1185,21.8,26.96,8.18,1
1186,21.81,25.08,11.95,1
1187,21.82,31.6,10.36,1
1188,21.84,28.27,-0.62,1
1189,21.85,18.86,-3.74,1
1190,21.86,18.62,2.31,1
1191,21.88,26.29,-0.57,1
1192,21.89,34.7,-7.71,1
1193,21.91,43.74,-1.17,1
1194,21.92,46.83,9.54,1
1195,21.93,34.09,3.44,1
1196,21.95,17.37,-12.65,1
1197,21.96,20.37,-12.99,1
1198,21.97,38.19,0.04,1
1199,21.99,43.12,4.96,1
1200,22.0,29.16,7.54,1
1201,22.01,19.08,13.39,1
1202,22.03,27.15,8.0,1
1203,22.04,32.01,-1.59,1
1204,22.05,18.58,0.71,1
1205,22.07,13.44,5.81,1
1206,22.08,29.24,3.08,1
1207,22.09,41.54,-3.67,1
1208,22.11,37.76,-7.57,1
1209,22.12,25.81,-4.54,1
1210,22.13,13.03,1.49,1
1211,22.15,6.56,3.86,1
1212,22.16,11.62,7.4,2
1213,22.17,21.56,12.49,2
1214,22.18,33.66,7.58,2
1215,22.2,78.02,3.07,2
1216,22.21,176.66,18.7,2
1217,22.22,285.32,37.36,2
1218,22.24,351.67,34.3,2
1219,22.25,376.91,21.79,2
1220,22.26,367.4,19.5,2
1221,22.28,320.23,17.09,2
1222,22.29,262.39,-2.18,2
1223,22.3,222.08,-22.48,2
1224,22.32,190.24,-17.18,2
1225,22.33,152.86,1.68,2
1226,22.34,115.79,7.36,2
1227,22.36,64.95,0.15,2
1228,22.37,-50.67,-11.22,2
1229,22.38,-218.38,-21.4,2
1230,22.4,-331.06,-24.02,2
1231,22.41,-349.74,-21.64,2
1232,22.42,-342.3,-22.99,2
1233,22.44,-342.93,-27.69,2
1234,22.45,-333.65,-25.1,2
1235,22.46,-316.33,-15.73,2
1236,22.48,-305.93,-12.07,2
1237,22.49,-293.18,-12.84,2
1238,22.5,-265.38,-9.5,2
1239,22.52,-237.4,-4.93,2
1240,22.53,-222.03,-2.84,2
1241,22.55,-202.83,-3.31,1
1242,22.56,-172.89,-4.66,1
1243,22.57,-151.14,-2.06,1
1244,22.59,-141.72,5.87,1
1245,22.6,-128.32,14.18,1
1246,22.61,-107.98,16.3,1
1247,22.63,-91.22,8.76,1
1248,22.64,-76.36,-6.59,1
1249,22.65,-63.1,-15.65,1
1250,22.67,-56.38,-5.78,1
1251,22.68,-43.27,5.24,1
1252,22.69,-21.55,-2.0,1
1253,22.71,-13.84,-10.36,1
1254,22.72,-16.62,-5.41,1
1255,22.73,-6.75,-1.91,1
1256,22.75,9.83,-5.58,1
1257,22.76,18.63,-4.13,1
1258,22.77,25.72,3.38,1
1259,22.79,35.83,5.37,1
1260,22.8,41.73,2.91,1
1261,22.81,42.06,4.0,1
1262,22.82,41.8,4.29,1
1263,22.84,45.04,2.6,1
1264,22.85,54.2,5.02,1
1265,22.86,62.27,8.32,1
1266,22.88,62.85,11.26,1
1267,22.89,64.49,13.0,1
1268,22.9,70.75,5.28,1
1269,22.92,69.86,-6.64,1
1270,22.93,64.61,-10.01,1
1271,22.94,70.98,-8.4,1
1272,22.96,81.19,-6.52,1
1273,22.97,78.56,1.97,1
1274,22.98,67.63,11.01,1
1275,23.0,61.23,5.88,1
1276,23.01,65.16,-7.23,1
1277,23.02,79.18,-11.3,1
1278,23.04,92.28,-7.42,1
1279,23.05,88.54,-7.54,1
1280,23.06,72.17,-8.18,1
1281,23.08,65.01,1.03,1
1282,23.09,68.97,12.07,1
1283,23.1,71.14,13.82,1
1284,23.12,70.16,13.9,1
1285,23.13,68.75,14.92,1
1286,23.14,67.41,4.2,1
1287,23.16,65.49,-9.58,1
1288,23.17,60.74,-7.79,1
1289,23.19,56.37,1.24,1
1290,23.2,55.29,8.23,1
1291,23.21,56.68,15.13,1
1292,23.23,58.27,14.22,1
1293,23.24,54.95,4.66,1
1294,23.25,50.08,-1.11,1
1295,23.27,53.43,1.54,1
1296,23.28,60.24,4.36,1
1297,23.29,56.39,0.4,1
1298,23.31,37.66,-1.79,1
1299,23.32,18.93,6.79,1
1300,23.33,19.84,14.49,1
1301,23.35,30.71,12.09,1
1302,23.36,25.74,3.49,1
1303,23.37,12.71,-8.1,1
1304,23.39,17.15,-12.72,1
1305,23.4,28.21,-3.53,1
1306,23.41,23.44,6.1,1
1307,23.43,14.09,5.15,1
1308,23.44,15.25,-0.15,1
1309,23.45,15.14,-0.55,1
1310,23.46,6.93,4.32,1
1311,23.48,3.53,11.44,1
1312,23.49,7.01,14.01,1
1313,23.5,7.68,4.1,1
1314,23.52,2.5,-7.32,1
1315,23.53,-9.89,-2.29,1
1316,23.54,-22.42,10.9,1
1317,23.56,-15.9,12.61,1
1318,23.57,5.75,5.18,1
1319,23.58,15.61,2.37,1
1320,23.6,7.15,3.09,1
1321,23.61,-9.08,0.34,1
1322,23.62,-22.04,-1.51,1
1323,23.64,-17.09,2.75,1
1324,23.65,3.36,4.73,1
1325,23.67,12.8,-0.39,1
1326,23.68,-3.76,-0.92,1
1327,23.69,-28.09,4.01,1
1328,23.7,-34.37,0.24,1
1329,23.72,-23.33,-8.25,1
1330,23.73,-14.35,-8.03,1
1331,23.75,-13.89,-3.36,1
1332,23.76,-17.3,0.1,1
1333,23.77,-24.26,1.59,1
1334,23.78,-31.97,-6.79,1
1335,23.8,-32.88,-18.08,1
1336,23.81,-27.65,-15.0,1
1337,23.83,-21.72,-4.55,1
1338,23.84,-19.68,-1.16,1
1339,23.85,-25.2,-1.74,1
1340,23.87,-33.81,-1.94,1
1341,23.88,-36.42,-1.49,1
1342,23.89,-34.04,-1.19,1
1343,23.91,-35.49,-6.17,1
1344,23.92,-38.64,-11.67,1
1345,23.93,-32.01,-8.99,1
1346,23.95,-25.86,-5.94,1
1347,23.96,-39.77,-9.67,1
1348,23.97,-52.43,-13.96,1
1349,23.99,-35.67,-14.24,1
1350,24.0,-10.86,-10.78,1
1351,24.01,-11.17,-4.43,1
1352,24.03,-28.64,-0.07,1
1353,24.04,-32.15,-1.38,1
1354,24.05,-20.12,-0.31,1
1355,24.07,-16.7,7.35,1
1356,24.08,-23.36,11.58,1
1357,24.09,-26.71,5.1,1
1358,24.1,-30.6,-1.54,1
1359,24.12,-35.76,9.18,1
1360,24.13,-31.69,35.97,1
1361,24.14,-14.91,67.32,1
1362,24.16,23.34,139.93,1
1363,24.17,48.7,303.61,1
1364,24.18,-37.18,452.5,1
1365,24.2,-182.77,404.6,1
1366,24.21,-160.79,232.29,1
1367,24.22,97.73,181.69,1
1368,24.24,396.12,260.52,1
1369,24.25,491.92,272.92,1
1370,24.26,370.23,188.12,1
1371,24.28,257.63,128.84,1
1372,24.29,256.13,117.53,1
1373,24.3,209.04,94.1,1
1374,24.32,34.27,53.37,1
1375,24.33,-165.54,23.37,1
1376,24.34,-273.62,4.04,1
1377,24.36,-233.93,-18.17,1
1378,24.37,-203.71,-42.3,1
1379,24.38,-287.76,-61.89,1
1380,24.4,-209.65,-77.9,1
1381,24.41,14.88,-94.13,1
1382,24.42,-61.61,-109.79,1
1383,24.44,-367.09,-122.62,1
1384,24.45,-350.69,-133.43,1
1385,24.465,11.17,-143.81,1
1386,24.48,203.04,-153.09,1
1387,24.49,31.32,-160.07,1
1388,24.51,-258.31,-165.8,1
1389,24.52,-438.14,-171.44,1
1390,24.53,-443.38,-176.39,1
1391,24.55,-274.05,-179.65,1
1392,24.56,-63.79,-181.36,1
1393,24.57,-93.23,-182.25,1
1394,24.59,-327.49,-182.52,1
1395,24.6,-370.83,-182.55,1
1396,24.61,-158.13,-182.18,1
1397,24.63,-16.56,-180.62,1
1398,24.64,-1.89,-177.91,1
1399,24.65,106.96,-174.54,1
1400,24.67,272.87,-171.07,1
1401,24.68,233.91,-167.52,1
1402,24.69,-68.76,-163.3,1
1403,24.71,-279.63,-158.23,1
1404,24.72,-64.82,-152.5,1
1405,24.73,271.48,-147.04,1
1406,24.75,352.62,-147.01,1
1407,24.76,307.69,-178.54,1
1408,24.77,202.69,-259.22,1
1409,24.78,33.96,-324.83,1
1410,24.8,13.94,-281.89,1
1411,24.81,153.14,-186.87,1
1412,24.82,210.61,-246.27,1
1413,24.84,156.77,-437.55,1
1414,24.85,222.77,-428.46,1
1415,24.86,395.76,-184.82,1
1416,24.88,342.27,-3.81,1
1417,24.89,-1.26,57.91,1
1418,24.9,-285.18,65.39,1
1419,24.92,-227.64,-2.95,1
1420,24.93,-16.88,-37.4,1
1421,24.94,-9.06,70.3,1
1422,24.96,-116.11,150.6,1
1423,24.97,-111.87,10.62,1
1424,24.98,-97.15,-177.03,1
1425,25.0,-157.35,-177.39,1
1426,25.01,-188.26,-137.56,1
1427,25.02,-152.65,-240.05,1
1428,25.04,-150.52,-390.49,1
1429,25.05,-223.54,-485.75,1
1430,25.06,-259.33,-503.3,1
1431,25.08,-199.32,-425.94,1
1432,25.09,-132.15,-312.08,1
1433,25.1,-111.01,-237.92,1
1434,25.12,-93.98,-188.48,1
1435,25.13,-43.04,-125.87,1
1436,25.15,54.86,-59.52,1
1437,25.16,182.48,-6.32,1
1438,25.17,277.46,39.8,1
1439,25.19,312.32,86.18,1
1440,25.2,325.76,129.56,1
1441,25.21,341.93,167.3,1
1442,25.23,348.34,201.8,1
1443,25.24,339.55,234.04,1
1444,25.25,325.48,262.9,1
1445,25.27,305.68,288.38,1
1446,25.28,274.21,311.02,1
1447,25.29,249.91,331.23,1
1448,25.31,248.52,349.05,1
1449,25.32,247.44,375.83,1
1450,25.33,223.97,439.75,1
1451,25.35,190.05,535.75,1
1452,25.36,171.44,605.69,1
1453,25.37,178.64,621.47,1
1454,25.38,195.19,611.27,1
1455,25.4,187.34,601.3,1
1456,25.41,141.54,598.11,1
1457,25.42,86.94,587.86,1
1458,25.44,56.91,558.05,1
1459,25.45,45.4,531.83,1
1460,25.46,26.83,519.83,1
1461,25.48,3.41,495.88,1
1462,25.49,-7.21,457.97,1
1463,25.5,-12.34,422.97,1
1464,25.52,-23.47,388.14,1
1465,25.53,-34.98,358.06,1
1466,25.54,-45.86,340.47,1
1467,25.56,-57.05,322.98,1
1468,25.57,-60.54,295.73,1
1469,25.58,-57.73,260.38,1
1470,25.6,-59.74,229.96,1
1471,25.61,-71.14,217.73,1
1472,25.62,-84.99,205.7,1
1473,25.64,-90.6,177.59,1
1474,25.65,-90.33,152.67,1
1475,25.67,-97.03,137.18,1
1476,25.68,-106.02,113.1,1
1477,25.69,-103.79,83.75,1
1478,25.7,-101.79,63.3,1
1479,25.72,-115.4,43.72,1
1480,25.73,-131.4,20.95,1
1481,25.75,-131.64,6.87,1
1482,25.76,-122.04,-4.61,1
1483,25.77,-120.57,-23.82,1
1484,25.79,-127.07,-39.73,1
1485,25.8,-126.69,-52.16,1
1486,25.81,-119.78,-72.54,1
1487,25.83,-115.5,-90.97,1
1488,25.84,-112.95,-95.85,1
1489,25.85,-112.44,-101.58,1
1490,25.87,-117.34,-122.13,1
1491,25.88,-121.02,-147.29,1
1492,25.89,-113.67,-162.1,1
1493,25.91,-101.38,-166.12,1
1494,25.92,-98.16,-169.86,1
1495,25.93,-102.46,-178.96,1
1496,25.95,-104.1,-185.2,1
1497,25.96,-99.61,-184.18,1
1498,25.97,-92.75,-184.34,1
1499,25.99,-90.43,-193.0,1
1500,26.0,-91.49,-205.6,1
1501,26.01,-87.59,-210.15,1
1502,26.02,-79.89,-207.35,1
1503,26.04,-78.06,-209.98,1
1504,26.05,-82.23,-219.15,1
1505,26.06,-80.74,-226.3,1
1506,26.08,-69.3,-225.29,1
1507,26.09,-54.8,-213.92,1
1508,26.1,-44.03,-203.04,1
1509,26.12,-43.96,-205.3,1
1510,26.13,-54.0,-212.16,1
1511,26.14,-56.07,-210.64,1
1512,26.16,-39.61,-207.8,2
1513,26.17,-18.54,-211.34,2
1514,26.18,15.62,-206.95,2
1515,26.2,111.94,-186.95,2
1516,26.21,265.4,-171.14,2
1517,26.22,374.15,-172.26,2
1518,26.24,368.42,-178.71,2
1519,26.25,302.37,-178.2,2
1520,26.26,253.75,-170.95,2
1521,26.28,217.69,-167.88,2
1522,26.29,146.91,-172.22,2
1523,26.3,43.48,-174.38,2
1524,26.32,-40.48,-175.27,2
1525,26.33,-85.76,-175.48,2
1526,26.34,-122.03,-168.59,2
1527,26.36,-157.98,-162.76,2
1528,26.37,-180.36,-158.12,2
1529,26.38,-197.12,-145.55,2
1530,26.4,-213.52,-142.38,2
1531,26.41,-215.29,-155.15,2
1532,26.43,-204.91,-156.04,2
1533,26.44,-197.46,-138.73,2
1534,26.45,-191.27,-120.47,2
1535,26.47,-178.69,-107.02,2
1536,26.48,-165.43,-99.81,2
1537,26.49,-160.98,-98.48,2
1538,26.51,-161.1,-95.74,2
1539,26.52,-154.87,-84.29,2
1540,26.53,-140.5,-66.09,2
1541,26.55,-123.45,-54.12,1
1542,26.56,-105.96,-51.03,1
1543,26.57,-86.16,-44.09,1
1544,26.59,-67.04,-35.63,1
1545,26.6,-52.98,-34.31,1
1546,26.61,-41.89,-31.0,1
1547,26.63,-32.72,-23.87,1
1548,26.64,-22.46,-18.64,1
1549,26.65,-2.22,-9.41,1
1550,26.67,20.74,-0.63,1
1551,26.68,27.65,-1.6,1
1552,26.69,25.64,-7.07,1
1553,26.7,35.84,-8.5,1
1554,26.72,51.88,-1.84,1
1555,26.73,56.87,8.41,1
1556,26.75,55.54,11.68,1
1557,26.76,58.41,11.2,1
1558,26.77,67.68,20.47,1
1559,26.78,80.9,34.59,1
1560,26.8,89.94,36.44,1
1561,26.81,90.45,34.64,1
1562,26.82,89.54,48.12,1
1563,26.84,90.81,63.32,1
1564,26.85,89.54,61.5,1
1565,26.86,90.47,53.67,1
1566,26.88,101.03,50.35,1
1567,26.89,109.36,48.29,1
1568,26.9,103.56,53.45,1
1569,26.92,93.41,64.4,1
1570,26.93,93.45,63.49,1
1571,26.94,99.82,56.37,1
1572,26.96,100.38,62.86,1
1573,26.97,97.44,77.04,1
1574,26.98,101.0,85.41,1
1575,27.0,109.83,85.99,1
1576,27.01,114.15,82.56,1
1577,27.02,108.11,81.81,1
1578,27.04,97.37,85.26,1
1579,27.05,94.46,87.15,1
1580,27.07,100.19,81.08,1
1581,27.08,101.62,70.42,1
1582,27.09,98.03,70.81,1
1583,27.11,94.37,79.45,1
1584,27.12,83.54,76.88,1
1585,27.13,71.71,67.21,1
1586,27.15,74.51,63.5,1
1587,27.16,80.95,62.12,1
1588,27.17,73.83,64.32,1
1589,27.19,61.98,73.41,1
1590,27.2,59.74,80.71,1
1591,27.21,62.96,82.1,1
1592,27.23,63.35,82.23,1
1593,27.24,59.36,80.97,1
1594,27.25,47.8,73.77,1
1595,27.27,34.16,63.9,1
1596,27.28,34.41,62.07,1
1597,27.29,44.32,69.29,1
1598,27.3,43.69,73.32,1
1599,27.32,33.19,64.98,1
1600,27.33,28.42,51.16,1
1601,27.34,30.31,46.46,1
1602,27.36,26.44,51.05,1
1603,27.37,12.6,52.96,1
1604,27.38,4.67,50.54,1
1605,27.4,9.75,50.36,1
1606,27.41,13.38,53.05,1
1607,27.42,11.85,51.27,1
1608,27.44,12.15,40.53,1
1609,27.45,10.14,32.56,1
1610,27.46,0.48,35.79,1
1611,27.48,-9.71,36.18,1
1612,27.49,-12.31,28.06,1
1613,27.5,-11.83,28.59,1
1614,27.52,-15.34,40.66,1
1615,27.53,-16.35,44.72,1
1616,27.54,-10.54,32.49,1
1617,27.56,-10.71,18.03,1
1618,27.57,-20.29,14.17,1
1619,27.58,-26.2,19.1,1
1620,27.6,-29.26,23.01,1
1621,27.61,-35.98,17.47,1
1622,27.62,-37.31,6.9,1
1623,27.64,-29.44,5.52,1
1624,27.65,-24.89,10.7,1
1625,27.67,-30.68,10.16,1
1626,27.68,-36.49,8.92,1
1627,27.69,-30.99,8.91,1
1628,27.7,-21.24,0.46,1
1629,27.72,-23.59,-9.46,1
1630,27.73,-35.95,-7.57,1
1631,27.75,-40.69,1.06,1
1632,27.76,-33.83,4.38,1
1633,27.77,-28.34,1.15,1
1634,27.79,-29.04,-1.05,1
1635,27.8,-28.84,-2.45,1
1636,27.81,-29.23,-9.2,1
1637,27.83,-37.31,-14.75,1
1638,27.84,-45.45,-12.32,1
1639,27.85,-39.38,-6.52,1
1640,27.87,-28.94,-0.36,1
1641,27.88,-32.2,1.38,1
1642,27.89,-38.36,-8.4,1
1643,27.91,-32.27,-21.67,1
1644,27.92,-28.28,-26.62,1
1645,27.93,-36.8,-24.84,1
1646,27.94,-43.62,-19.44,1
1647,27.96,-40.9,-14.46,1
1648,27.97,-34.88,-15.71,1
1649,27.98,-31.74,-19.24,1
1650,28.0,-30.2,-18.54,1
1651,28.01,-27.34,-17.37,1
1652,28.02,-28.24,-22.72,1
1653,28.04,-31.06,-27.85,1
1654,28.05,-30.03,-22.27,1
1655,28.06,-32.72,-18.22,1
1656,28.08,-37.03,-25.62,1
1657,28.09,-28.07,-29.95,1
1658,28.1,-15.38,-27.85,1
1659,28.12,-18.85,-28.75,1
1660,28.13,-28.44,-28.51,1
1661,28.14,-25.9,-25.69,1
1662,28.16,-20.8,-28.79,0
1663,28.17,-27.38,-31.39,0
1664,28.18,-34.84,-24.49,0
1665,28.2,-31.98,-16.52,0
1666,28.21,-29.18,-14.25,0
1667,28.22,-37.98,-20.02,0
1668,28.24,-62.25,-28.51,0
1669,28.25,-103.96,-21.04,0
1670,28.26,-150.89,-3.05,0
1671,28.28,-180.8,-3.8,0
1672,28.29,-200.77,-19.6,0
1673,28.3,-235.8,-25.72,0
1674,28.32,-275.47,-27.92,0
1675,28.33,-294.6,-37.68,0
1676,28.34,-296.06,-42.01,0
1677,28.36,-281.78,-41.93,0
1678,28.37,-242.85,-53.89,0
1679,28.39,-193.53,-65.75,0
1680,28.4,-152.12,-57.25,0
1681,28.41,-94.12,-34.71,0
1682,28.43,24.62,-12.9,0
1683,28.44,183.3,0.5,0
1684,28.45,294.46,5.27,0
1685,28.47,323.96,9.36,0
1686,28.48,323.72,16.85,0
1687,28.49,329.2,22.33,0
1688,28.51,325.48,20.53,0
1689,28.52,304.19,9.6,0
1690,28.53,277.41,-3.71,0
1691,28.55,254.73,-3.68,1
1692,28.56,241.51,10.52,1
1693,28.57,234.32,20.6,1
1694,28.58,214.13,20.0,1
1695,28.6,165.82,19.22,1
1696,28.61,107.61,19.81,1
1697,28.62,83.8,11.52,1
1698,28.64,103.8,-2.79,1
1699,28.65,120.4,-6.59,1
1700,28.67,105.14,4.24,1
1701,28.68,87.09,13.55,1
1702,28.69,87.51,4.03,1
1703,28.7,88.65,-13.0,1
1704,28.72,78.54,-13.59,1
1705,28.73,67.04,-1.85,1
1706,28.75,59.59,6.65,1
1707,28.76,52.43,8.99,1
1708,28.77,41.47,4.89,1
1709,28.78,26.16,-2.9,1
1710,28.8,13.18,-8.98,1
1711,28.81,7.98,-14.36,1
1712,28.82,5.24,-18.23,1
1713,28.84,-1.88,-11.77,1
1714,28.85,-13.9,1.75,1
1715,28.86,-28.52,4.31,1
1716,28.88,-38.33,-4.43,1
1717,28.89,-36.32,-9.76,1
1718,28.9,-28.81,-12.02,1
1719,28.92,-25.93,-13.82,1
1720,28.93,-29.89,-8.06,1
1721,28.94,-41.38,-0.02,1
1722,28.96,-58.82,1.51,1
1723,28.97,-71.5,3.6,1
1724,28.98,-72.36,10.57,1
1725,29.0,-68.63,13.83,1
1726,29.01,-64.97,7.16,1
1727,29.03,-58.71,-0.4,1
1728,29.04,-53.57,4.2,1
1729,29.05,-53.31,12.2,1
1730,29.07,-59.02,8.16,1
1731,29.08,-69.44,0.39,1
1732,29.09,-73.1,1.85,1
1733,29.11,-65.8,6.9,1
1734,29.12,-62.4,5.02,1
1735,29.13,-70.53,-2.27,1
1736,29.15,-77.91,-6.18,1
1737,29.16,-76.36,-5.8,1
1738,29.17,-73.85,-2.4,1
1739,29.19,-73.2,5.41,1
1740,29.2,-69.22,8.84,1
1741,29.21,-68.74,4.89,1
1742,29.22,-72.14,7.89,1
1743,29.24,-62.77,15.87,1
1744,29.25,-48.35,10.36,1
1745,29.26,-50.7,-6.79,1
1746,29.28,-53.99,-18.32,1
1747,29.29,-39.14,-18.16,1
1748,29.3,-30.85,-9.86,1
1749,29.32,-46.5,3.85,1
1750,29.33,-60.19,13.61,1
1751,29.34,-54.7,12.57,1
1752,29.36,-43.34,9.25,1
1753,29.37,-37.11,4.2,1
1754,29.38,-35.98,-4.53,1
1755,29.4,-36.52,-2.3,1
1756,29.41,-34.06,7.95,1
1757,29.42,-27.62,8.01,1
1758,29.44,-23.2,3.38,1
1759,29.45,-22.69,3.68,1
1760,29.46,-20.75,5.05,1
1761,29.48,-17.85,5.37,1
1762,29.49,-17.07,1.29,1
1763,29.5,-18.67,-7.57,1
1764,29.52,-22.26,-6.12,1
1765,29.53,-20.43,5.74,1
1766,29.54,-8.31,6.01,1
1767,29.56,0.82,-0.15,1
1768,29.57,-5.92,6.89,1
1769,29.58,-14.28,11.34,1
1770,29.6,-5.63,-1.19,1
1771,29.61,6.69,-4.91,1
1772,29.62,6.89,12.23,1
1773,29.64,6.04,20.59,1
1774,29.65,11.24,5.23,1
1775,29.67,12.02,-7.02,1
1776,29.68,7.9,0.1,1
1777,29.69,11.23,5.12,1
1778,29.71,19.53,-3.55,1
1779,29.72,19.44,-7.44,1
1780,29.73,11.44,2.7,1
1781,29.75,4.71,13.4,1
1782,29.76,6.74,10.09,1
1783,29.77,17.8,-5.76,1
1784,29.79,24.85,-15.2,1
1785,29.8,22.54,-6.22,1
1786,29.81,22.6,4.43,1
1787,29.83,26.74,0.26,1
1788,29.84,24.13,-4.21,1
1789,29.85,14.47,1.63,1
1790,29.86,7.77,3.9,1
1791,29.88,8.19,0.7,1
1792,29.89,13.31,0.27,1
1793,29.9,22.6,-0.26,1
1794,29.92,31.52,0.87,1
1795,29.93,35.06,8.76,1
1796,29.94,38.17,16.53,1
1797,29.96,39.31,14.7,1
1798,29.97,29.26,4.31,1
1799,29.98,19.83,-1.65,1
1800,30.0,27.26,5.12,1
1801,30.01,34.66,11.9,1
1802,30.02,26.05,5.66,1
1803,30.04,20.6,-5.83,1
1804,30.05,26.47,-6.23,1
1805,30.06,25.67,4.88,1
1806,30.08,18.73,5.7,1
1807,30.09,18.59,-11.82,1
1808,30.1,22.8,-21.96,1
1809,30.12,26.12,-11.52,1
1810,30.13,27.58,-0.4,1
1811,30.14,23.63,1.34,1
1812,30.16,17.61,1.51,0
1813,30.17,19.2,0.89,0
1814,30.18,25.44,0.38,0
1815,30.2,18.81,-3.45,0
1816,30.21,-32.96,-20.76,0
1817,30.22,-152.58,-38.59,0
1818,30.24,-290.59,-36.89,0
1819,30.25,-360.1,-26.35,0
1820,30.26,-348.76,-20.28,0
1821,30.28,-306.4,-6.65,0
1822,30.29,-255.16,16.95,0
1823,30.3,-185.54,31.48,0
1824,30.32,-101.21,32.28,0
1825,30.33,-23.27,28.17,0
1826,30.35,39.24,18.79,0
1827,30.36,96.97,5.67,0
1828,30.37,149.46,-1.25,0
1829,30.39,183.48,1.67,0
1830,30.4,203.6,7.58,0
1831,30.41,220.87,8.2,0
1832,30.43,232.85,8.21,0
1833,30.44,238.31,19.66,0
1834,30.45,238.33,30.48,0
1835,30.47,231.39,18.47,0
1836,30.48,222.66,-1.59,0
1837,30.49,215.77,-6.18,0
1838,30.5,206.33,-6.5,0
1839,30.52,197.48,-11.21,0
1840,30.53,195.16,-9.6,0
1841,30.54,189.25,-2.87,0
1842,30.56,171.74,2.38,1
1843,30.57,150.49,6.9,1
1844,30.58,125.49,9.38,1
1845,30.6,98.18,7.36,1
1846,30.61,90.61,0.8,1
1847,30.62,104.98,-4.29,1
1848,30.64,108.97,-1.35,1
1849,30.65,89.51,3.61,1
1850,30.67,68.42,4.71,1
1851,30.68,53.6,6.88,1
1852,30.69,32.83,12.83,1
1853,30.7,18.73,17.62,1
1854,30.72,26.24,11.97,1
1855,30.73,27.63,-7.05,1
1856,30.75,1.29,-22.45,1
1857,30.76,-26.27,-13.78,1
1858,30.77,-31.13,8.52,1
1859,30.78,-26.09,14.76,1
1860,30.8,-27.95,3.88,1
1861,30.81,-35.66,-4.48,1
1862,30.82,-46.99,-8.11,1
1863,30.84,-64.4,-13.14,1
1864,30.85,-81.63,-17.06,1
1865,30.86,-86.54,-14.43,1
1866,30.88,-74.73,-6.18,1
1867,30.89,-57.27,-1.39,1
1868,30.9,-51.33,-1.54,1
1869,30.92,-57.61,-0.4,1
1870,30.93,-64.98,1.21,1
1871,30.94,-70.79,3.47,1
1872,30.96,-76.64,7.82,1
1873,30.97,-77.79,6.99,1
1874,30.99,-74.42,-0.31,1
1875,31.0,-75.7,-3.42,1
1876,31.01,-80.18,-2.0,1
1877,31.03,-80.45,-5.11,1
1878,31.04,-81.55,-5.63,1
1879,31.05,-85.44,2.91,1
1880,31.07,-83.9,5.79,1
1881,31.08,-80.28,-1.23,1
1882,31.09,-79.58,-4.04,1
1883,31.11,-72.37,0.32,1
1884,31.12,-60.37,1.47,1
1885,31.13,-61.64,-7.29,1
1886,31.14,-75.91,-16.91,1
1887,31.16,-80.33,-12.81,1
1888,31.17,-67.73,-1.4,1
1889,31.18,-57.12,1.3,1
1890,31.2,-60.56,-1.62,1
1891,31.21,-66.48,-2.17,1
1892,31.22,-62.69,-3.66,1
1893,31.24,-56.93,-8.79,1
1894,31.25,-58.23,-12.99,1
1895,31.26,-61.13,-11.7,1
1896,31.28,-65.33,-6.15,1
1897,31.29,-71.11,-3.86,1
1898,31.3,-63.12,-8.12,1
1899,31.32,-43.43,-7.99,1
1900,31.33,-38.28,2.81,1
1901,31.34,-49.59,10.8,1
1902,31.36,-56.12,5.64,1
1903,31.37,-49.3,-4.81,1
1904,31.38,-34.49,-4.8,1
1905,31.4,-21.43,7.32,1
1906,31.41,-19.01,12.85,1
1907,31.42,-25.44,5.98,1
1908,31.44,-29.93,-1.87,1
1909,31.45,-26.62,-7.15,1
1910,31.46,-21.04,-6.56,1
1911,31.48,-18.69,0.25,1
1912,31.49,-17.1,0.48,1
1913,31.5,-15.64,-10.41,1
1914,31.52,-18.33,-17.63,1
1915,31.53,-21.91,-11.89,1
1916,31.54,-15.62,-5.17,1
1917,31.56,1.03,-6.24,1
1918,31.57,9.85,-10.87,1
1919,31.58,3.32,-13.98,1
1920,31.6,1.9,-8.61,1
1921,31.61,11.33,0.74,1
1922,31.63,13.89,-0.16,1
1923,31.64,11.68,-5.23,1
1924,31.65,17.65,-1.79,1
1925,31.67,22.57,0.56,1
1926,31.68,18.16,-4.49,1
1927,31.69,14.94,-5.31,1
1928,31.71,19.07,-1.41,1
1929,31.72,22.38,-2.43,1
1930,31.73,16.76,-6.05,1
1931,31.75,9.74,-4.36,1
1932,31.76,13.03,5.66,1
1933,31.77,18.22,16.03,1
1934,31.78,16.91,16.36,1
1935,31.8,20.61,11.21,1
1936,31.81,32.51,6.23,1
1937,31.82,38.79,-3.82,1
1938,31.84,32.95,-12.38,1
1939,31.85,23.28,-8.83,1
1940,31.86,25.81,-4.85,1
1941,31.88,40.68,-5.61,1
1942,31.89,43.41,0.08,1
1943,31.9,26.41,5.18,1
1944,31.92,15.35,1.27,1
1945,31.93,21.11,-0.49,1
1946,31.94,25.37,-1.16,1
1947,31.96,26.11,-7.72,1
1948,31.97,38.1,-4.46,1
1949,31.98,49.19,12.35,1
1950,32.0,43.5,16.94,1
1951,32.01,35.82,5.71,1
1952,32.03,35.53,-1.19,1
1953,32.04,33.13,0.59,1
1954,32.05,27.36,1.97,1
1955,32.06,22.23,2.15,1
1956,32.08,19.84,5.2,1
1957,32.09,20.21,7.83,1
1958,32.11,18.62,6.4,1
1959,32.12,17.71,6.81,1
1960,32.13,23.6,11.48,1
1961,32.15,29.93,10.34,1
1962,32.16,32.23,1.08,2
1963,32.17,35.0,-1.58,2
1964,32.19,33.94,4.46,2
1965,32.2,24.35,9.07,2
1966,32.21,23.29,20.51,2
1967,32.22,72.41,42.07,2
1968,32.24,189.71,51.58,2
1969,32.25,316.65,43.21,2
1970,32.27,383.26,36.28,2
1971,32.28,384.91,34.99,2
1972,32.29,347.66,24.68,2
1973,32.31,295.44,4.14,2
1974,32.32,249.33,-9.21,2
1975,32.33,213.27,-12.82,2
1976,32.35,178.18,-19.71,2
1977,32.36,141.87,-27.6,2
1978,32.37,105.7,-25.77,2
1979,32.39,46.14,-17.82,2
1980,32.4,-80.89,-15.05,2
1981,32.41,-251.63,-20.78,2
1982,32.43,-362.23,-25.42,2
1983,32.44,-375.9,-18.56,2
1984,32.45,-361.0,-7.57,2
1985,32.47,-361.88,-9.46,2
1986,32.48,-359.08,-17.78,2
1987,32.49,-335.99,-12.81,2
1988,32.51,-305.42,-3.54,2
1989,32.52,-281.7,-7.29,2
1990,32.53,-258.78,-15.98,2
1991,32.54,-233.07,-16.68,2
1992,32.56,-213.31,-9.21,1
1993,32.57,-191.44,-1.14,1
1994,32.59,-158.81,2.93,1
1995,32.6,-134.15,5.5,1
1996,32.61,-126.92,2.76,1
1997,32.63,-118.41,-8.02,1
1998,32.64,-98.83,-11.56,1
1999,32.65,-79.43,-2.59,1
2000,32.67,-64.14,1.64,1
2001,32.68,-50.34,0.99,1
2002,32.69,-44.21,7.14,1
2003,32.71,-39.78,8.9,1
2004,32.72,-15.05,1.09,1
2005,32.73,22.67,1.2,1
2006,32.75,36.26,7.0,1
2007,32.76,21.24,3.48,1
2008,32.77,15.55,-0.37,1
2009,32.79,30.0,3.14,1
2010,32.8,37.09,3.36,1
2011,32.81,33.58,-2.22,1
2012,32.83,42.06,-7.19,1
2013,32.84,58.08,-9.09,1
2014,32.85,62.42,-6.78,1
2015,32.87,61.17,-3.69,1
2016,32.88,65.47,-4.07,1
2017,32.89,69.22,-2.27,1
2018,32.9,68.7,5.85,1
2019,32.92,67.98,10.84,1
2020,32.93,69.57,7.63,1
2021,32.95,73.46,5.44,1
2022,32.96,77.69,8.99,1
2023,32.97,76.1,9.58,1
2024,32.99,68.21,-0.72,1
2025,33.0,63.69,-11.41,1
2026,33.01,66.37,-3.95,1
2027,33.03,70.53,13.58,1
2028,33.04,70.02,18.04,1
2029,33.05,66.97,12.99,1
2030,33.06,67.74,14.58,1
2031,33.08,67.74,18.03,1
2032,33.09,61.13,11.15,1
2033,33.11,57.17,1.4,1
2034,33.12,64.74,2.23,1
2035,33.13,73.49,7.37,1
2036,33.15,68.0,6.78,1
2037,33.16,56.62,4.32,1
2038,33.17,60.99,4.87,1
2039,33.19,71.53,2.99,1
2040,33.2,64.22,-4.81,1
2041,33.21,47.89,-9.24,1
2042,33.22,44.04,-4.24,1
2043,33.24,47.82,2.84,1
2044,33.25,47.75,4.01,1
2045,33.27,48.41,-1.27,1
2046,33.28,50.28,-5.39,1
2047,33.29,46.38,0.69,1
2048,33.31,40.96,9.49,1
2049,33.32,38.16,4.41,1
2050,33.33,33.03,-8.71,1
2051,33.35,25.76,-11.53,1
2052,33.36,22.23,-8.66,1
2053,33.37,23.82,-9.11,1
2054,33.38,26.08,-6.65,1
2055,33.4,25.51,-1.79,1
2056,33.41,18.94,0.51,1
2057,33.43,10.41,3.63,1
2058,33.44,10.62,7.32,1
2059,33.45,16.44,8.77,1
2060,33.47,17.86,4.84,1
2061,33.48,18.02,-6.69,1
2062,33.49,19.26,-11.3,1
2063,33.51,16.25,-0.46,1
2064,33.52,6.71,6.55,1
2065,33.53,-6.18,0.3,1
2066,33.54,-14.97,-4.77,1
2067,33.56,-15.03,-1.63,1
2068,33.57,-8.53,0.72,1
2069,33.59,-0.46,-5.19,1
2070,33.6,2.2,-12.4,1
2071,33.61,-3.66,-12.6,1
2072,33.63,-9.58,-10.51,1
2073,33.64,-12.81,-8.75,1
2074,33.65,-19.95,-4.0,1
2075,33.67,-22.92,0.08,1
2076,33.68,-11.89,3.06,1
2077,33.69,-3.18,7.24,1
2078,33.71,-10.16,3.52,1
2079,33.72,-19.32,-5.35,1
2080,33.73,-21.67,-4.77,1
2081,33.75,-24.28,-2.3,1
2082,33.76,-26.24,-6.71,1
2083,33.77,-22.28,-7.72,1
2084,33.79,-17.21,-3.26,1
2085,33.8,-15.46,0.11,1
2086,33.81,-18.26,0.34,1
2087,33.83,-27.01,-3.65,1
2088,33.84,-34.76,-5.39,1
2089,33.85,-34.15,0.74,1
2090,33.87,-31.55,1.38,1
2091,33.88,-32.27,-6.07,1
2092,33.89,-33.59,-3.79,1
2093,33.9,-33.94,4.94,1
2094,33.92,-30.4,7.54,1
2095,33.93,-22.3,5.71,1
2096,33.95,-16.72,-3.26,1
2097,33.96,-16.78,-13.49,1
2098,33.97,-19.18,-7.59,1
2099,33.99,-23.88,6.39,1
2100,34.0,-29.9,9.74,1
2101,34.01,-31.21,3.81,1
2102,34.03,-26.8,-1.75,1
2103,34.04,-22.01,0.98,1
2104,34.05,-24.71,12.25,1
2105,34.06,-34.84,20.04,1
2106,34.08,-39.16,17.11,1
2107,34.09,-34.6,9.49,1
2108,34.11,-30.49,5.59,1
2109,34.12,-25.73,14.67,1
2110,34.13,-17.76,49.17,1
2111,34.15,-16.69,105.62,1
2112,34.16,2.37,181.77,1
2113,34.17,88.47,301.65,1
2114,34.19,108.31,413.67,1
2115,34.2,-72.87,403.07,1
2116,34.21,-161.37,302.65,1
2117,34.23,68.26,241.12,1
2118,34.24,332.03,225.56,1
2119,34.25,415.8,194.08,1
2120,34.27,357.89,146.88,1
2121,34.28,212.33,111.97,1
2122,34.29,110.69,86.46,1
2123,34.31,92.33,57.5,1
2124,34.32,-29.13,27.98,1
2125,34.33,-238.06,3.75,1
2126,34.35,-225.87,-17.9,1
2127,34.36,-78.52,-39.73,1
2128,34.37,-177.28,-60.23,1
2129,34.38,-289.07,-77.59,1
2130,34.4,-79.74,-92.89,1
2131,34.41,56.37,-107.05,1
2132,34.43,-133.48,-119.89,1
2133,34.44,-308.34,-131.64,1
2134,34.45,-291.55,-141.87,1
2135,34.47,-171.54,-150.3,1
2136,34.48,-13.32,-157.41,1
2137,34.49,112.48,-163.66,1
2138,34.51,138.03,-169.32,1
2139,34.52,43.94,-173.83,1
2140,34.53,-64.75,-176.98,1
2141,34.54,-50.37,-178.82,1
2142,34.56,-13.44,-179.73,1
2143,34.57,-88.34,-180.34,1
2144,34.59,-141.47,-180.57,1
2145,34.6,-68.35,-179.32,1
2146,34.61,-11.51,-176.9,1
2147,34.63,-66.39,-174.46,1
2148,34.64,-99.54,-172.39,1
2149,34.65,-44.93,-169.32,1
2150,34.67,-67.95,-164.9,1
2151,34.68,-228.8,-160.32,1
2152,34.69,-358.98,-155.99,1
2153,34.71,-364.25,-151.23,1
2154,34.72,-293.08,-145.82,1
2155,34.73,-192.54,-143.36,1
2156,34.75,-134.96,-146.71,1
2157,34.76,-183.52,-192.68,1
2158,34.77,-225.29,-309.87,1
2159,34.79,-134.89,-374.09,1
2160,34.8,-85.96,-323.21,1
2161,34.81,-186.23,-305.98,1
2162,34.83,-183.78,-367.06,1
2163,34.84,-58.75,-402.97,1
2164,34.85,-37.41,-318.45,1
2165,34.87,-11.91,-166.66,1
2166,34.88,171.7,-155.54,1
2167,34.89,375.28,-275.73,1
2168,34.91,451.69,-216.64,1
2169,34.92,364.78,37.33,1
2170,34.93,214.39,87.45,1
2171,34.95,217.93,1.75,1
2172,34.96,285.95,137.56,1
2173,34.97,107.79,201.83,1
2174,34.99,-64.19,-55.78,1
2175,35.0,180.66,-210.48,1
2176,35.01,461.56,-91.87,1
2177,35.03,357.88,-99.87,1
2178,35.04,192.18,-342.96,1
2179,35.05,241.03,-467.85,1
2180,35.06,302.28,-346.46,1
2181,35.08,223.95,-205.84,1
2182,35.09,77.35,-165.96,1
2183,35.11,-62.53,-136.32,1
2184,35.12,-158.62,-66.98,1
2185,35.13,-172.2,-2.65,1
2186,35.15,-108.25,38.0,1
2187,35.16,-28.68,77.33,1
2188,35.17,24.29,121.91,1
2189,35.19,62.68,160.91,1
2190,35.2,100.24,193.01,1
2191,35.21,125.68,223.77,1
2192,35.22,133.33,253.24,1
2193,35.24,135.52,278.18,1
2194,35.25,143.39,299.06,1
2195,35.27,155.69,318.57,1
2196,35.28,158.91,336.16,1
2197,35.29,143.85,352.72,1
2198,35.31,126.44,384.11,1
2199,35.32,123.5,456.38,1
2200,35.33,126.57,555.36,1
2201,35.35,122.16,615.78,1
2202,35.36,112.04,608.94,1
2203,35.37,109.26,580.61,1
2204,35.38,113.57,568.42,1
2205,35.4,104.34,558.86,1
2206,35.41,76.59,540.72,1
2207,35.43,49.96,523.19,1
2208,35.44,36.47,505.58,1
2209,35.45,29.36,483.39,1
2210,35.47,18.41,460.27,1
2211,35.48,1.49,436.33,1
2212,35.49,-16.96,412.61,1
2213,35.51,-31.04,392.97,1
2214,35.52,-38.58,369.22,1
2215,35.53,-42.8,334.86,1
2216,35.55,-46.79,302.66,1
2217,35.56,-51.28,278.8,1
2218,35.57,-56.58,253.45,1
2219,35.59,-63.16,223.66,1
2220,35.6,-67.07,195.15,1
2221,35.61,-66.87,170.97,1
2222,35.63,-70.08,149.3,1
2223,35.64,-77.22,125.95,1
2224,35.65,-81.05,102.22,1
2225,35.67,-81.62,79.52,1
2226,35.68,-81.38,51.92,1
2227,35.69,-79.67,23.9,1
2228,35.71,-79.97,9.43,1
2229,35.72,-88.08,2.42,1
2230,35.73,-102.36,-16.92,1
2231,35.75,-107.82,-46.79,1
2232,35.76,-97.3,-68.27,1
2233,35.77,-88.39,-76.26,1
2234,35.79,-91.14,-84.38,1
2235,35.8,-91.88,-100.67,1
2236,35.81,-83.93,-114.42,1
2237,35.83,-79.18,-123.0,1
2238,35.84,-84.21,-136.17,1
2239,35.85,-86.66,-147.54,1
2240,35.87,-82.18,-148.29,1
2241,35.88,-82.9,-152.85,1
2242,35.89,-88.33,-174.12,1
2243,35.9,-90.34,-196.73,1
2244,35.92,-86.41,-204.5,1
2245,35.93,-72.32,-204.0,1
2246,35.95,-56.91,-205.84,1
2247,35.96,-58.13,-209.45,1
2248,35.97,-67.86,-210.08,1
2249,35.99,-66.57,-207.9,1
2250,36.0,-59.0,-209.5,1
2251,36.01,-56.89,-216.89,1
2252,36.03,-56.24,-221.99,1
2253,36.04,-51.46,-223.09,1
2254,36.05,-46.29,-223.9,1
2255,36.06,-43.87,-216.73,1
2256,36.08,-43.13,-203.82,1
2257,36.09,-41.74,-201.56,1
2258,36.11,-36.63,-206.68,1
2259,36.12,-31.81,-209.66,1
2260,36.13,-36.02,-210.0,1
2261,36.15,-42.25,-203.34,1
2262,36.16,-38.03,-198.32,2
2263,36.17,-30.81,-203.3,2
2264,36.19,-29.67,-198.27,2
2265,36.2,-16.56,-179.88,2
2266,36.21,45.91,-169.1,2
2267,36.23,172.74,-163.12,2
2268,36.24,314.37,-156.33,2
2269,36.25,386.67,-160.45,2
2270,36.27,361.21,-166.95,2
2271,36.28,291.96,-158.59,2
2272,36.29,232.32,-148.29,2
2273,36.31,176.73,-153.88,2
2274,36.32,105.67,-166.05,2
2275,36.33,26.85,-168.61,2
2276,36.35,-41.8,-165.27,2
2277,36.36,-96.04,-167.41,2
2278,36.37,-136.92,-164.7,2
2279,36.38,-158.91,-143.4,2
2280,36.4,-170.34,-124.35,2
2281,36.41,-187.35,-126.46,2
2282,36.43,-200.76,-128.03,2
2283,36.44,-199.16,-118.04,2
2284,36.45,-196.26,-113.77,2
2285,36.47,-199.76,-111.8,2
2286,36.48,-194.46,-94.05,2
2287,36.49,-180.51,-68.73,2
2288,36.51,-174.68,-56.66,2
2289,36.52,-171.97,-60.16,2
2290,36.53,-162.23,-66.28,2
2291,36.54,-154.29,-62.55,2
2292,36.56,-145.2,-47.66,1
2293,36.57,-123.97,-31.87,1
2294,36.59,-106.72,-23.2,1
2295,36.6,-103.4,-20.33,1
2296,36.61,-89.81,-18.12,1
2297,36.63,-55.01,-12.34,1
2298,36.64,-26.56,-6.54,1
2299,36.65,-22.19,-4.54,1
2300,36.67,-22.25,-1.2,1
2301,36.68,-10.56,7.64,1
2302,36.69,2.05,20.57,1
2303,36.71,9.35,28.01,1
2304,36.72,21.95,23.29,1
2305,36.73,40.63,23.14,1
2306,36.75,49.85,39.19,1
2307,36.76,45.79,51.06,1
2308,36.77,44.37,49.67,1
2309,36.79,55.48,53.09,1
2310,36.8,71.74,62.55,1
2311,36.81,77.95,64.5,1
2312,36.83,75.01,63.75,1
2313,36.84,76.48,67.62,1
2314,36.85,77.48,68.81,1
2315,36.87,73.34,65.99,1
2316,36.88,78.37,62.88,1
2317,36.89,91.25,60.38,1
2318,36.9,95.99,68.95,1
2319,36.92,91.61,84.59,1
2320,36.93,87.69,79.78,1
2321,36.95,87.65,60.24,1
2322,36.96,87.56,62.12,1
2323,36.97,86.56,81.5,1
2324,36.99,88.54,89.18,1
2325,37.0,94.02,85.48,1
2326,37.01,99.45,83.63,1
2327,37.03,99.54,85.2,1
2328,37.04,93.95,87.97,1
2329,37.05,91.37,89.44,1
2330,37.06,93.8,86.66,1
2331,37.08,91.09,78.78,1
2332,37.09,82.3,71.21,1
2333,37.11,76.7,69.02,1
2334,37.12,76.23,64.78,1
2335,37.13,74.49,58.71,1
2336,37.15,69.36,65.3,1
2337,37.16,69.1,76.77,1
2338,37.17,75.77,75.82,1
2339,37.19,74.76,73.4,1
2340,37.2,62.02,75.06,1
2341,37.21,53.06,68.95,1
2342,37.22,52.16,65.64,1
2343,37.24,50.95,75.55,1
2344,37.25,51.66,78.25,1
2345,37.27,55.15,63.45,1
2346,37.28,54.7,47.3,1
2347,37.29,53.7,41.54,1
2348,37.31,53.06,45.66,1
2349,37.32,48.23,52.69,1
2350,37.33,44.78,57.27,1
2351,37.35,38.54,61.93,1
2352,37.36,20.24,59.58,1
2353,37.37,4.69,45.2,1
2354,37.38,6.91,37.87,1
2355,37.4,15.4,43.13,1
2356,37.41,17.54,42.98,1
2357,37.43,15.77,38.03,1
2358,37.44,16.99,37.84,1
2359,37.45,19.87,38.5,1
2360,37.47,13.34,36.67,1
2361,37.48,-1.51,30.89,1
2362,37.49,-4.9,24.5,1
2363,37.51,7.13,23.84,1
2364,37.52,12.57,21.73,1
2365,37.53,2.37,18.63,1
2366,37.54,-4.89,26.3,1
2367,37.56,-4.26,30.17,1
2368,37.57,-9.89,16.09,1
2369,37.59,-19.65,7.15,1
2370,37.6,-21.79,16.68,1
2371,37.61,-15.46,25.34,1
2372,37.63,-7.13,20.64,1
2373,37.64,-8.42,7.24,1
2374,37.65,-23.38,-2.45,1
2375,37.67,-33.49,1.37,1
2376,37.68,-27.61,6.44,1
2377,37.69,-26.18,1.13,1
2378,37.71,-36.12,-0.08,1
2379,37.72,-36.81,9.9,1
2380,37.73,-25.67,13.78,1
2381,37.75,-20.89,2.45,1
2382,37.76,-26.34,-11.29,1
2383,37.77,-31.08,-17.25,1
2384,37.79,-35.87,-18.36,1
2385,37.8,-44.24,-15.56,1
2386,37.81,-46.92,-9.74,1
2387,37.83,-41.44,-12.25,1
2388,37.84,-37.87,-23.94,1
2389,37.85,-39.38,-27.06,1
2390,37.87,-39.55,-18.2,1
2391,37.88,-35.45,-12.27,1
2392,37.89,-31.24,-11.49,1
2393,37.9,-28.16,-10.15,1
2394,37.92,-26.06,-13.82,1
2395,37.93,-25.8,-24.91,1
2396,37.95,-27.31,-31.03,1
2397,37.96,-33.2,-26.85,1
2398,37.97,-42.75,-25.32,1
2399,37.99,-46.63,-29.83,1
2400,38.0,-38.3,-29.11,1
2401,38.01,-27.38,-24.37,1
2402,38.03,-30.0,-25.33,1
2403,38.04,-40.6,-30.58,1
2404,38.05,-41.51,-26.97,1
2405,38.06,-37.12,-12.85,1
2406,38.08,-37.46,-11.53,1
2407,38.09,-32.66,-29.13,1
2408,38.11,-20.58,-34.94,1
2409,38.12,-20.29,-17.97,1
2410,38.13,-32.37,-6.02,1
2411,38.15,-33.88,-13.6,1
2412,38.16,-24.42,-25.58,0
2413,38.17,-25.82,-26.88,0
2414,38.19,-33.87,-18.42,0
2415,38.2,-29.16,-16.83,0
2416,38.21,-21.61,-28.95,0
2417,38.22,-29.29,-29.71,0
2418,38.24,-50.24,-9.45,0
2419,38.25,-98.52,0.04,0
2420,38.27,-191.12,-13.01,0
2421,38.28,-290.08,-18.77,0
2422,38.29,-347.53,-8.86,0
2423,38.31,-366.39,-12.67,0
2424,38.32,-355.47,-36.61,0
2425,38.33,-309.86,-52.14,0
2426,38.35,-252.08,-52.48,0
2427,38.36,-210.97,-57.5,0
2428,38.37,-180.8,-64.68,0
2429,38.38,-146.27,-53.27,0
2430,38.4,-94.56,-31.88,0
2431,38.41,9.16,-22.42,0
2432,38.43,170.41,-17.75,0
2433,38.44,308.84,-7.45,0
2434,38.45,355.64,2.3,0
2435,38.47,346.58,6.59,0
2436,38.48,342.53,4.73,0
2437,38.49,343.82,0.93,0
2438,38.51,331.39,3.58,0
2439,38.52,310.16,9.37,0
2440,38.53,289.1,10.62,0
2441,38.54,269.15,10.18,0
2442,38.56,248.96,7.81,1
2443,38.57,226.33,1.13,1
2444,38.59,202.06,1.03,1
2445,38.6,179.2,15.28,1
2446,38.61,161.62,32.17,1
2447,38.63,149.95,34.25,1
2448,38.64,135.31,18.29,1
2449,38.65,111.47,-0.43,1
2450,38.67,86.74,-8.23,1
2451,38.68,70.22,-7.07,1
2452,38.69,59.36,-6.09,1
2453,38.71,46.74,-11.5,1
2454,38.72,31.41,-16.25,1
2455,38.73,18.23,-10.84,1
2456,38.75,10.08,-3.82,1
2457,38.76,5.6,-4.12,1
2458,38.77,3.51,-6.06,1
2459,38.79,1.93,-3.37,1
2460,38.8,-7.07,0.05,1
2461,38.81,-24.43,-7.57,1
2462,38.83,-35.72,-16.85,1
2463,38.84,-32.92,-6.43,1
2464,38.85,-27.22,6.09,1
2465,38.87,-31.19,-2.97,1
2466,38.88,-41.68,-11.23,1
2467,38.89,-49.46,0.05,1
2468,38.9,-55.9,11.18,1
2469,38.92,-63.75,8.24,1
2470,38.93,-66.31,0.65,1
2471,38.95,-63.87,-2.1,1
2472,38.96,-65.81,1.97,1
2473,38.97,-71.24,10.3,1
2474,38.99,-72.14,17.33,1
2475,39.0,-67.8,16.3,1
2476,39.01,-64.4,5.3,1
2477,39.03,-64.7,-4.4,1
2478,39.04,-65.81,-4.98,1
2479,39.05,-66.06,-4.34,1
2480,39.06,-66.24,-3.43,1
2481,39.08,-66.21,3.22,1
2482,39.09,-66.18,6.41,1
2483,39.11,-68.69,4.49,1
2484,39.12,-71.71,11.68,1
2485,39.13,-69.43,22.37,1
2486,39.15,-65.77,19.82,1
2487,39.16,-67.86,8.95,1
2488,39.17,-70.32,0.91,1
2489,39.19,-65.51,-1.3,1
2490,39.2,-59.37,3.71,1
2491,39.21,-58.66,9.55,1
2492,39.22,-52.12,10.24,1
2493,39.24,-38.51,9.54,1
2494,39.25,-40.12,7.03,1
2495,39.27,-55.1,2.82,1
2496,39.28,-56.7,6.23,1
2497,39.29,-42.56,12.6,1
2498,39.31,-33.08,7.36,1
2499,39.32,-35.09,-2.34,1
2500,39.33,-38.47,2.37,1
2501,39.35,-35.94,18.93,1
2502,39.36,-30.47,24.28,1
2503,39.37,-30.38,9.97,1
2504,39.38,-34.21,-2.92,1
2505,39.4,-30.58,1.76,1
2506,39.41,-23.24,11.77,1
2507,39.43,-21.71,10.24,1
2508,39.44,-17.71,0.09,1
2509,39.45,-10.99,-7.33,1
2510,39.47,-16.01,-6.09,1
2511,39.48,-24.64,1.98,1
2512,39.49,-16.97,4.43,1
2513,39.51,-3.8,0.56,1
2514,39.52,-4.3,0.41,1
2515,39.53,-8.65,-0.61,1
2516,39.54,-3.73,-2.04,1
2517,39.56,3.72,5.12,1
2518,39.57,4.96,11.89,1
2519,39.59,0.15,6.79,1
2520,39.6,-2.43,-4.69,1
2521,39.61,4.1,-11.39,1
2522,39.63,11.1,-10.88,1
2523,39.64,5.32,-7.41,1
2524,39.65,-3.63,-5.79,1
2525,39.67,3.74,-5.36,1
2526,39.68,19.43,1.02,1
2527,39.69,21.87,10.56,1
2528,39.71,10.83,12.2,1
2529,39.72,4.29,9.9,1
2530,39.73,12.0,10.89,1
2531,39.75,21.91,7.68,1
2532,39.76,19.53,-0.48,1
2533,39.77,12.21,-2.42,1
2534,39.79,12.04,1.52,1
2535,39.8,14.97,0.78,1
2536,39.81,19.69,-2.7,1
2537,39.83,29.21,0.31,1
2538,39.84,31.0,5.46,1
2539,39.85,20.35,4.82,1
2540,39.87,14.17,3.39,1
2541,39.88,20.09,2.72,1
2542,39.89,27.27,-4.94,1
2543,39.9,28.11,-11.02,1
2544,39.92,26.82,-4.74,1
2545,39.93,28.18,1.12,1
2546,39.95,30.26,-1.39,1
2547,39.96,30.22,-2.31,1
2548,39.97,29.01,-2.43,1
2549,39.99,29.22,-7.58,1
2550,40.0,31.96,-9.8,1
2551,40.01,34.01,-5.72,1
2552,40.03,30.93,-6.23,1
2553,40.04,28.23,-10.11,1
2554,40.05,31.82,-2.78,1
2555,40.065,28.87,12.28,1
2556,40.08,14.55,14.86,1
2557,40.09,9.77,4.83,1
2558,40.11,18.81,-1.85,1
2559,40.12,20.26,-1.72,1
2560,40.13,12.97,1.57,1
2561,40.15,14.54,8.65,1
2562,40.16,24.53,13.97,0
2563,40.17,30.33,6.31,0
2564,40.19,27.9,-8.33,0
2565,40.2,19.44,-13.54,0
2566,40.21,12.01,-11.8,0
2567,40.22,12.6,-14.56,0
2568,40.24,4.84,-18.16,0
2569,40.25,-58.41,-17.47,0
2570,40.27,-198.31,-21.28,0
2571,40.28,-344.51,-33.25,0
2572,40.29,-398.31,-40.41,0
2573,40.31,-352.83,-32.94,0
2574,40.32,-279.31,-17.79,0
2575,40.33,-216.69,-4.93,0
2576,40.35,-149.29,5.56,0
2577,40.36,-72.97,14.81,0
2578,40.37,-6.08,19.22,0
2579,40.38,47.8,18.96,0
2580,40.4,95.0,19.95,0
2581,40.41,135.41,23.84,0
2582,40.43,172.37,24.86,0
2583,40.44,204.5,19.53,0
2584,40.45,215.96,8.2,0
2585,40.47,210.55,-3.94,0
2586,40.48,216.11,-4.67,0
2587,40.49,233.57,5.46,0
2588,40.51,238.79,8.05,0
2589,40.52,227.89,0.96,0
2590,40.53,215.84,-1.23,0
2591,40.54,212.25,0.97,0
2592,40.56,212.42,1.56,1
2593,40.57,207.88,2.18,1
2594,40.59,195.72,3.88,1
2595,40.6,175.09,10.63,1
2596,40.61,154.64,18.3,1
2597,40.63,144.96,12.46,1
2598,40.64,136.48,2.19,1
2599,40.65,119.09,4.55,1
2600,40.67,97.08,11.01,1
2601,40.68,74.71,12.99,1
2602,40.69,57.34,14.9,1
2603,40.71,47.61,18.5,1
2604,40.72,36.83,21.97,1
2605,40.73,23.79,19.04,1
2606,40.75,16.35,8.9,1
2607,40.76,11.2,4.49,1
2608,40.77,1.77,12.02,1
2609,40.79,-7.59,16.63,1
2610,40.8,-14.58,8.76,1
2611,40.81,-19.5,0.53,1
2612,40.83,-18.95,0.88,1
2613,40.84,-21.09,4.15,1
2614,40.85,-34.99,3.43,1
2615,40.87,-51.03,-4.21,1
2616,40.88,-60.06,-11.91,1
2617,40.89,-61.81,-8.79,1
2618,40.9,-58.41,0.96,1
2619,40.92,-59.35,3.44,1
2620,40.93,-68.2,-4.57,1
2621,40.95,-77.75,-12.93,1
2622,40.96,-94.05,-15.31,1
2623,40.97,-121.58,-19.0,1
2624,40.99,-134.54,-24.22,1
2625,41.0,-113.42,-20.77,1
2626,41.01,-83.62,-10.66,1
2627,41.03,-79.34,-3.13,1
2628,41.04,-87.05,-2.67,1
2629,41.05,-73.51,-9.45,1
2630,41.06,-50.66,-13.61,1
2631,41.08,-48.15,-5.34,1
2632,41.09,-60.87,5.48,1
2633,41.11,-69.59,4.09,1
2634,41.12,-70.49,-6.99,1
2635,41.13,-69.08,-17.31,1
2636,41.15,-66.82,-18.48,1
2637,41.16,-64.21,-9.35,1
2638,41.17,-69.87,-4.76,1
2639,41.19,-82.18,-11.97,1
2640,41.2,-81.51,-10.63,1
2641,41.21,-64.44,4.69,1
2642,41.22,-50.73,8.42,1
2643,41.24,-52.38,-3.13,1
2644,41.25,-63.16,-11.65,1
2645,41.27,-68.34,-15.9,1
2646,41.28,-58.88,-17.06,1
2647,41.29,-45.53,-9.09,1
2648,41.31,-46.12,-0.4,1
2649,41.32,-57.32,-0.96,1
2650,41.33,-60.95,-4.37,1
2651,41.35,-54.28,-4.12,1
2652,41.36,-48.01,-2.17,1
2653,41.37,-46.55,-2.03,1
2654,41.38,-47.37,-3.17,1
2655,41.4,-43.82,-0.81,1
2656,41.41,-32.38,0.56,1
2657,41.43,-24.04,-6.59,1
2658,41.44,-25.53,-10.16,1
2659,41.45,-27.57,-0.53,1
2660,41.47,-29.0,5.43,1
2661,41.48,-30.69,-3.05,1
2662,41.49,-24.53,-12.07,1
2663,41.51,-18.94,-6.95,1
2664,41.52,-23.42,9.51,1
2665,41.53,-25.71,15.23,1
2666,41.54,-23.17,0.0,1
2667,41.56,-22.32,-12.3,1
2668,41.57,-15.41,-7.82,1
2669,41.59,-1.53,-3.08,1
2670,41.6,5.57,-3.75,1
2671,41.61,2.81,-2.42,1
2672,41.63,1.86,-2.65,1
2673,41.64,6.33,-3.74,1
2674,41.65,5.71,0.98,1
2675,41.67,-0.72,3.42,1
2676,41.68,1.97,-1.95,1
2677,41.69,14.04,-3.21,1
2678,41.71,21.85,3.55,1
2679,41.72,21.97,7.12,1
2680,41.73,18.35,6.56,1
2681,41.75,14.83,8.67,1
2682,41.76,13.43,8.73,1
2683,41.77,13.08,4.82,1
2684,41.79,17.34,3.87,1
2685,41.8,28.51,5.19,1
2686,41.81,36.92,3.83,1
2687,41.83,35.84,-1.39,1
2688,41.84,30.4,-5.27,1
2689,41.85,26.57,0.61,1
2690,41.87,25.13,11.09,1
2691,41.88,21.44,17.76,1
2692,41.89,17.48,22.67,1
2693,41.9,19.05,22.69,1
2694,41.92,19.57,15.73,1
2695,41.93,17.19,9.25,1
2696,41.95,21.17,2.69,1
2697,41.96,29.28,-5.05,1
2698,41.97,33.86,-4.49,1
2699,41.99,36.03,3.9,1
2700,42.0,38.63,5.57,1
2701,42.01,38.54,-0.74,1
2702,42.03,32.78,-0.92,1
2703,42.04,26.44,10.72,1
2704,42.05,25.37,20.07,1
2705,42.06,25.55,11.21,1
2706,42.08,25.83,-5.5,1
2707,42.09,31.15,-11.51,1
2708,42.11,30.5,-11.28,1
2709,42.12,17.38,-10.23,1
2710,42.13,15.98,-2.11,1
2711,42.15,31.5,5.64,1
2712,42.16,34.43,5.15,2
2713,42.17,21.14,3.29,2
2714,42.19,13.07,-2.02,2
2715,42.2,17.06,-13.86,2
2716,42.21,27.75,-20.46,2
2717,42.22,35.63,-17.07,2
2718,42.24,31.98,-5.85,2
2719,42.25,34.98,12.72,2
2720,42.27,94.67,23.54,2
2721,42.28,220.62,17.43,2
2722,42.29,335.53,15.07,2
2723,42.31,377.71,24.82,2
2724,42.32,370.13,28.79,2
2725,42.33,344.35,24.93,2
2726,42.35,301.36,26.14,2
2727,42.36,251.38,29.06,2
2728,42.37,211.23,22.14,2
2729,42.38,177.92,6.96,2
2730,42.4,142.73,-7.04,2
2731,42.41,92.87,-13.08,2
2732,42.43,-10.31,-11.06,2
2733,42.44,-172.35,-7.99,2
2734,42.45,-306.67,-6.0,2
2735,42.47,-349.0,-6.34,2
2736,42.48,-346.04,-16.69,2
2737,42.49,-346.98,-31.2,2
2738,42.51,-342.78,-34.46,2
2739,42.52,-326.4,-26.46,2
2740,42.53,-305.35,-19.04,2
2741,42.54,-281.51,-19.03,2
2742,42.56,-258.0,-20.86,1
2743,42.57,-237.32,-17.0,1
2744,42.59,-216.81,-15.49,1
2745,42.6,-195.63,-19.74,1
2746,42.61,-175.02,-16.45,1
2747,42.63,-155.7,-9.21,1
2748,42.64,-140.45,-8.14,1
2749,42.65,-126.61,-3.74,1
2750,42.66,-106.97,2.34,1
2751,42.68,-86.28,-1.46,1
2752,42.69,-73.82,-4.11,1
2753,42.71,-66.65,1.52,1
2754,42.72,-57.17,3.41,1
2755,42.73,-42.77,-0.76,1
2756,42.75,-20.1,-4.49,1
2757,42.76,6.1,-4.6,1
2758,42.77,16.82,-2.95,1
2759,42.79,9.84,-4.84,1
2760,42.8,8.91,-5.92,1
2761,42.81,21.92,1.51,1
2762,42.83,35.5,10.78,1
2763,42.84,44.34,13.31,1
2764,42.85,50.44,11.26,1
2765,42.87,51.57,5.02,1
2766,42.88,50.42,-4.11,1
2767,42.89,52.62,-4.52,1
2768,42.9,55.32,3.44,1
2769,42.92,55.15,5.43,1
2770,42.93,54.24,1.79,1
2771,42.95,56.95,-0.72,1
2772,42.96,65.31,-2.61,1
2773,42.97,73.09,-2.78,1
2774,42.99,75.6,-2.95,1
2775,43.0,74.24,-3.51,1
2776,43.01,65.67,1.92,1
2777,43.03,56.43,6.28,1
2778,43.04,60.57,4.93,1
2779,43.05,68.03,10.11,1
2780,43.06,66.31,16.27,1
2781,43.08,68.21,12.27,1
2782,43.09,77.11,8.26,1
2783,43.11,75.33,6.28,1
2784,43.12,62.29,0.71,1
2785,43.13,52.85,2.39,1
2786,43.15,52.88,10.8,1
2787,43.16,59.73,8.78,1
2788,43.17,67.77,1.43,1
2789,43.19,70.72,3.86,1
2790,43.2,68.27,8.62,1
2791,43.21,64.66,5.78,1
2792,43.22,59.94,-1.48,1
2793,43.24,52.93,-6.98,1
2794,43.25,49.03,-1.06,1
2795,43.27,50.51,12.78,1
2796,43.28,49.14,13.71,1
2797,43.29,42.45,1.17,1
2798,43.3,38.82,-8.48,1
2799,43.32,41.93,-8.42,1
2800,43.33,46.49,-1.87,1
2801,43.35,46.58,3.13,1
2802,43.36,40.18,5.45,1
2803,43.37,32.68,6.71,1
2804,43.38,33.55,3.31,1
2805,43.4,38.55,1.43,1
2806,43.41,32.09,8.36,1
2807,43.43,18.19,13.1,1
2808,43.44,13.45,5.79,1
2809,43.45,14.58,-2.87,1
2810,43.47,12.55,1.87,1
2811,43.48,11.75,11.62,1
2812,43.49,13.77,7.74,1
2813,43.51,11.66,-6.07,1
2814,43.52,5.55,-9.48,1
2815,43.53,1.48,3.48,1
2816,43.54,1.85,11.07,1
2817,43.56,7.27,-0.5,1
2818,43.57,13.82,-7.96,1
2819,43.59,11.33,2.23,1
2820,43.6,0.24,8.51,1
2821,43.61,-5.44,3.52,1
2822,43.63,-1.94,0.92,1
2823,43.64,1.51,0.75,1
2824,43.65,-1.76,-2.67,1
2825,43.67,-11.68,-3.55,1
2826,43.68,-19.72,2.86,1
2827,43.69,-17.91,9.2,1
2828,43.71,-12.91,1.16,1
2829,43.72,-16.29,-14.94,1
2830,43.73,-24.35,-11.49,1
2831,43.75,-27.15,8.72,1
2832,43.76,-25.09,13.32,1
2833,43.77,-21.91,-0.61,1
2834,43.79,-19.24,-9.59,1
2835,43.8,-16.6,-7.83,1
2836,43.81,-13.35,-3.06,1
2837,43.83,-13.59,2.92,1
2838,43.84,-18.42,8.43,1
2839,43.85,-24.97,8.48,1
2840,43.87,-32.09,3.57,1
2841,43.88,-33.38,-1.23,1
2842,43.89,-26.82,-5.78,1
2843,43.9,-25.16,-11.87,1
2844,43.92,-31.6,-16.26,1
2845,43.93,-35.6,-14.85,1
2846,43.94,-33.83,-11.06,1
2847,43.96,-26.14,-6.99,1
2848,43.97,-16.3,0.75,1
2849,43.99,-19.95,6.13,1
2850,44.0,-36.08,3.86,1
2851,44.01,-40.97,-0.19,1
2852,44.03,-28.5,-3.96,1
2853,44.04,-16.62,-3.16,1
2854,44.05,-17.05,5.92,1
2855,44.06,-26.31,9.0,1
2856,44.08,-34.23,-2.5,1
2857,44.09,-31.11,-13.74,1
2858,44.11,-21.74,-15.77,1
2859,44.12,-19.25,-13.14,1
2860,44.13,-21.18,-4.76,1
2861,44.15,-18.01,17.41,1
2862,44.16,-14.72,62.33,1
2863,44.17,-18.87,144.27,1
2864,44.19,-27.44,230.84,1
2865,44.2,-31.06,208.8,1
2866,44.21,-17.77,117.57,1
2867,44.22,-0.92,189.21,1
2868,44.24,-14.65,376.61,1
2869,44.25,-7.74,390.17,1
2870,44.27,137.53,252.69,1
2871,44.28,367.05,186.45,1
2872,44.29,458.76,193.67,1
2873,44.31,366.23,166.58,1
2874,44.32,212.89,111.71,1
2875,44.33,0.65,78.65,1
2876,44.35,-219.78,59.97,1
2877,44.36,-251.44,32.94,1
2878,44.37,-114.76,3.24,1
2879,44.38,21.12,-19.24,1
2880,44.4,77.74,-38.03,1
2881,44.41,-20.21,-57.33,1
2882,44.43,-182.05,-75.35,1
2883,44.44,-183.58,-90.93,1
2884,44.45,-99.4,-105.18,1
2885,44.47,-124.62,-118.29,1
2886,44.48,-146.61,-130.13,1
2887,44.49,-83.82,-140.14,1
2888,44.51,-142.06,-147.93,1
2889,44.52,-230.71,-154.51,1
2890,44.53,-95.17,-161.17,1
2891,44.54,-13.03,-166.92,1
2892,44.56,-252.31,-170.98,1
2893,44.57,-504.11,-174.07,1
2894,44.58,-466.17,-176.6,1
2895,44.6,-271.75,-177.85,1
2896,44.61,-90.03,-178.2,1
2897,44.63,55.44,-177.91,1
2898,44.64,-4.66,-177.03,1
2899,44.65,-264.65,-214.79,1
2900,44.67,-332.03,-328.54,1
2901,44.68,-43.28,-374.44,1
2902,44.69,289.09,-284.38,1
2903,44.71,277.48,-339.68,1
2904,44.72,29.59,-502.41,1
2905,44.73,13.77,-345.2,1
2906,44.75,190.83,-13.5,1
2907,44.76,181.15,-37.57,1
2908,44.77,28.21,-364.28,1
2909,44.79,-30.1,-412.64,1
2910,44.8,18.22,-104.98,1
2911,44.81,63.68,-93.46,1
2912,44.83,36.01,-426.84,1
2913,44.84,-63.78,-393.91,1
2914,44.85,-141.71,-112.61,1
2915,44.87,-71.66,-200.09,1
2916,44.88,55.02,-240.25,1
2917,44.89,97.44,202.21,1
2918,44.9,135.86,473.09,1
2919,44.92,98.17,206.18,1
2920,44.93,-87.25,-100.69,1
2921,44.95,-180.64,-105.9,1
2922,44.96,-171.29,17.94,1
2923,44.97,-224.62,55.62,1
2924,44.99,-192.23,101.82,1
2925,45.0,76.56,138.27,1
2926,45.01,335.85,-51.42,1
2927,45.03,274.14,-251.39,1
2928,45.04,47.98,-212.57,1
2929,45.05,13.04,-209.13,1
2930,45.06,127.26,-373.72,1
2931,45.08,138.47,-434.1,1
2932,45.09,46.1,-310.84,1
2933,45.11,10.19,-195.26,1
2934,45.12,54.63,-160.41,1
2935,45.13,82.12,-125.2,1
2936,45.15,64.87,-59.63,1
2937,45.16,60.29,-2.64,1
2938,45.17,91.46,35.27,1
2939,45.19,130.12,73.2,1
2940,45.2,157.51,114.36,1
2941,45.21,176.5,150.09,1
2942,45.22,196.67,180.09,1
2943,45.24,220.63,208.21,1
2944,45.25,237.29,234.19,1
2945,45.26,242.38,256.83,1
2946,45.28,251.48,277.37,1
2947,45.29,265.32,302.2,1
2948,45.31,260.61,348.85,1
2949,45.32,239.16,425.87,1
2950,45.33,222.34,507.2,1
2951,45.35,209.98,559.64,1
2952,45.36,198.51,583.78,1
2953,45.37,192.05,596.3,1
2954,45.38,180.44,596.44,1
2955,45.4,151.34,576.2,1
2956,45.41,123.3,542.64,1
2957,45.43,121.99,507.63,1
2958,45.44,124.21,475.8,1
2959,45.45,93.42,447.98,1
2960,45.47,48.34,417.48,1
2961,45.48,21.52,382.81,1
2962,45.49,6.69,361.53,1
2963,45.51,-10.18,355.95,1
2964,45.52,-31.52,337.17,1
2965,45.53,-60.13,299.85,1
2966,45.54,-83.13,270.22,1
2967,45.56,-82.77,252.6,1
2968,45.57,-77.6,233.3,1
2969,45.59,-92.39,210.38,1
2970,45.6,-112.88,188.02,1
2971,45.61,-119.61,164.24,1
2972,45.63,-118.28,135.97,1
2973,45.64,-115.54,112.6,1
2974,45.65,-108.81,102.4,1
2975,45.67,-101.53,94.08,1
2976,45.68,-103.09,74.8,1
2977,45.69,-115.17,48.89,1
2978,45.71,-128.44,26.11,1
2979,45.72,-131.58,8.58,1
2980,45.73,-123.39,-3.45,1
2981,45.75,-116.76,-13.39,1
2982,45.76,-124.43,-30.98,1
2983,45.77,-136.48,-49.8,1
2984,45.79,-134.21,-54.2,1
2985,45.8,-125.14,-55.88,1
2986,45.81,-126.17,-75.0,1
2987,45.83,-129.73,-101.81,1
2988,45.84,-127.65,-117.98,1
2989,45.85,-129.77,-118.58,1
2990,45.86,-134.58,-113.64,1
2991,45.88,-128.2,-124.83,1
2992,45.89,-116.5,-150.86,1
2993,45.9,-113.99,-165.34,1
2994,45.92,-115.39,-164.54,1
2995,45.93,-109.43,-165.77,1
2996,45.95,-99.69,-173.01,1
2997,45.96,-96.8,-182.58,1
2998,45.97,-100.05,-191.75,1
2999,45.99,-97.11,-193.67,1
3000,46.0,-85.38,-191.27,1
3001,46.01,-77.67,-200.19,1
3002,46.03,-79.63,-219.62,1
3003,46.04,-80.98,-225.65,1
3004,46.05,-75.13,-208.98,1
3005,46.06,-68.7,-190.91,1
3006,46.08,-68.5,-191.64,1
3007,46.09,-69.48,-205.84,1
3008,46.11,-61.93,-216.95,1
3009,46.12,-50.74,-220.54,1
3010,46.13,-45.12,-220.55,1
3011,46.15,-39.9,-217.15,1
3012,46.16,-34.62,-212.58,2
3013,46.17,-36.5,-210.76,2
3014,46.19,-36.26,-201.41,2
3015,46.2,-7.46,-173.81,2
3016,46.21,78.02,-144.0,2
3017,46.22,218.22,-135.35,2
3018,46.24,349.05,-144.82,2
3019,46.25,393.08,-149.57,2
3020,46.27,349.78,-140.77,2
3021,46.28,278.2,-134.68,2
3022,46.29,204.43,-140.88,2
3023,46.31,126.37,-146.41,2
3024,46.32,62.48,-141.93,2
3025,46.33,18.45,-134.63,2
3026,46.35,-25.17,-133.09,2
3027,46.36,-67.23,-137.78,2
3028,46.37,-99.09,-137.41,2
3029,46.38,-132.62,-126.71,2
3030,46.4,-161.76,-122.37,2
3031,46.41,-166.67,-124.23,2
3032,46.43,-163.16,-113.02,2
3033,46.44,-174.63,-101.05,2
3034,46.45,-188.8,-106.18,2
3035,46.47,-187.47,-107.46,2
3036,46.48,-174.8,-93.4,2
3037,46.49,-164.62,-83.51,2
3038,46.5,-161.43,-79.31,2
3039,46.52,-157.24,-68.76,2
3040,46.53,-144.66,-56.78,2
3041,46.54,-130.24,-47.19,2
3042,46.56,-121.89,-38.35,1
3043,46.57,-110.69,-37.71,1
3044,46.59,-85.78,-42.92,1
3045,46.6,-56.54,-34.51,1
3046,46.61,-42.29,-12.81,1
3047,46.63,-42.08,-1.59,1
3048,46.64,-33.66,-6.26,1
3049,46.65,-11.43,-6.57,1
3050,46.67,4.91,10.27,1
3051,46.68,9.41,26.33,1
3052,46.69,15.09,21.9,1
3053,46.71,25.51,12.24,1
3054,46.72,35.28,16.63,1
3055,46.73,38.94,25.99,1
3056,46.75,39.77,31.62,1
3057,46.76,48.16,35.54,1
3058,46.77,61.02,35.19,1
3059,46.79,69.03,35.22,1
3060,46.8,76.84,44.15,1
3061,46.81,87.58,53.61,1
3062,46.83,93.59,53.23,1
3063,46.84,91.06,51.81,1
3064,46.85,84.3,61.9,1
3065,46.87,80.32,76.61,1
3066,46.88,81.97,77.48,1
3067,46.89,86.25,63.33,1
3068,46.9,95.86,54.25,1
3069,46.92,103.89,58.67,1
3070,46.93,97.9,64.22,1
3071,46.95,96.92,68.26,1
3072,46.96,116.3,72.12,1
3073,46.97,130.16,68.53,1
3074,46.99,119.91,65.79,1
3075,47.0,99.01,74.64,1
3076,47.01,86.54,80.27,1
3077,47.03,86.91,75.57,1
3078,47.04,88.45,74.28,1
3079,47.05,84.45,72.56,1
3080,47.06,79.66,61.72,1
3081,47.08,78.39,55.14,1
3082,47.09,80.09,58.18,1
3083,47.11,80.4,60.49,1
3084,47.12,76.63,66.36,1
3085,47.13,72.4,79.58,1
3086,47.14,69.45,82.49,1
3087,47.16,67.8,67.77,1
3088,47.17,68.97,56.68,1
3089,47.18,71.61,63.57,1
3090,47.2,72.12,74.37,1
3091,47.21,67.37,74.01,1
3092,47.22,55.23,66.71,1
3093,47.24,38.71,60.43,1
3094,47.25,30.41,58.92,1
3095,47.27,36.74,66.4,1
3096,47.28,43.88,73.83,1
3097,47.29,37.91,65.94,1
3098,47.31,25.31,51.5,1
3099,47.32,20.83,46.0,1
3100,47.33,25.23,46.84,1
3101,47.35,29.58,47.47,1
3102,47.36,31.68,46.27,1
3103,47.37,28.89,45.18,1
3104,47.38,17.97,48.11,1
3105,47.4,8.94,49.28,1
3106,47.41,10.12,40.08,1
3107,47.43,12.37,28.65,1
3108,47.44,10.52,24.92,1
3109,47.45,10.59,24.56,1
3110,47.47,9.96,27.8,1
3111,47.48,6.04,36.12,1
3112,47.49,6.38,36.29,1
3113,47.51,9.4,26.58,1
3114,47.52,4.58,19.44,1
3115,47.53,-9.4,15.95,1
3116,47.54,-22.75,16.45,1
3117,47.56,-21.5,20.21,1
3118,47.57,-5.88,18.37,1
3119,47.59,4.03,12.27,1
3120,47.6,-0.9,10.08,1
3121,47.61,-10.19,12.33,1
3122,47.63,-16.67,16.44,1
3123,47.64,-23.04,17.04,1
3124,47.65,-26.97,5.94,1
3125,47.67,-28.28,-9.88,1
3126,47.68,-34.2,-11.96,1
3127,47.69,-38.62,-0.31,1
3128,47.71,-34.78,9.74,1
3129,47.72,-33.47,9.76,1
3130,47.73,-40.01,0.7,1
3131,47.75,-41.25,-10.98,1
3132,47.76,-29.22,-18.13,1
3133,47.77,-19.17,-19.22,1
3134,47.78,-22.3,-16.12,1
3135,47.8,-27.48,-12.04,1
3136,47.81,-32.23,-9.58,1
3137,47.82,-40.78,-7.73,1
3138,47.84,-45.04,-10.25,1
3139,47.85,-43.48,-16.84,1
3140,47.86,-41.96,-11.72,1
3141,47.88,-38.11,3.75,1
3142,47.89,-36.71,4.78,1
3143,47.9,-43.63,-8.87,1
3144,47.92,-45.89,-15.64,1
3145,47.93,-37.82,-15.4,1
3146,47.95,-33.7,-17.59,1
3147,47.96,-36.34,-18.95,1
3148,47.97,-36.03,-19.5,1
3149,47.99,-36.09,-22.35,1
3150,48.0,-40.85,-22.54,1
3151,48.01,-40.07,-17.41,1
3152,48.03,-30.44,-13.36,1
3153,48.04,-26.51,-14.39,1
3154,48.05,-34.38,-16.34,1
3155,48.06,-41.98,-16.03,1
3156,48.08,-40.33,-19.5,1
3157,48.09,-33.76,-30.28,1
3158,48.11,-32.62,-35.02,1
3159,48.12,-38.45,-23.93,1
3160,48.13,-38.03,-11.97,1
3161,48.15,-29.31,-13.5,1
3162,48.16,-25.97,-22.94,0
3163,48.17,-28.02,-27.17,0
3164,48.19,-27.9,-18.71,0
3165,48.2,-25.17,-9.87,0
3166,48.21,-19.39,-16.2,0
3167,48.22,-13.22,-23.91,0
3168,48.24,-12.28,-21.41,0
3169,48.25,-14.75,-20.36,0
3170,48.27,-12.62,-18.85,0
3171,48.28,-5.07,-10.87,0
3172,48.29,-3.55,-8.78,0
3173,48.31,-29.42,-14.31,0
3174,48.32,-104.81,-17.43,0
3175,48.33,-216.18,-20.48,0
3176,48.35,-308.01,-30.0,0
3177,48.36,-350.01,-44.66,0
3178,48.37,-356.12,-56.9,0
3179,48.38,-337.41,-59.2,0
3180,48.4,-298.07,-56.13,0
3181,48.41,-251.85,-60.31,0
3182,48.42,-210.17,-62.17,0
3183,48.44,-172.19,-39.28,0
3184,48.45,-118.49,-9.18,0
3185,48.46,-11.82,-1.06,0
3186,48.48,144.57,1.48,0
3187,48.49,274.16,13.73,0
3188,48.5,324.11,21.21,0
3189,48.52,331.22,19.49,0
3190,48.53,336.87,16.32,0
3191,48.54,333.26,22.87,0
3192,48.56,316.35,34.74,1
3193,48.57,297.28,24.71,1
3194,48.59,272.71,-2.05,1
3195,48.6,244.56,-11.73,1
3196,48.61,227.05,-0.14,1
3197,48.63,207.81,14.22,1
3198,48.64,159.23,16.07,1
3199,48.65,99.83,6.94,1
3200,48.67,84.29,2.89,1
3201,48.68,112.63,5.37,1
3202,48.69,126.46,5.33,1
3203,48.71,111.5,6.65,1
3204,48.72,99.16,11.59,1
3205,48.73,91.76,12.36,1
3206,48.75,81.74,10.72,1
3207,48.76,77.65,14.14,1
3208,48.77,74.89,17.78,1
3209,48.79,61.14,12.01,1
3210,48.8,41.21,3.01,1
3211,48.81,27.19,1.05,1
3212,48.83,25.42,0.06,1
3213,48.84,31.47,-3.67,1
3214,48.85,30.36,-4.63,1
3215,48.87,14.83,-5.4,1
3216,48.88,-2.6,-9.41,1
3217,48.89,-8.64,-9.88,1
3218,48.9,-9.03,-1.31,1
3219,48.92,-15.04,6.9,1
3220,48.93,-23.0,2.56,1
3221,48.95,-26.89,-5.52,1
3222,48.96,-32.84,-2.47,1
3223,48.97,-42.98,5.31,1
3224,48.99,-47.41,4.63,1
3225,49.0,-45.03,-3.36,1
3226,49.01,-48.26,-10.43,1
3227,49.03,-56.59,-7.89,1
3228,49.04,-56.65,2.39,1
3229,49.05,-51.98,4.89,1
3230,49.06,-55.59,-2.52,1
3231,49.08,-63.6,-9.92,1
3232,49.09,-66.25,-14.34,1
3233,49.1,-64.8,-10.24,1
3234,49.12,-61.46,1.0,1
3235,49.13,-57.46,7.19,1
3236,49.14,-59.13,12.46,1
3237,49.16,-65.96,18.78,1
3238,49.17,-69.67,14.33,1
3239,49.19,-70.44,2.32,1
3240,49.2,-73.11,-5.22,1
3241,49.21,-73.4,-2.94,1
3242,49.22,-67.77,4.18,1
3243,49.24,-65.12,3.06,1
3244,49.25,-70.4,-3.19,1
3245,49.27,-73.32,-0.47,1
3246,49.28,-64.37,8.96,1
3247,49.29,-51.7,10.04,1
3248,49.31,-52.62,-1.56,1
3249,49.32,-62.75,-10.11,1
3250,49.33,-58.61,-5.99,1
3251,49.35,-42.01,-0.36,1
3252,49.36,-38.75,1.25,1
3253,49.37,-48.86,3.16,1
3254,49.38,-48.14,3.93,1
3255,49.4,-35.62,1.29,1
3256,49.41,-29.91,-1.88,1
3257,49.43,-34.29,-0.88,1
3258,49.44,-37.13,4.44,1
3259,49.45,-35.6,7.07,1
3260,49.47,-37.64,1.08,1
3261,49.48,-40.8,-6.37,1
3262,49.49,-36.62,-4.62,1
3263,49.51,-27.93,0.99,1
3264,49.52,-19.73,0.53,1
3265,49.53,-10.95,-1.26,1
3266,49.54,-3.4,2.98,1
3267,49.56,-5.29,7.83,1
3268,49.57,-16.87,4.62,1
3269,49.59,-22.9,-2.77,1
3270,49.6,-17.26,-1.2,1
3271,49.61,-10.78,8.07,1
3272,49.63,-7.8,10.64,1
3273,49.64,-6.1,7.79,1
3274,49.65,-5.1,7.1,1
3275,49.67,-0.07,3.41,1
3276,49.68,6.44,-0.49,1
3277,49.69,5.81,2.68,1
3278,49.7,2.9,4.22,1
3279,49.72,7.16,-2.12,1
3280,49.73,14.94,-7.27,1
3281,49.74,15.56,-4.33,1
3282,49.76,10.52,1.52,1
3283,49.77,12.55,3.75,1
3284,49.78,19.37,0.19,1
3285,49.8,18.72,-4.05,1
3286,49.81,13.83,-2.49,1
3287,49.83,13.87,1.12,1
3288,49.84,15.44,2.99,1
3289,49.85,14.25,3.11,1
3290,49.87,14.2,-0.12,1
3291,49.88,16.56,-1.82,1
3292,49.89,15.1,-0.68,1
3293,49.9,10.01,-2.67,1
3294,49.92,14.33,-2.84,1
3295,49.93,28.06,1.38,1
3296,49.95,32.47,1.87,1
3297,49.96,25.85,-0.13,1
3298,49.97,25.77,-0.1,1
3299,49.99,30.2,1.56,1
3300,50.0,21.91,5.82,1
3301,50.01,7.03,8.43,1
3302,50.03,5.9,5.52,1
3303,50.04,20.11,4.12,1
3304,50.05,34.44,6.17,1
3305,50.06,38.71,4.14,1
3306,50.08,35.44,-2.74,1
3307,50.09,28.89,-7.06,1
3308,50.11,22.34,-2.55,1
3309,50.12,22.67,5.39,1
3310,50.13,26.76,3.08,1
3311,50.15,24.93,-4.26,1
3312,50.16,22.83,-0.21,0
3313,50.17,24.66,7.52,0
3314,50.19,19.64,2.23,0
3315,50.2,11.78,-14.38,0
3316,50.21,17.57,-27.51,0
3317,50.22,17.62,-29.38,0
3318,50.24,-47.93,-27.48,0
3319,50.25,-190.97,-26.32,0
3320,50.27,-320.23,-21.14,0
3321,50.28,-351.88,-9.59,0
3322,50.29,-313.4,3.32,0
3323,50.31,-268.78,6.34,0
3324,50.32,-226.56,4.52,0
3325,50.33,-160.85,13.64,0
3326,50.34,-69.1,23.25,0
3327,50.36,16.15,21.13,0
3328,50.37,70.72,20.14,0
3329,50.38,105.98,24.61,0
3330,50.4,138.55,24.52,0
3331,50.41,170.64,17.71,0
3332,50.42,199.64,11.98,0
3333,50.44,217.11,12.02,0
3334,50.45,218.84,9.17,0
3335,50.46,220.61,1.03,0
3336,50.48,231.27,4.49,0
3337,50.49,234.57,16.58,0
3338,50.51,225.71,13.17,0
3339,50.52,222.99,-1.52,0
3340,50.53,231.39,-3.57,0
3341,50.54,233.04,6.03,0
3342,50.56,214.7,10.1,1
3343,50.57,184.19,6.8,1
3344,50.59,158.65,5.02,1
3345,50.6,141.04,8.54,1
3346,50.61,124.62,13.95,1
3347,50.63,108.97,13.66,1
3348,50.64,97.48,6.72,1
3349,50.65,92.39,-2.29,1
3350,50.67,83.27,-11.76,1
3351,50.68,59.73,-13.76,1
3352,50.69,38.59,-4.57,1
3353,50.71,32.34,3.48,1
3354,50.72,17.45,8.08,1
3355,50.73,-22.03,14.05,1
3356,50.75,-56.88,12.62,1
3357,50.76,-56.89,3.52,1
3358,50.77,-36.49,-1.4,1
3359,50.79,-26.75,-3.11,1
3360,50.8,-30.2,-4.86,1
3361,50.81,-27.82,-4.66,1
3362,50.83,-17.71,-8.09,1
3363,50.84,-13.7,-10.86,1
3364,50.85,-14.67,0.46,1
3365,50.87,-13.54,9.93,1
3366,50.88,-19.94,-2.3,1
3367,50.89,-40.5,-15.69,1
3368,50.9,-59.25,-11.24,1
3369,50.92,-59.49,-5.07,1
3370,50.93,-51.99,-9.46,1
3371,50.95,-55.92,-13.16,1
3372,50.96,-64.64,-3.88,1
3373,50.97,-62.33,9.71,1
3374,50.98,-56.91,7.58,1
3375,51.0,-63.97,-4.77,1
3376,51.01,-75.61,-5.95,1
3377,51.02,-76.33,-2.02,1
3378,51.04,-69.54,-5.89,1
3379,51.05,-65.65,-9.03,1
3380,51.06,-67.08,-5.63,1
3381,51.08,-71.12,2.05,1
3382,51.09,-76.66,9.52,1
3383,51.1,-81.83,7.54,1
3384,51.12,-78.85,-2.03,1
3385,51.13,-68.2,-10.43,1
3386,51.15,-61.46,-20.12,1
3387,51.16,-67.67,-26.05,1
3388,51.17,-81.12,-16.71,1
3389,51.19,-82.91,-6.5,1
3390,51.2,-75.8,-8.23,1
3391,51.21,-77.28,-5.27,1
3392,51.22,-75.92,5.57,1
3393,51.24,-63.18,6.13,1
3394,51.25,-61.55,-3.97,1
3395,51.27,-74.67,-11.76,1
3396,51.28,-76.76,-11.22,1
3397,51.29,-60.52,-2.49,1
3398,51.31,-45.56,5.85,1
3399,51.32,-40.57,2.17,1
3400,51.33,-36.62,-10.21,1
3401,51.35,-35.05,-15.38,1
3402,51.36,-39.18,-9.21,1
3403,51.37,-41.32,-3.93,1
3404,51.38,-41.39,-8.8,1
3405,51.4,-42.6,-18.01,1
3406,51.41,-40.72,-21.57,1
3407,51.43,-37.95,-20.41,1
3408,51.44,-38.75,-16.19,1
3409,51.45,-37.98,-6.01,1
3410,51.47,-34.59,-0.94,1
3411,51.48,-33.18,-8.28,1
3412,51.49,-27.08,-8.82,1
3413,51.51,-13.29,3.93,1
3414,51.52,-7.81,11.47,1
3415,51.53,-13.49,8.94,1
3416,51.54,-13.26,3.16,1
3417,51.56,-7.38,-1.88,1
3418,51.57,-8.3,1.36,1
3419,51.59,-10.49,8.31,1
3420,51.6,-4.41,2.47,1
3421,51.61,3.84,-10.07,1
3422,51.62,6.87,-5.46,1
3423,51.64,10.82,10.95,1
3424,51.65,15.65,12.91,1
3425,51.66,9.81,0.66,1
3426,51.68,2.43,-3.34,1
3427,51.69,11.12,6.48,1
3428,51.7,20.08,11.92,1
3429,51.72,13.53,1.95,1
3430,51.73,7.68,-9.09,1
3431,51.74,10.65,-5.21,1
3432,51.76,12.19,6.81,1
3433,51.77,13.32,10.76,1
3434,51.79,22.02,4.13,1
3435,51.8,36.47,-1.58,1
3436,51.81,42.48,0.45,1
3437,51.83,33.26,4.22,1
3438,51.84,24.17,6.22,1
3439,51.85,21.1,9.81,1
3440,51.87,14.19,9.57,1
3441,51.88,11.67,7.36,1
3442,51.89,27.34,13.43,1
3443,51.9,43.73,15.09,1
3444,51.92,34.02,1.37,1
3445,51.93,13.82,-8.94,1
3446,51.95,15.74,-5.44,1
3447,51.96,32.74,-0.89,1
3448,51.97,44.54,-3.72,1
3449,51.99,46.76,-6.87,1
3450,52.0,38.56,-2.75,1
3451,52.01,28.61,4.71,1
3452,52.03,28.34,8.63,1
3453,52.04,30.73,5.81,1
3454,52.05,25.3,-1.17,1
3455,52.06,20.3,-6.76,1
3456,52.08,23.33,-7.91,1
3457,52.09,23.29,-2.88,1
3458,52.11,18.77,4.68,1
3459,52.12,22.79,7.62,1
3460,52.13,33.37,9.03,1
3461,52.15,38.1,11.88,1
3462,52.16,31.46,11.55,2
3463,52.17,17.5,10.84,2
3464,52.19,12.59,12.39,2
3465,52.2,25.41,10.11,2
3466,52.21,36.47,3.23,2
3467,52.22,29.6,-1.32,2
3468,52.24,14.65,0.06,2
3469,52.25,3.59,2.83,2
3470,52.26,4.02,1.16,2
3471,52.28,16.37,-1.33,2
3472,52.29,25.53,2.48,2
3473,52.3,26.52,7.45,2
3474,52.32,27.56,8.69,2
3475,52.33,23.33,12.06,2
3476,52.34,12.94,11.37,2
3477,52.36,10.32,-1.6,2
3478,52.37,13.38,-9.7,2
3479,52.38,10.51,1.91,2
3480,52.4,10.65,19.22,2
3481,52.41,25.46,22.71,2
3482,52.43,38.14,16.46,2
3483,52.44,29.58,20.0,2
3484,52.45,14.8,37.37,2
3485,52.47,30.98,49.17,2
3486,52.48,115.6,44.77,2
3487,52.49,257.84,38.11,2
3488,52.51,371.8,36.75,2
3489,52.52,391.76,27.27,2
3490,52.53,345.31,6.48,2
3491,52.54,290.46,-10.38,2
3492,52.56,248.5,-17.08,1
3493,52.57,211.74,-24.35,1
3494,52.59,174.17,-37.42,1
3495,52.6,137.89,-43.84,1
3496,52.61,91.8,-33.33,1
3497,52.63,-1.64,-19.71,1
3498,52.64,-150.46,-20.34,1
3499,52.65,-281.95,-29.74,1
3500,52.67,-333.54,-34.98,1
3501,52.68,-337.57,-33.56,1
3502,52.69,-347.19,-26.59,1
3503,52.71,-356.97,-22.05,1
3504,52.72,-338.14,-24.19,1
3505,52.73,-300.87,-22.67,1
3506,52.75,-277.27,-19.12,1
3507,52.76,-264.41,-22.21,1
3508,52.77,-246.89,-23.23,1
3509,52.79,-234.69,-18.12,1
3510,52.8,-228.12,-15.75,1
3511,52.81,-208.1,-14.84,1
3512,52.83,-177.58,-11.49,1
3513,52.84,-155.59,-10.22,1
3514,52.85,-139.85,-9.79,1
3515,52.87,-119.0,-9.1,1
3516,52.88,-100.96,-10.55,1
3517,52.89,-91.92,-2.3,1
3518,52.9,-79.25,13.04,1
3519,52.92,-58.2,8.38,1
3520,52.93,-40.04,-10.64,1
3521,52.94,-29.18,-12.19,1
3522,52.96,-22.1,4.67,1
3523,52.97,-15.42,19.64,1
3524,52.98,-4.7,21.11,1
3525,53.0,7.98,10.06,1
3526,53.01,14.27,-3.48,1
3527,53.02,18.7,-9.82,1
3528,53.04,30.19,-6.2,1
3529,53.05,39.93,3.64,1
3530,53.06,43.49,10.95,1
3531,53.08,49.14,8.08,1
3532,53.09,53.44,2.03,1
3533,53.11,51.08,7.1,1
3534,53.12,49.95,15.19,1
3535,53.13,55.89,9.32,1
3536,53.15,63.71,-4.26,1
3537,53.16,66.31,-8.14,1
3538,53.17,63.92,-0.66,1
3539,53.19,65.66,6.46,1
3540,53.2,75.76,7.76,1
3541,53.21,83.73,9.13,1
3542,53.22,79.06,12.13,1
3543,53.24,69.02,9.36,1
3544,53.25,66.35,1.34,1
3545,53.27,70.34,-3.77,1
3546,53.28,76.83,-4.41,1
3547,53.29,79.36,-2.24,1
3548,53.31,73.37,0.28,1
3549,53.32,68.9,-0.35,1
3550,53.33,70.5,0.14,1
3551,53.35,70.57,9.05,1
3552,53.36,69.22,20.92,1
3553,53.37,68.17,18.64,1
3554,53.38,65.41,0.8,1
3555,53.4,62.37,-9.68,1
3556,53.41,61.81,-3.38,1
3557,53.43,64.54,4.73,1
3558,53.44,69.54,6.15,1
3559,53.45,69.67,4.01,1
3560,53.47,57.71,2.24,1
3561,53.48,43.92,4.96,1
3562,53.49,46.6,8.97,1
3563,53.51,59.74,5.27,1
3564,53.52,58.22,-2.2,1
3565,53.53,44.08,-2.25,1
3566,53.54,38.95,-0.1,1
3567,53.56,41.04,-5.46,1
3568,53.57,38.27,-5.83,1
3569,53.58,32.93,7.47,1
3570,53.6,29.91,18.3,1
3571,53.61,31.75,20.38,1
3572,53.62,33.5,18.55,1
3573,53.64,27.11,8.53,1
3574,53.65,20.75,-2.11,1
3575,53.66,20.42,-0.67,1
3576,53.68,17.37,3.61,1
3577,53.69,11.77,1.59,1
3578,53.7,7.94,-0.21,1
3579,53.72,6.4,3.44,1
3580,53.73,13.59,9.48,1
3581,53.75,23.46,8.04,1
3582,53.76,19.94,-5.87,1
3583,53.77,7.42,-14.78,1
3584,53.79,0.52,-4.34,1
3585,53.8,1.49,5.49,1
3586,53.81,2.96,0.16,1
3587,53.83,-1.74,-5.54,1
3588,53.84,-10.99,-5.18,1
3589,53.85,-17.03,-5.58,1
3590,53.87,-15.88,-3.92,1
3591,53.88,-10.68,0.11,1
3592,53.89,-8.84,2.69,1
3593,53.9,-11.97,8.04,1
3594,53.92,-11.68,15.21,1
3595,53.93,-4.78,16.91,1
3596,53.95,-5.27,11.47,1
3597,53.96,-20.43,-0.1,1
3598,53.97,-29.27,-11.32,1
3599,53.99,-19.32,-11.68,1
3600,54.0,-11.49,-1.19,1
3601,54.01,-15.94,9.92,1
3602,54.03,-21.01,9.94,1
3603,54.04,-27.32,-2.14,1
3604,54.05,-34.2,-9.72,1
3605,54.06,-29.38,-4.49,1
3606,54.08,-20.87,-0.39,1
3607,54.09,-24.02,-2.69,1
3608,54.11,-27.88,-2.47,1
3609,54.12,-22.0,0.24,1
3610,54.13,-18.77,-0.23,1
3611,54.15,-22.33,-2.93,1
3612,54.16,-21.98,-1.29,1
3613,54.17,-22.49,10.23,1
3614,54.18,-32.75,32.54,1
3615,54.2,-39.8,66.93,1
3616,54.21,-31.4,143.82,1
3617,54.22,-20.02,299.36,1
3618,54.24,-9.33,423.61,1
3619,54.25,32.71,352.71,1
3620,54.26,104.84,215.5,1
3621,54.28,148.79,232.49,1
3622,54.29,144.44,296.22,1
3623,54.3,160.67,242.19,1
3624,54.32,234.68,155.08,1
3625,54.33,252.17,129.46,1
3626,54.34,182.67,118.06,1
3627,54.36,182.59,80.53,1
3628,54.37,244.5,42.03,1
3629,54.38,212.99,19.43,1
3630,54.4,86.08,-0.53,1
3631,54.41,-69.4,-24.64,1
3632,54.43,-225.5,-47.1,1
3633,54.44,-268.22,-65.38,1
3634,54.45,-170.2,-82.15,1
3635,54.47,-209.02,-98.12,1
3636,54.48,-441.38,-112.19,1
3637,54.49,-417.76,-124.51,1
3638,54.51,-77.05,-135.54,1
3639,54.52,-72.41,-145.35,1
3640,54.53,-506.35,-153.81,1
3641,54.54,-567.1,-160.97,1
3642,54.56,-116.21,-166.94,1
3643,54.57,27.21,-171.93,1
3644,54.59,-216.91,-175.89,1
3645,54.6,-165.41,-179.09,1
3646,54.61,99.39,-181.16,1
3647,54.63,46.78,-181.99,1
3648,54.64,-159.53,-193.22,1
3649,54.65,-165.73,-241.59,1
3650,54.67,-83.48,-331.82,1
3651,54.68,-109.61,-403.34,1
3652,54.69,-211.4,-388.7,1
3653,54.71,-212.01,-328.71,1
3654,54.72,-21.99,-305.55,1
3655,54.73,149.22,-344.29,1
3656,54.75,56.16,-417.52,1
3657,54.76,-98.2,-378.12,1
3658,54.77,-23.06,-184.23,1
3659,54.79,14.71,-89.22,1
3660,54.8,-187.5,-187.37,1
3661,54.81,-234.22,-305.84,1
3662,54.82,-26.88,-367.8,1
3663,54.84,97.33,-387.0,1
3664,54.85,92.45,-381.59,1
3665,54.86,25.01,-302.62,1
3666,54.88,-10.95,-25.79,1
3667,54.89,89.98,311.1,1
3668,54.9,92.72,290.67,1
3669,54.92,-34.37,-161.7,1
3670,54.93,10.4,-511.45,1
3671,54.94,65.81,-381.64,1
3672,54.96,-41.69,-110.93,1
3673,54.97,2.58,-51.95,1
3674,54.98,152.34,-116.68,1
3675,55.0,90.68,-194.17,1
3676,55.01,-15.75,-245.44,1
3677,55.02,16.83,-224.02,1
3678,55.04,31.47,-157.97,1
3679,55.05,-43.7,-96.31,1
3680,55.06,-83.21,-47.36,1
3681,55.08,-13.24,-1.66,1
3682,55.09,69.37,43.58,1
3683,55.11,30.04,84.52,1
3684,55.12,-113.84,120.85,1
3685,55.13,-200.72,154.95,1
3686,55.15,-152.78,186.57,1
3687,55.16,-74.97,214.41,1
3688,55.17,-35.93,239.2,1
3689,55.19,29.94,262.27,1
3690,55.2,145.4,288.35,1
3691,55.21,234.28,334.09,1
3692,55.22,262.21,408.45,1
3693,55.24,273.32,488.16,1
3694,55.25,296.32,545.11,1
3695,55.27,319.04,574.29,1
3696,55.28,330.13,580.69,1
3697,55.29,329.1,569.89,1
3698,55.31,321.12,554.61,1
3699,55.32,312.14,542.55,1
3700,55.33,300.03,523.69,1
3701,55.35,283.18,491.94,1
3702,55.36,266.82,458.02,1
3703,55.37,249.63,437.09,1
3704,55.38,230.06,432.91,1
3705,55.4,215.55,423.81,1
3706,55.41,205.95,391.61,1
3707,55.43,188.11,353.67,1
3708,55.44,160.27,329.59,1
3709,55.45,141.27,313.14,1
3710,55.46,134.85,293.84,1
3711,55.48,117.96,270.82,1
3712,55.49,90.3,246.2,1
3713,55.5,79.07,220.52,1
3714,55.52,79.5,190.22,1
3715,55.53,62.66,154.77,1
3716,55.54,35.47,127.68,1
3717,55.56,21.5,114.59,1
3718,55.57,14.44,99.35,1
3719,55.58,1.66,77.45,1
3720,55.6,-10.93,63.23,1
3721,55.61,-20.86,54.03,1
3722,55.62,-32.8,33.62,1
3723,55.64,-41.5,5.48,1
3724,55.65,-40.82,-10.33,1
3725,55.66,-43.71,-13.55,1
3726,55.68,-67.0,-29.13,1
3727,55.69,-94.68,-59.86,1
3728,55.71,-102.28,-75.76,1
3729,55.72,-105.09,-69.35,1
3730,55.73,-120.85,-67.97,1
3731,55.75,-132.95,-80.81,1
3732,55.76,-135.87,-90.95,1
3733,55.77,-144.16,-99.27,1
3734,55.79,-154.16,-116.8,1
3735,55.8,-154.46,-133.61,1
3736,55.81,-147.83,-141.09,1
3737,55.83,-144.9,-146.99,1
3738,55.84,-152.25,-154.87,1
3739,55.85,-162.47,-161.11,1
3740,55.87,-165.16,-165.21,1
3741,55.88,-163.32,-173.34,1
3742,55.89,-161.81,-185.52,1
3743,55.9,-155.23,-187.16,1
3744,55.92,-143.37,-176.81,1
3745,55.93,-135.38,-171.0,1
3746,55.95,-133.17,-170.55,1
3747,55.96,-133.31,-170.79,1
3748,55.97,-131.34,-178.41,1
3749,55.99,-122.75,-191.73,1
3750,56.0,-114.8,-201.43,1
3751,56.01,-113.27,-201.9,1
3752,56.03,-109.39,-192.02,1
3753,56.04,-101.45,-182.61,1
3754,56.05,-99.52,-180.03,1
3755,56.06,-102.39,-173.45,1
3756,56.08,-99.83,-165.77,1
3757,56.09,-90.09,-172.38,1
3758,56.1,-78.14,-182.96,1
3759,56.12,-68.13,-181.73,1
3760,56.13,-63.5,-177.04,1
3761,56.14,-63.76,-175.21,1
3762,56.16,-65.65,-171.9,2
3763,56.17,-65.8,-163.77,2
3764,56.18,-59.96,-145.38,2
3765,56.2,-48.44,-123.74,2
3766,56.21,-21.32,-116.95,2
3767,56.22,61.36,-124.76,2
3768,56.24,206.09,-134.27,2
3769,56.25,331.05,-136.93,2
3770,56.26,363.58,-125.19,2
3771,56.28,325.47,-109.93,2
3772,56.29,269.27,-117.19,2
3773,56.3,205.89,-136.11,2
3774,56.32,127.28,-129.38,2
3775,56.33,50.05,-103.46,2
3776,56.35,-6.47,-92.8,2
3777,56.36,-56.73,-100.16,2
3778,56.37,-111.87,-103.41,2
3779,56.38,-149.92,-90.87,2
3780,56.4,-166.33,-74.3,2
3781,56.41,-184.2,-69.66,2
3782,56.43,-202.84,-72.8,2
3783,56.44,-202.67,-70.11,2
3784,56.45,-189.17,-53.52,2
3785,56.47,-184.29,-32.06,2
3786,56.48,-190.23,-31.18,2
3787,56.49,-192.29,-49.74,2
3788,56.51,-187.29,-52.21,2
3789,56.52,-177.99,-30.65,2
3790,56.53,-158.16,-12.52,2
3791,56.54,-134.2,-6.54,2
3792,56.56,-122.81,-3.66,1
3793,56.57,-116.17,-4.88,1
3794,56.59,-100.03,-7.13,1
3795,56.6,-83.78,-3.85,1
3796,56.61,-71.53,0.34,1
3797,56.63,-56.5,6.33,1
3798,56.64,-41.81,13.81,1
3799,56.65,-24.43,13.99,1
3800,56.67,-2.98,15.79,1
3801,56.68,7.57,29.26,1
3802,56.69,7.26,41.88,1
3803,56.71,10.12,45.27,1
3804,56.72,20.26,42.17,1
3805,56.73,35.71,36.57,1
3806,56.74,50.49,36.32,1
3807,56.76,57.39,40.69,1
3808,56.77,60.89,41.97,1
3809,56.78,68.76,44.14,1
3810,56.8,76.46,50.1,1
3811,56.81,79.04,51.76,1
3812,56.82,82.81,52.28,1
3813,56.84,91.01,60.36,1
3814,56.85,98.89,64.8,1
3815,56.86,98.42,58.97,1
3816,56.88,89.67,58.68,1
3817,56.89,91.37,68.27,1
3818,56.9,109.17,72.75,1
3819,56.92,116.8,67.76,1
3820,56.93,105.46,64.44,1
3821,56.94,104.19,66.14,1
3822,56.96,128.59,65.42,1
3823,56.97,148.92,60.92,1
3824,56.99,134.18,59.54,1
3825,57.0,102.07,67.62,1
3826,57.01,87.51,80.54,1
3827,57.03,88.12,80.95,1
3828,57.04,85.05,63.84,1
3829,57.05,80.94,49.4,1
3830,57.06,86.15,54.74,1
3831,57.08,94.15,69.89,1
3832,57.09,91.83,74.27,1
3833,57.11,83.92,69.66,1
3834,57.12,83.45,69.51,1
3835,57.13,86.5,66.52,1
3836,57.15,84.88,54.63,1
3837,57.16,80.0,47.84,1
3838,57.17,72.25,52.75,1
3839,57.19,63.58,60.24,1
3840,57.2,60.91,58.75,1
3841,57.21,61.29,48.45,1
3842,57.22,58.09,44.13,1
3843,57.24,56.88,49.25,1
3844,57.25,64.12,54.79,1
3845,57.27,68.79,61.08,1
3846,57.28,57.04,66.6,1
3847,57.29,35.85,59.15,1
3848,57.31,24.54,45.28,1
3849,57.32,30.56,45.31,1
3850,57.33,43.53,52.53,1
3851,57.35,48.09,50.36,1
3852,57.36,41.3,42.49,1
3853,57.37,32.83,32.17,1
3854,57.38,24.07,18.44,1
3855,57.4,10.47,11.78,1
3856,57.41,3.81,15.77,1
3857,57.42,12.89,19.96,1
3858,57.44,21.97,21.43,1
3859,57.45,19.03,24.88,1
3860,57.46,13.35,28.69,1
3861,57.48,14.06,26.43,1
3862,57.49,13.57,16.71,1
3863,57.5,0.44,7.78,1
3864,57.52,-13.31,4.05,1
3865,57.53,-8.93,1.13,1
3866,57.54,1.42,2.63,1
3867,57.56,-0.63,10.86,1
3868,57.57,-8.85,11.98,1
3869,57.58,-10.7,1.3,1
3870,57.6,-5.67,-4.47,1
3871,57.61,-6.59,-0.46,1
3872,57.63,-19.41,0.47,1
3873,57.64,-27.11,-4.61,1
3874,57.65,-22.16,-7.8,1
3875,57.67,-25.04,-8.07,1
3876,57.68,-36.75,-10.3,1
3877,57.69,-34.61,-12.62,1
3878,57.71,-24.4,-10.9,1
3879,57.72,-28.82,-11.3,1
3880,57.73,-41.54,-15.91,1
3881,57.75,-44.05,-13.77,1
3882,57.76,-36.66,-7.64,1
3883,57.77,-31.65,-14.12,1
3884,57.79,-31.9,-23.16,1
3885,57.8,-35.11,-13.48,1
3886,57.81,-47.51,1.08,1
3887,57.83,-59.97,0.26,1
3888,57.84,-48.92,-5.83,1
3889,57.85,-20.71,-5.89,1
3890,57.87,-4.3,-6.97,1
3891,57.88,-10.3,-11.37,1
3892,57.89,-28.31,-9.77,1
3893,57.9,-42.37,-3.16,1
3894,57.92,-45.75,-2.3,1
3895,57.93,-41.65,-9.94,1
3896,57.95,-34.3,-22.04,1
3897,57.96,-30.96,-27.53,1
3898,57.97,-37.42,-20.07,1
3899,57.99,-46.39,-11.39,1
3900,58.0,-47.44,-11.27,1
3901,58.01,-38.63,-16.44,1
3902,58.02,-24.59,-21.73,1
3903,58.04,-17.68,-23.5,1
3904,58.05,-28.46,-22.17,1
3905,58.06,-43.94,-20.23,1
3906,58.08,-44.56,-18.19,1
3907,58.09,-36.06,-18.68,1
3908,58.1,-35.03,-21.84,1
3909,58.12,-38.01,-20.64,1
3910,58.13,-31.83,-17.29,1
3911,58.14,-18.18,-18.86,1
3912,58.16,-11.65,-20.19,0
3913,58.17,-22.85,-19.67,0
3914,58.18,-41.86,-20.16,0
3915,58.2,-47.62,-17.0,0
3916,58.21,-37.34,-17.93,0
3917,58.22,-23.59,-27.97,0
3918,58.24,-15.1,-27.77,0
3919,58.25,-22.28,-13.43,0
3920,58.26,-66.48,-4.52,0
3921,58.28,-151.42,-5.18,0
3922,58.29,-245.35,-10.47,0
3923,58.31,-319.55,-22.6,0
3924,58.32,-364.74,-35.27,0
3925,58.33,-369.96,-39.32,0
3926,58.35,-333.67,-42.69,0
3927,58.36,-280.36,-53.61,0
3928,58.37,-235.9,-61.19,0
3929,58.38,-200.85,-49.82,0
3930,58.4,-165.03,-24.85,0
3931,58.41,-109.86,-10.68,0
3932,58.43,7.95,-10.78,0
3933,58.44,185.0,-4.27,0
3934,58.45,318.15,6.61,0
3935,58.47,343.36,7.77,0
3936,58.48,323.61,9.61,0
3937,58.49,322.07,15.01,0
3938,58.51,323.09,10.47,0
3939,58.52,303.1,5.75,0
3940,58.53,276.96,14.19,0
3941,58.54,262.19,22.14,0
3942,58.56,250.35,21.31,1
3943,58.57,230.13,17.38,1
3944,58.59,205.14,11.48,1
3945,58.6,179.33,13.88,1
3946,58.61,155.48,29.2,1
3947,58.63,142.27,37.05,1
3948,58.64,138.49,26.47,1
3949,58.65,124.52,8.39,1
3950,58.66,82.75,-3.26,1
3951,58.68,29.96,-0.55,1
3952,58.69,10.1,9.9,1
3953,58.7,31.3,11.04,1
3954,58.72,54.7,-2.7,1
3955,58.73,58.8,-17.95,1
3956,58.74,55.53,-20.98,1
3957,58.76,53.45,-11.59,1
3958,58.77,48.22,-0.07,1
3959,58.78,36.75,3.75,1
3960,58.8,21.58,2.96,1
3961,58.81,8.67,7.57,1
3962,58.82,3.67,12.92,1
3963,58.84,0.39,5.33,1
3964,58.85,-9.92,-9.6,1
3965,58.86,-19.51,-14.75,1
3966,58.88,-23.09,-9.01,1
3967,58.89,-25.7,-2.31,1
3968,58.9,-27.91,-2.05,1
3969,58.92,-33.03,-5.1,1
3970,58.93,-45.26,-2.95,1
3971,58.95,-54.25,1.45,1
3972,58.96,-55.3,1.01,1
3973,58.97,-62.88,-3.62,1
3974,58.99,-74.71,-6.61,1
3975,59.0,-70.17,-3.18,1
3976,59.01,-55.3,0.47,1
3977,59.03,-51.72,-0.65,1
3978,59.04,-58.84,3.52,1
3979,59.05,-64.25,10.82,1
3980,59.06,-61.81,5.26,1
3981,59.08,-52.32,-2.64,1
3982,59.09,-48.63,3.22,1
3983,59.11,-60.38,5.89,1
3984,59.12,-71.96,-5.54,1
3985,59.13,-70.48,-13.73,1
3986,59.15,-66.26,-10.0,1
3987,59.16,-64.01,-1.89,1
3988,59.17,-59.3,0.64,1
3989,59.19,-55.6,-5.64,1
3990,59.2,-55.95,-9.59,1
3991,59.21,-56.73,-6.87,1
3992,59.22,-54.12,-7.57,1
3993,59.24,-48.67,-9.51,1
3994,59.25,-46.32,-3.22,1
3995,59.27,-47.51,4.39,1
3996,59.28,-47.77,1.87,1
3997,59.29,-50.38,-7.06,1
3998,59.3,-53.33,-8.78,1
3999,59.32,-47.24,-1.49,1
4000,59.33,-40.21,0.21,1
4001,59.34,-42.02,-5.84,1
4002,59.36,-41.13,0.12,1
4003,59.37,-32.13,17.59,1
4004,59.38,-27.45,20.27,1
4005,59.4,-31.15,9.9,1
4006,59.41,-31.6,10.14,1
4007,59.42,-23.57,14.7,1
4008,59.44,-18.96,11.69,1
4009,59.45,-25.29,9.18,1
4010,59.46,-30.92,7.99,1
4011,59.48,-24.61,5.6,1
4012,59.49,-12.16,6.71,1
4013,59.5,-3.36,8.16,1
4014,59.52,-4.43,7.85,1
4015,59.53,-16.96,10.04,1
4016,59.54,-27.01,10.21,1
4017,59.56,-19.81,4.7,1
4018,59.57,-5.25,-0.52,1
4019,59.59,-1.41,2.16,1
4020,59.6,-7.35,14.7,1
4021,59.61,-9.23,22.55,1
4022,59.63,-3.43,13.24,1
4023,59.64,2.23,-0.93,1
4024,59.65,3.02,-7.23,1
4025,59.67,0.4,-4.76,1
4026,59.68,1.02,5.49,1
4027,59.69,10.88,9.79,1
4028,59.71,22.1,-1.75,1
4029,59.72,20.63,-12.06,1
4030,59.73,8.88,-10.15,1
4031,59.75,0.45,-6.97,1
4032,59.76,-1.27,-3.51,1
4033,59.77,1.63,7.86,1
4034,59.79,10.35,18.99,1
4035,59.8,23.09,17.62,1
4036,59.81,31.6,5.98,1
4037,59.83,28.84,-5.19,1
4038,59.84,20.0,-9.91,1
4039,59.85,16.99,-10.6,1
4040,59.87,22.57,-8.4,1
4041,59.88,29.44,-2.13,1
4042,59.89,31.99,0.11,1
4043,59.9,30.87,-6.47,1
4044,59.92,24.26,-9.78,1
4045,59.93,12.72,-5.06,1
4046,59.94,9.95,-1.35,1
4047,59.96,18.09,2.68,1
4048,59.97,26.07,6.96,1
4049,59.98,34.67,4.01,1
4050,60.0,38.35,0.6,1
4051,60.01,28.14,4.18,1
4052,60.02,20.75,9.01,1
4053,60.04,27.64,12.62,1
4054,60.05,31.37,13.59,1
4055,60.06,25.08,6.98,1
4056,60.08,22.85,-1.88,1
4057,60.09,25.68,-5.34,1
4058,60.1,23.82,-4.09,1
4059,60.12,17.75,-0.18,1
4060,60.13,11.68,1.05,1
4061,60.14,8.28,-3.27,1
4062,60.16,10.65,-3.79,0
4063,60.17,17.37,-2.19,0
4064,60.18,22.73,-11.39,0
4065,60.2,19.89,-21.66,0
4066,60.21,4.97,-18.14,0
4067,60.22,-34.44,-14.64,0
4068,60.24,-126.57,-19.9,0
4069,60.25,-257.23,-18.35,0
4070,60.27,-351.11,-10.37,0
4071,60.28,-361.13,-7.37,0
4072,60.29,-313.34,-3.7,0
4073,60.31,-254.58,2.81,0
4074,60.32,-190.47,9.61,0
4075,60.33,-103.13,18.81,0
4076,60.35,-11.53,20.35,0
4077,60.36,50.76,9.24,0
4078,60.37,89.95,-0.29,0
4079,60.38,128.81,-0.59,0
4080,60.4,166.69,2.81,0
4081,60.41,192.33,1.54,0
4082,60.43,206.87,-6.81,0
4083,60.44,220.58,-12.55,0
4084,60.45,235.89,-9.22,0
4085,60.47,245.54,-4.96,0
4086,60.48,247.42,-4.36,0
4087,60.49,243.98,-0.19,0
4088,60.51,232.39,9.99,0
4089,60.52,212.13,16.96,0
4090,60.53,192.09,12.61,0
4091,60.54,180.99,5.38,0
4092,60.56,173.22,9.06,1
4093,60.57,160.05,14.5,1
4094,60.58,146.24,7.79,1
4095,60.6,134.73,4.49,1
4096,60.61,121.86,12.47,1
4097,60.62,115.19,10.09,1
4098,60.64,117.8,-0.04,1
4099,60.65,116.49,3.87,1
4100,60.66,104.78,10.86,1
4101,60.68,87.5,5.06,1
4102,60.69,68.28,0.49,1
4103,60.7,46.73,8.18,1
4104,60.72,26.54,20.64,1
4105,60.73,16.34,23.93,1
4106,60.74,12.6,11.09,1
4107,60.76,2.16,2.13,1
4108,60.77,-13.06,13.44,1
4109,60.78,-22.44,22.72,1
4110,60.8,-28.59,13.69,1
4111,60.81,-37.98,2.73,1
4112,60.82,-48.99,-1.71,1
4113,60.84,-58.36,-6.22,1
4114,60.85,-65.34,-7.24,1
4115,60.86,-71.69,-1.71,1
4116,60.88,-74.05,3.41,1
4117,60.89,-66.68,2.45,1
4118,60.9,-60.53,-5.81,1
4119,60.92,-70.38,-11.91,1
4120,60.93,-88.63,-4.34,1
4121,60.95,-100.6,3.74,1
4122,60.96,-106.44,-1.76,1
4123,60.97,-110.9,-8.29,1
4124,60.99,-111.88,-8.05,1
4125,61.0,-102.59,-5.14,1
4126,61.01,-85.6,-1.92,1
4127,61.03,-75.27,-4.67,1
4128,61.04,-72.84,-9.27,1
4129,61.05,-66.79,-5.41,1
4130,61.06,-62.53,-2.77,1
4131,61.08,-70.4,-6.49,1
4132,61.09,-80.97,-0.23,1
4133,61.11,-78.4,10.49,1
4134,61.12,-65.19,1.65,1
4135,61.13,-61.96,-14.38,1
4136,61.15,-72.91,-12.23,1
4137,61.16,-75.69,-4.34,1
4138,61.17,-67.14,-8.5,1
4139,61.19,-66.31,-14.37,1
4140,61.2,-71.58,-14.23,1
4141,61.21,-67.95,-13.02,1
4142,61.22,-61.32,-7.05,1
4143,61.24,-62.92,1.25,1
4144,61.25,-61.69,-4.74,1
4145,61.26,-50.92,-18.55,1
4146,61.28,-44.84,-17.08,1
4147,61.29,-49.15,-7.09,1
4148,61.3,-57.42,-12.87,1
4149,61.32,-64.11,-25.08,1
4150,61.33,-61.87,-17.17,1
4151,61.34,-49.09,-1.64,1
4152,61.36,-39.78,-3.86,1
4153,61.37,-42.73,-12.61,1
4154,61.38,-41.88,-9.81,1
4155,61.4,-29.23,0.45,1
4156,61.41,-24.36,9.64,1
4157,61.42,-30.65,12.88,1
4158,61.44,-29.21,12.3,1
4159,61.45,-20.6,13.56,1
4160,61.46,-15.6,8.48,1
4161,61.48,-10.82,-9.22,1
4162,61.49,-4.96,-24.58,1
4163,61.5,-4.06,-25.88,1
4164,61.52,-7.57,-16.98,1
4165,61.53,-9.3,-3.45,1
4166,61.54,-6.95,6.66,1
4167,61.56,-5.25,8.45,1
4168,61.57,-9.02,5.88,1
4169,61.59,-12.63,-2.06,1
4170,61.6,-5.43,-10.94,1
4171,61.61,8.98,-5.47,1
4172,61.63,16.67,6.57,1
4173,61.64,16.97,3.85,1
4174,61.65,17.21,-8.48,1
4175,61.67,19.41,-12.8,1
4176,61.68,24.61,-4.64,1
4177,61.69,28.78,8.21,1
4178,61.71,27.39,13.34,1
4179,61.72,23.64,10.88,1
4180,61.73,19.67,13.29,1
4181,61.75,15.48,17.76,1
4182,61.76,11.87,9.37,1
4183,61.77,7.44,-6.83,1
4184,61.79,5.67,-13.22,1
4185,61.8,12.44,-6.39,1
4186,61.81,22.54,2.12,1
4187,61.83,29.32,3.49,1
4188,61.84,32.25,2.56,1
4189,61.85,26.85,2.5,1
4190,61.86,20.41,-3.93,1
4191,61.88,27.45,-12.48,1
4192,61.89,34.53,-8.49,1
4193,61.9,27.59,3.17,1
4194,61.92,20.4,7.9,1
4195,61.93,22.15,11.51,1
4196,61.94,24.43,18.43,1
4197,61.96,20.13,15.88,1
4198,61.97,15.62,7.79,1
4199,61.98,21.28,7.27,1
4200,62.0,31.88,7.54,1
4201,62.01,39.32,1.92,1
4202,62.02,44.28,-2.32,1
4203,62.04,40.26,2.02,1
4204,62.05,28.7,8.53,1
4205,62.06,27.25,2.95,1
4206,62.08,34.8,-10.15,1
4207,62.09,32.43,-14.12,1
4208,62.1,19.08,-12.78,1
4209,62.12,15.33,-11.49,1
4210,62.13,29.22,3.03,1
4211,62.14,39.77,21.7,1
4212,62.16,30.86,15.5,2
4213,62.17,16.01,-5.69,2
4214,62.19,14.15,-8.47,2
4215,62.2,21.41,0.97,2
4216,62.21,21.92,-0.56,2
4217,62.22,14.62,-1.24,2
4218,62.24,11.96,18.55,2
4219,62.25,21.52,48.45,2
4220,62.27,42.78,65.47,2
4221,62.28,79.34,62.67,2
4222,62.29,146.23,53.84,2
4223,62.31,241.45,50.85,2
4224,62.32,330.16,45.73,2
4225,62.33,378.99,25.35,2
4226,62.35,371.56,-5.01,2
4227,62.36,317.74,-24.87,2
4228,62.37,259.8,-28.43,2
4229,62.38,222.96,-31.17,2
4230,62.4,191.84,-36.39,2
4231,62.41,153.92,-32.8,2
4232,62.43,117.31,-23.91,2
4233,62.44,73.02,-22.82,2
4234,62.45,-23.2,-28.91,2
4235,62.47,-179.73,-35.83,2
4236,62.48,-311.56,-39.84,2
4237,62.49,-352.12,-33.79,2
4238,62.5,-348.75,-22.12,2
4239,62.52,-354.72,-21.57,2
4240,62.53,-352.8,-25.26,2
4241,62.54,-331.88,-15.41,2
4242,62.56,-311.09,-1.81,1
4243,62.57,-288.7,-1.59,1
4244,62.58,-254.24,-10.56,1
4245,62.6,-222.4,-15.37,1
4246,62.61,-211.05,-8.87,1
4247,62.62,-211.59,1.54,1
4248,62.64,-197.71,3.0,1
4249,62.65,-161.66,-0.25,1
4250,62.66,-127.69,0.82,1
4251,62.68,-119.56,0.7,1
4252,62.69,-123.13,-1.35,1
4253,62.7,-107.06,-0.37,1
4254,62.72,-76.8,-1.86,1
4255,62.73,-61.27,-3.36,1
4256,62.74,-55.24,6.26,1
4257,62.76,-39.11,18.5,1
4258,62.77,-22.99,17.9,1
4259,62.78,-18.02,0.29,1
4260,62.8,-13.04,-25.84,1
4261,62.81,-6.32,-35.51,1
4262,62.82,-12.64,-19.44,1
4263,62.84,-32.12,-0.42,1
4264,62.85,-36.16,5.29,1
4265,62.87,-6.23,5.01,1
4266,62.88,32.07,9.79,1
4267,62.89,50.51,15.6,1
4268,62.9,54.46,10.73,1
4269,62.92,56.69,-0.45,1
4270,62.93,62.04,-1.22,1
4271,62.95,70.89,8.48,1
4272,62.96,76.79,9.92,1
4273,62.97,74.31,1.37,1
4274,62.99,67.84,-0.3,1
4275,63.0,69.73,5.3,1
4276,63.01,86.19,6.84,1
4277,63.03,102.3,5.64,1
4278,63.04,98.25,4.96,1
4279,63.05,81.8,5.14,1
4280,63.06,77.65,7.25,1
4281,63.08,87.21,7.21,1
4282,63.09,90.83,4.72,1
4283,63.11,85.8,4.06,1
4284,63.12,84.44,2.09,1
4285,63.13,84.78,0.12,1
4286,63.14,81.05,2.7,1
4287,63.16,80.71,5.33,1
4288,63.17,79.89,8.62,1
4289,63.18,66.7,19.05,1
4290,63.2,55.93,26.62,1
4291,63.21,65.27,18.22,1
4292,63.22,79.95,3.05,1
4293,63.24,79.52,-0.79,1
4294,63.25,69.02,11.18,1
4295,63.26,59.88,25.33,1
4296,63.28,52.07,23.87,1
4297,63.29,49.5,12.61,1
4298,63.3,59.08,8.79,1
4299,63.32,69.33,8.95,1
4300,63.33,66.58,5.34,1
4301,63.34,56.08,-2.54,1
4302,63.36,47.49,-14.5,1
4303,63.37,41.62,-17.68,1
4304,63.38,38.25,-4.39,1
4305,63.4,40.99,4.56,1
4306,63.41,44.06,-1.58,1
4307,63.42,35.94,-4.23,1
4308,63.44,25.07,2.13,1
4309,63.45,22.92,3.16,1
4310,63.46,19.74,-3.97,1
4311,63.48,10.87,-9.57,1
4312,63.49,9.0,-4.85,1
4313,63.51,16.83,7.05,1
4314,63.52,20.11,12.29,1
4315,63.53,13.19,7.41,1
4316,63.54,6.43,2.97,1
4317,63.56,6.61,1.39,1
4318,63.57,6.97,-1.3,1
4319,63.59,1.21,-1.35,1
4320,63.6,-3.78,-0.58,1
4321,63.61,0.95,-3.21,1
4322,63.63,7.9,-2.59,1
4323,63.64,4.07,0.48,1
4324,63.65,-5.9,0.17,1
4325,63.67,-12.37,-0.72,1
4326,63.68,-16.55,-0.24,1
4327,63.69,-19.24,2.82,1
4328,63.71,-19.87,7.63,1
4329,63.72,-20.07,3.83,1
4330,63.73,-20.8,-7.47,1
4331,63.75,-22.62,-10.55,1
4332,63.76,-22.97,-7.1,1
4333,63.77,-19.58,-5.87,1
4334,63.78,-17.89,-2.2,1
4335,63.8,-23.31,1.54,1
4336,63.81,-31.3,-2.8,1
4337,63.82,-31.94,-7.09,1
4338,63.84,-25.62,-2.55,1
4339,63.85,-25.3,2.75,1
4340,63.86,-30.94,0.15,1
4341,63.88,-25.98,-7.48,1
4342,63.89,-12.78,-10.2,1
4343,63.9,-11.18,-3.66,1
4344,63.92,-20.21,1.12,1
4345,63.93,-29.05,-2.4,1
4346,63.94,-36.98,-2.72,1
4347,63.96,-37.47,1.48,1
4348,63.97,-27.35,1.57,1
4349,63.98,-24.83,2.54,1
4350,64.0,-39.13,5.47,1
4351,64.01,-49.68,2.02,1
4352,64.02,-45.47,-2.36,1
4353,64.04,-40.15,-2.19,1
4354,64.05,-37.28,-1.87,1
4355,64.06,-32.42,-1.08,1
4356,64.08,-30.84,-0.82,1
4357,64.09,-29.89,-3.51,1
4358,64.1,-23.03,-5.47,1
4359,64.12,-22.35,-4.87,1
4360,64.13,-33.14,-2.94,1
4361,64.14,-34.99,0.91,1
4362,64.16,-18.84,19.11,1
4363,64.17,-7.66,70.78,1
4364,64.18,-18.46,160.02,1
4365,64.2,-35.08,270.72,1
4366,64.21,-41.86,335.29,1
4367,64.22,-51.47,317.9,1
4368,64.24,-65.55,300.2,1
4369,64.25,-53.96,304.03,1
4370,64.26,35.1,263.29,1
4371,64.28,245.48,198.66,1
4372,64.29,460.02,162.45,1
4373,64.3,466.86,139.18,1
4374,64.32,323.05,105.7,1
4375,64.33,247.4,70.41,1
4376,64.34,234.2,43.23,1
4377,64.36,180.06,19.62,1
4378,64.37,113.08,-4.73,1
4379,64.38,16.21,-27.83,1
4380,64.4,-217.11,-47.83,1
4381,64.41,-461.01,-65.98,1
4382,64.42,-511.4,-82.61,1
4383,64.44,-445.14,-97.34,1
4384,64.45,-314.51,-110.32,1
4385,64.46,-147.84,-122.4,1
4386,64.48,-152.71,-133.77,1
4387,64.49,-257.47,-143.71,1
4388,64.5,-188.92,-151.75,1
4389,64.52,-47.88,-158.28,1
4390,64.53,-137.84,-163.68,1
4391,64.54,-395.8,-168.38,1
4392,64.56,-424.63,-172.79,1
4393,64.57,-166.17,-176.96,1
4394,64.58,-12.7,-198.47,1
4395,64.6,-65.34,-273.07,1
4396,64.61,5.34,-360.12,1
4397,64.62,187.18,-364.75,1
4398,64.64,119.4,-310.78,1
4399,64.65,-73.26,-310.81,1
4400,64.66,3.34,-407.57,1
4401,64.68,137.3,-492.59,1
4402,64.69,-60.09,-473.89,1
4403,64.7,-336.66,-465.54,1
4404,64.72,-342.88,-527.75,1
4405,64.73,-157.25,-556.41,1
4406,64.74,98.93,-495.82,1
4407,64.76,318.7,-325.38,1
4408,64.77,282.12,-44.31,1
4409,64.79,-5.83,139.43,1
4410,64.8,-180.16,-31.54,1
4411,64.81,-107.86,-272.65,1
4412,64.82,-56.09,-152.43,1
4413,64.84,-47.0,29.06,1
4414,64.85,38.93,-25.88,1
4415,64.86,91.43,-9.31,1
4416,64.88,66.07,160.27,1
4417,64.89,23.78,270.28,1
4418,64.9,5.25,259.91,1
4419,64.92,46.12,120.81,1
4420,64.93,150.25,1.45,1
4421,64.94,298.73,97.81,1
4422,64.96,379.64,292.55,1
4423,64.97,279.19,418.18,1
4424,64.98,80.45,401.38,1
4425,65.0,24.61,50.49,1
4426,65.01,192.16,-431.1,1
4427,65.02,275.26,-366.8,1
4428,65.04,74.36,183.39,1
4429,65.05,-66.56,385.27,1
4430,65.06,76.07,70.34,1
4431,65.08,152.44,-165.43,1
4432,65.09,-2.67,-139.71,1
4433,65.1,-90.56,-147.16,1
4434,65.12,-13.81,-212.68,1
4435,65.13,62.4,-172.4,1
4436,65.14,73.31,-73.51,1
4437,65.16,51.55,-28.62,1
4438,65.17,12.2,-13.36,1
4439,65.18,-62.88,24.16,1
4440,65.2,-158.87,68.77,1
4441,65.21,-221.48,98.05,1
4442,65.22,-216.75,120.98,1
4443,65.24,-146.21,147.58,1
4444,65.25,-46.33,172.63,1
4445,65.26,40.7,191.98,1
4446,65.28,102.39,209.21,1
4447,65.29,142.55,240.92,1
4448,65.3,169.99,319.05,1
4449,65.32,200.78,428.6,1
4450,65.33,233.16,492.45,1
4451,65.34,241.49,494.75,1
4452,65.36,225.33,505.2,1
4453,65.37,216.05,542.25,1
4454,65.38,219.1,545.98,1
4455,65.4,210.99,497.18,1
4456,65.41,189.86,452.18,1
4457,65.42,169.78,438.6,1
4458,65.44,149.67,417.95,1
4459,65.45,128.45,376.05,1
4460,65.46,114.91,343.3,1
4461,65.48,107.71,325.16,1
4462,65.49,97.73,303.7,1
4463,65.5,85.18,275.97,1
4464,65.52,72.0,242.84,1
4465,65.53,54.59,207.38,1
4466,65.54,37.64,183.42,1
4467,65.56,28.6,170.3,1
4468,65.57,21.95,148.53,1
4469,65.58,11.59,119.55,1
4470,65.6,1.34,102.45,1
4471,65.61,-10.03,93.24,1
4472,65.62,-26.77,77.84,1
4473,65.64,-44.29,57.32,1
4474,65.65,-57.9,34.39,1
4475,65.66,-66.58,12.1,1
4476,65.68,-67.73,-3.1,1
4477,65.69,-64.34,-15.82,1
4478,65.7,-64.57,-37.34,1
4479,65.72,-71.4,-63.35,1
4480,65.73,-86.26,-71.95,1
4481,65.74,-103.9,-59.6,1
4482,65.76,-108.79,-57.03,1
4483,65.77,-103.07,-80.51,1
4484,65.78,-103.34,-105.38,1
4485,65.8,-106.99,-113.95,1
4486,65.81,-105.82,-119.95,1
4487,65.82,-108.25,-133.74,1
4488,65.84,-118.32,-146.81,1
4489,65.85,-124.21,-153.52,1
4490,65.86,-121.3,-158.77,1
4491,65.88,-116.73,-163.63,1
4492,65.89,-114.24,-163.09,1
4493,65.9,-116.9,-162.88,1
4494,65.92,-122.93,-172.18,1
4495,65.93,-120.5,-183.3,1
4496,65.94,-107.05,-187.08,1
4497,65.96,-95.82,-188.24,1
4498,65.97,-96.35,-189.25,1
4499,65.98,-98.87,-185.13,1
4500,66.0,-91.54,-177.46,1
4501,66.01,-84.5,-175.55,1
4502,66.02,-87.52,-181.41,1
4503,66.04,-88.27,-188.0,1
4504,66.05,-81.9,-192.99,1
4505,66.06,-80.61,-195.83,1
4506,66.08,-80.99,-191.18,1
4507,66.09,-72.95,-182.16,1
4508,66.11,-65.8,-177.47,1
4509,66.12,-65.85,-175.99,1
4510,66.13,-66.12,-170.81,1
4511,66.14,-64.33,-161.17,1
4512,66.16,-60.22,-156.86,2
4513,66.17,-52.77,-158.75,2
4514,66.18,-43.85,-154.38,2
4515,66.2,-32.55,-149.16,2
4516,66.21,-24.01,-145.75,2
4517,66.22,-29.9,-122.27,2
4518,66.24,-30.96,-84.84,2
4519,66.25,19.7,-69.53,2
4520,66.26,139.08,-81.63,2
4521,66.28,283.02,-98.66,2
4522,66.29,370.67,-110.39,2
4523,66.3,358.46,-116.77,2
4524,66.32,292.53,-114.87,2
4525,66.33,239.45,-108.77,2
4526,66.34,193.71,-107.9,2
4527,66.36,118.1,-112.79,2
4528,66.37,24.0,-115.55,2
4529,66.38,-50.81,-105.38,2
4530,66.4,-98.0,-89.09,2
4531,66.41,-136.4,-88.62,2
4532,66.42,-175.49,-93.6,2
4533,66.44,-201.07,-79.57,2
4534,66.45,-204.7,-61.43,2
4535,66.46,-203.84,-57.51,2
4536,66.48,-206.73,-56.76,2
4537,66.49,-201.21,-50.25,2
4538,66.5,-190.63,-40.93,2
4539,66.52,-183.2,-28.5,2
4540,66.53,-170.27,-18.46,2
4541,66.54,-156.26,-20.67,2
4542,66.56,-153.83,-24.52,1
4543,66.57,-151.06,-15.69,1
4544,66.58,-137.33,-5.54,1
4545,66.6,-124.12,-3.27,1
4546,66.61,-114.81,3.34,1
4547,66.62,-100.31,15.54,1
4548,66.64,-80.59,20.33,1
4549,66.65,-61.48,14.97,1
4550,66.66,-45.29,8.24,1
4551,66.68,-31.92,12.37,1
4552,66.69,-18.87,23.26,1
4553,66.7,-5.38,25.83,1
4554,66.72,3.48,23.89,1
4555,66.73,10.45,25.03,1
4556,66.75,23.87,27.71,1
4557,66.76,36.43,32.16,1
4558,66.77,37.82,35.88,1
4559,66.79,36.55,41.08,1
4560,66.8,44.65,52.18,1
4561,66.81,60.08,57.91,1
4562,66.82,69.47,55.7,1
4563,66.84,68.26,58.72,1
4564,66.85,70.97,65.46,1
4565,66.86,82.91,67.35,1
4566,66.88,88.43,66.86,1
4567,66.89,83.0,67.86,1
4568,66.9,80.0,69.76,1
4569,66.92,86.33,70.13,1
4570,66.93,94.12,68.46,1
4571,66.94,97.14,69.86,1
4572,66.96,99.27,76.48,1
4573,66.97,103.19,78.15,1
4574,66.98,101.22,69.75,1
4575,67.0,91.29,63.28,1
4576,67.01,87.16,64.76,1
4577,67.02,94.75,67.99,1
4578,67.04,103.19,72.03,1
4579,67.05,105.67,72.61,1
4580,67.06,102.76,64.28,1
4581,67.08,101.54,60.47,1
4582,67.09,105.68,67.63,1
4583,67.1,100.76,71.43,1
4584,67.12,83.16,68.23,1
4585,67.13,75.2,65.46,1
4586,67.14,84.01,63.64,1
4587,67.16,89.78,60.36,1
4588,67.17,84.13,53.22,1
4589,67.18,79.12,46.09,1
4590,67.2,77.66,49.37,1
4591,67.21,78.64,57.55,1
4592,67.22,83.14,56.7,1
4593,67.24,78.21,53.32,1
4594,67.25,60.19,53.84,1
4595,67.26,49.77,49.19,1
4596,67.28,53.34,42.5,1
4597,67.29,54.77,41.88,1
4598,67.3,51.12,41.08,1
4599,67.32,54.4,40.56,1
4600,67.33,59.83,46.22,1
4601,67.34,51.52,50.89,1
4602,67.36,36.62,51.05,1
4603,67.37,35.8,49.12,1
4604,67.38,41.61,38.61,1
4605,67.4,34.22,25.42,1
4606,67.41,25.25,30.31,1
4607,67.43,27.99,45.96,1
4608,67.44,27.89,42.47,1
4609,67.45,21.83,18.68,1
4610,67.46,25.28,3.44,1
4611,67.48,33.39,7.69,1
4612,67.49,22.47,14.4,1
4613,67.5,-3.02,14.77,1
4614,67.52,-12.35,15.49,1
4615,67.53,-3.59,13.1,1
4616,67.54,-4.03,2.99,1
4617,67.56,-16.67,-0.9,1
4618,67.57,-18.61,7.59,1
4619,67.58,-7.15,13.4,1
4620,67.6,0.76,8.66,1
4621,67.61,-1.71,0.68,1
4622,67.62,-9.78,-3.72,1
4623,67.64,-17.02,-4.64,1
4624,67.65,-17.83,-4.99,1
4625,67.66,-15.77,-4.94,1
4626,67.68,-20.61,-4.94,1
4627,67.69,-30.81,-8.84,1
4628,67.7,-31.33,-11.75,1
4629,67.72,-20.4,-4.26,1
4630,67.73,-18.95,2.97,1
4631,67.74,-33.27,-3.75,1
4632,67.76,-46.16,-13.41,1
4633,67.77,-47.28,-14.57,1
4634,67.78,-36.48,-14.63,1
4635,67.8,-23.91,-18.29,1
4636,67.81,-29.19,-22.07,1
4637,67.82,-48.79,-23.33,1
4638,67.84,-58.92,-16.17,1
4639,67.85,-53.75,-2.91,1
4640,67.86,-44.66,-3.83,1
4641,67.88,-40.01,-23.67,1
4642,67.89,-39.16,-39.24,1
4643,67.9,-37.98,-37.96,1
4644,67.92,-38.34,-27.31,1
4645,67.93,-40.12,-15.86,1
4646,67.94,-34.89,-7.78,1
4647,67.96,-24.46,-2.14,1
4648,67.97,-24.77,-3.21,1
4649,67.98,-39.4,-15.07,1
4650,68.0,-48.96,-21.78,1
4651,68.01,-40.35,-14.82,1
4652,68.02,-32.03,-13.74,1
4653,68.04,-39.03,-24.52,1
4654,68.05,-44.44,-31.15,1
4655,68.06,-36.98,-28.24,1
4656,68.08,-32.38,-24.0,1
4657,68.09,-35.95,-25.47,1
4658,68.11,-36.03,-26.99,1
4659,68.12,-33.43,-18.21,1
4660,68.13,-32.97,-8.56,1
4661,68.14,-33.37,-6.67,1
4662,68.16,-35.33,-3.45,0
4663,68.17,-33.98,-3.94,0
4664,68.18,-25.61,-16.35,0
4665,68.2,-22.05,-22.97,0
4666,68.21,-29.72,-16.33,0
4667,68.22,-35.13,-13.84,0
4668,68.24,-28.49,-21.5,0
4669,68.25,-19.36,-28.17,0
4670,68.26,-16.32,-26.53,0
4671,68.28,-16.5,-17.65,0
4672,68.29,-17.14,-6.24,0
4673,68.3,-16.48,-0.42,0
4674,68.32,-15.91,-8.42,0
4675,68.33,-17.39,-23.78,0
4676,68.34,-17.58,-27.38,0
4677,68.36,-13.88,-14.71,0
4678,68.37,-7.56,-2.71,0
4679,68.38,-2.48,-3.73,0
4680,68.4,-4.36,-10.99,0
4681,68.41,-10.34,-15.35,0
4682,68.42,-14.8,-22.81,0
4683,68.44,-17.35,-39.63,0
4684,68.45,-18.04,-51.58,0
4685,68.46,-43.05,-45.55,0
4686,68.48,-124.97,-36.77,0
4687,68.49,-229.66,-41.11,0
4688,68.5,-299.33,-51.09,0
4689,68.52,-334.28,-57.58,0
4690,68.53,-348.67,-56.84,0
4691,68.54,-329.7,-42.85,0
4692,68.56,-281.85,-19.94,1
4693,68.57,-233.3,-2.95,1
4694,68.58,-195.57,8.2,1
4695,68.6,-160.45,21.93,1
4696,68.61,-111.13,26.29,1
4697,68.62,-13.32,18.35,1
4698,68.64,142.59,26.04,1
4699,68.65,282.58,49.76,1
4700,68.66,333.24,53.25,1
4701,68.68,330.51,38.69,1
4702,68.69,339.04,37.5,1
4703,68.7,346.45,45.04,1
4704,68.72,322.13,40.67,1
4705,68.73,288.16,24.73,1
4706,68.75,275.02,10.16,1
4707,68.76,269.68,8.14,1
4708,68.77,249.78,15.62,1
4709,68.79,224.32,20.27,1
4710,68.8,202.35,19.51,1
4711,68.81,177.1,19.19,1
4712,68.82,157.75,18.39,1
4713,68.84,152.24,13.02,1
4714,68.85,141.0,5.44,1
4715,68.86,118.9,1.98,1
4716,68.88,108.67,5.19,1
4717,68.89,109.32,9.12,1
4718,68.9,94.14,7.88,1
4719,68.92,64.99,6.72,1
4720,68.93,49.11,6.64,1
4721,68.94,46.9,1.17,1
4722,68.96,41.62,-4.59,1
4723,68.97,37.81,-4.24,1
4724,68.98,34.22,-3.03,1
4725,69.0,14.86,-3.32,1
4726,69.01,-9.56,-4.11,1
4727,69.02,-17.45,-9.54,1
4728,69.04,-14.84,-13.62,1
4729,69.05,-18.93,-6.7,1
4730,69.06,-31.96,1.39,1
4731,69.08,-38.14,0.06,1
4732,69.09,-29.23,-5.9,1
