,Timestamp,Data1,Data2,Label
0,6.0,8.53,-4.74,1
1,6.01,-1.28,-5.49,1
2,6.03,-12.68,-6.71,1
3,6.04,-23.28,-7.23,1
4,6.05,-22.76,-7.78,1
5,6.07,-10.41,-3.45,1
6,6.08,-3.2,1.56,1
7,6.09,-3.95,-3.77,1
8,6.11,0.07,-10.75,1
9,6.12,8.6,-7.52,1
10,6.13,7.54,-4.57,1
11,6.15,-0.88,-10.48,2
12,6.16,15.78,-10.94,2
13,6.17,94.58,1.66,2
14,6.19,225.43,19.0,2
15,6.2,335.62,40.74,2
16,6.21,370.85,67.15,2
17,6.23,356.54,92.54,2
18,6.24,327.44,112.93,2
19,6.25,273.74,103.24,2
20,6.265,191.26,36.46,2
21,6.28,100.1,-51.0,2
22,6.29,17.66,-97.56,2
23,6.31,-41.22,-99.87,2
24,6.32,-82.04,-92.94,2
25,6.33,-130.46,-94.52,2
26,6.35,-180.43,-98.89,2
27,6.36,-205.1,-94.54,2
28,6.37,-209.28,-80.29,2
29,6.39,-218.85,-61.93,2
30,6.4,-235.37,-43.71,2
31,6.41,-240.44,-31.07,2
32,6.43,-232.62,-20.64,2
33,6.44,-221.1,-3.15,2
34,6.45,-206.7,11.69,2
35,6.47,-194.52,15.21,2
36,6.48,-192.08,21.16,2
37,6.49,-194.79,28.66,2
38,6.51,-190.79,22.7,2
39,6.52,-173.37,17.26,2
40,6.53,-150.02,27.58,2
41,6.55,-134.81,34.98,2
42,6.56,-130.24,29.46,1
43,6.57,-120.9,27.18,1
44,6.59,-94.44,32.46,1
45,6.6,-61.47,36.02,1
46,6.61,-42.65,34.09,1
47,6.63,-39.5,25.04,1
48,6.64,-38.34,14.69,1
49,6.65,-34.0,17.13,1
50,6.67,-25.44,29.53,1
51,6.68,-10.64,30.37,1
52,6.69,6.76,17.14,1
53,6.71,17.71,10.22,1
54,6.72,16.63,13.58,1
55,6.73,10.6,15.07,1
56,6.75,10.38,16.93,1
57,6.76,15.5,21.48,1
58,6.77,24.58,15.01,1
59,6.79,34.22,-0.32,1
60,6.8,33.48,-1.62,1
61,6.81,27.36,7.53,1
62,6.82,33.93,7.14,1
63,6.84,50.72,4.09,1
64,6.85,59.12,6.63,1
65,6.86,59.72,4.58,1
66,6.88,65.05,-2.89,1
67,6.89,69.97,-8.59,1
68,6.91,65.06,-9.54,1
69,6.92,60.33,-1.88,1
70,6.93,63.25,5.14,1
71,6.95,63.09,-1.09,1
72,6.96,58.79,-10.63,1
73,6.97,63.64,-10.17,1
74,6.99,74.14,-3.65,1
75,7.0,78.82,-4.1,1
76,7.01,81.44,-16.15,1
77,7.03,83.48,-22.62,1
78,7.04,76.35,-11.73,1
79,7.05,64.71,0.29,1
80,7.07,61.79,3.69,1
81,7.08,66.53,4.79,1
82,7.09,70.14,1.91,1
83,7.11,69.48,-3.66,1
84,7.12,67.79,-3.91,1
85,7.13,66.3,-3.13,1
86,7.15,58.44,-3.57,1
87,7.16,45.81,2.02,1
88,7.17,45.17,6.03,1
89,7.19,56.47,-2.51,1
90,7.2,60.9,-14.5,1
91,7.21,52.05,-19.22,1
92,7.23,38.5,-17.44,1
93,7.24,32.55,-11.91,1
94,7.25,39.39,-8.28,1
95,7.27,44.35,-8.56,1
96,7.28,39.2,-4.54,1
97,7.29,36.81,4.25,1
98,7.31,39.48,11.07,1
99,7.32,38.29,13.04,1
100,7.33,33.78,5.17,1
101,7.35,27.32,-5.09,1
102,7.36,22.07,-0.96,1
103,7.37,28.57,4.07,1
104,7.39,41.48,-11.52,1
105,7.4,40.42,-25.62,1
106,7.41,24.92,-16.9,1
107,7.43,13.79,-10.13,1
108,7.44,13.03,-14.31,1
109,7.45,18.52,-11.05,1
110,7.47,25.82,-6.43,1
111,7.48,24.78,-6.47,1
112,7.49,12.92,1.28,1
113,7.51,-0.91,12.25,1
114,7.52,-11.38,13.25,1
115,7.53,-10.88,9.04,1
116,7.55,-0.26,6.5,1
117,7.56,-1.77,1.49,1
118,7.57,-14.98,-0.58,1
119,7.59,-9.89,8.23,1
120,7.6,9.69,10.41,1
121,7.61,10.72,-6.41,1
122,7.63,-9.43,-18.54,1
123,7.64,-23.64,-9.95,1
124,7.65,-22.93,1.39,1
125,7.67,-23.13,-2.0,1
126,7.68,-29.67,-11.4,1
127,7.69,-25.58,-7.43,1
128,7.71,-8.07,3.68,1
129,7.72,-5.39,0.57,1
130,7.73,-27.23,-9.51,1
131,7.75,-41.82,-7.8,1
132,7.76,-31.1,1.84,1
133,7.77,-17.44,9.19,1
134,7.79,-20.49,7.6,1
135,7.8,-29.93,-5.6,1
136,7.81,-31.47,-13.99,1
137,7.83,-29.75,-2.09,1
138,7.84,-31.78,13.82,1
139,7.85,-31.2,12.16,1
140,7.87,-26.86,0.4,1
141,7.88,-25.85,1.88,1
142,7.89,-23.11,14.62,1
143,7.91,-17.17,14.76,1
144,7.92,-20.25,4.52,1
145,7.93,-29.27,0.43,1
146,7.95,-30.74,-3.09,1
147,7.96,-27.83,-6.38,1
148,7.97,-27.42,-0.65,1
149,7.99,-28.8,2.0,1
150,8.0,-36.02,-2.56,1
151,8.01,-47.24,-0.41,1
152,8.03,-50.12,2.42,1
153,8.04,-45.21,-0.96,1
154,8.05,-38.8,3.57,1
155,8.07,-26.96,14.49,1
156,8.08,-13.34,14.71,1
157,8.09,-10.24,5.89,1
158,8.1,-16.16,0.02,1
159,8.12,-18.49,-2.69,1
160,8.13,-12.97,-2.45,1
161,8.15,-7.18,8.79,0
162,8.16,-8.44,23.45,0
163,8.17,-10.27,18.71,0
164,8.19,-8.18,-0.35,0
165,8.2,-10.46,-6.88,0
166,8.21,-11.52,-4.43,0
167,8.23,-6.65,-9.76,0
168,8.24,-39.42,-12.81,0
169,8.25,-140.58,-4.22,0
170,8.27,-249.4,10.3,0
171,8.28,-306.76,27.23,0
172,8.29,-330.45,36.51,0
173,8.31,-339.01,26.53,0
174,8.32,-320.76,5.03,0
175,8.33,-279.32,-10.51,0
176,8.35,-234.13,-10.87,0
177,8.36,-195.61,1.99,0
178,8.37,-160.96,9.73,0
179,8.39,-113.34,-6.96,0
180,8.4,-22.88,-31.61,0
181,8.41,114.22,-38.34,0
182,8.43,246.68,-34.87,0
183,8.44,318.14,-26.94,0
184,8.45,330.26,-7.71,0
185,8.47,324.29,1.04,0
186,8.48,320.86,-10.23,0
187,8.49,308.47,-9.14,0
188,8.51,282.95,8.56,0
189,8.52,260.04,12.45,0
190,8.53,243.35,6.11,0
191,8.55,223.1,13.45,1
192,8.56,203.76,25.54,1
193,8.57,192.23,20.19,1
194,8.59,178.17,2.37,1
195,8.6,156.53,-6.81,1
196,8.61,138.98,0.55,1
197,8.63,120.47,11.65,1
198,8.64,81.91,8.61,1
199,8.65,44.54,-5.26,1
200,8.67,45.88,-5.88,1
201,8.68,68.01,6.16,1
202,8.69,73.77,2.47,1
203,8.71,62.55,-11.11,1
204,8.72,45.25,-2.7,1
205,8.73,31.5,13.72,1
206,8.75,29.39,2.29,1
207,8.76,28.16,-20.6,1
208,8.77,16.13,-18.41,1
209,8.78,4.78,-1.19,1
210,8.8,5.69,3.9,1
211,8.81,6.59,2.9,1
212,8.82,-4.15,8.58,1
213,8.84,-20.12,12.45,1
214,8.85,-31.06,4.7,1
215,8.87,-31.17,-6.19,1
216,8.88,-28.47,-4.33,1
217,8.89,-35.78,4.36,1
218,8.91,-50.22,1.71,1
219,8.92,-61.68,-4.27,1
220,8.93,-60.28,0.85,1
221,8.95,-47.45,4.0,1
222,8.96,-45.72,-6.27,1
223,8.97,-62.07,-16.37,1
224,8.99,-72.82,-12.63,1
225,9.0,-69.06,-0.29,1
226,9.01,-67.18,3.16,1
227,9.03,-69.83,-4.49,1
228,9.04,-65.03,-7.21,1
229,9.05,-58.37,-6.78,1
230,9.07,-65.76,-10.35,1
231,9.08,-82.99,-5.1,1
232,9.09,-88.94,5.56,1
233,9.11,-74.47,3.19,1
234,9.12,-57.85,-0.7,1
235,9.13,-57.62,3.12,1
236,9.15,-62.44,-5.12,1
237,9.16,-57.47,-17.03,1
238,9.17,-55.55,-10.55,1
239,9.19,-66.82,-1.78,1
240,9.2,-72.63,4.04,1
241,9.21,-61.72,18.67,1
242,9.23,-52.77,23.0,1
243,9.24,-57.18,8.23,1
244,9.25,-64.0,-4.48,1
245,9.27,-65.41,-6.17,1
246,9.28,-56.93,2.36,1
247,9.29,-36.14,14.75,1
248,9.31,-24.38,13.11,1
249,9.32,-40.75,-2.38,1
250,9.33,-59.31,-10.7,1
251,9.35,-49.81,-2.56,1
252,9.36,-29.62,8.24,1
253,9.37,-28.33,3.7,1
254,9.39,-37.31,-6.9,1
255,9.4,-31.45,0.53,1
256,9.41,-15.8,16.69,1
257,9.43,-14.5,13.55,1
258,9.44,-28.23,0.61,1
259,9.45,-37.94,6.25,1
260,9.47,-34.01,16.46,1
261,9.48,-24.3,3.16,1
262,9.49,-18.53,-15.04,1
263,9.51,-15.49,-10.91,1
264,9.52,-12.77,1.99,1
265,9.53,-16.27,1.43,1
266,9.55,-24.83,-10.05,1
267,9.56,-21.18,-17.04,1
268,9.57,-3.89,-12.29,1
269,9.59,1.56,-5.34,1
270,9.6,-7.3,-4.48,1
271,9.61,-6.37,1.37,1
272,9.63,2.63,12.53,1
273,9.64,3.04,8.52,1
274,9.65,6.19,-3.83,1
275,9.67,23.72,-5.19,1
276,9.68,33.76,-3.25,1
277,9.69,21.91,-0.24,1
278,9.71,11.82,3.3,1
279,9.72,16.31,-4.93,1
280,9.73,16.44,-10.4,1
281,9.75,9.0,2.73,1
282,9.76,12.06,18.69,1
283,9.77,21.13,19.58,1
284,9.79,15.34,2.52,1
285,9.8,6.25,-12.48,1
286,9.81,21.42,-6.94,1
287,9.83,46.69,-2.15,1
288,9.84,47.63,-10.63,1
289,9.85,26.55,-5.08,1
290,9.87,12.95,14.12,1
291,9.88,18.77,17.64,1
292,9.89,29.01,7.28,1
293,9.91,29.33,-2.22,1
294,9.92,24.86,-11.08,1
295,9.93,26.62,-12.86,1
296,9.95,30.8,0.99,1
297,9.96,27.61,14.26,1
298,9.97,21.89,5.94,1
299,9.99,21.78,-13.22,1
300,10.0,23.46,-19.25,1
301,10.01,24.44,-10.46,1
302,10.02,23.3,-1.67,1
303,10.04,15.05,3.69,1
304,10.05,10.76,6.76,1
305,10.06,26.05,0.41,1
306,10.08,44.87,-3.68,1
307,10.09,42.51,8.11,1
308,10.1,28.91,11.55,1
309,10.12,27.47,-1.82,1
310,10.13,34.76,-1.34,1
311,10.15,31.2,13.38,0
312,10.16,22.26,15.22,0
313,10.17,29.37,0.79,0
314,10.19,43.69,-15.27,0
315,10.2,34.19,-23.93,0
316,10.21,-18.74,-19.59,0
317,10.23,-116.12,-2.2,0
318,10.24,-232.48,15.23,0
319,10.25,-318.46,29.47,0
320,10.27,-330.57,49.75,0
321,10.28,-270.22,60.38,0
322,10.29,-188.09,31.78,0
323,10.31,-123.56,-30.7,0
324,10.32,-63.13,-81.33,0
325,10.33,12.06,-88.29,0
326,10.35,78.44,-73.02,0
327,10.36,110.47,-63.2,0
328,10.37,126.79,-53.21,0
329,10.39,150.3,-39.24,0
330,10.4,167.85,-29.0,0
331,10.41,168.96,-16.78,0
332,10.43,173.43,-0.63,0
333,10.44,185.68,10.04,0
334,10.45,182.45,15.85,0
335,10.47,168.16,19.5,0
336,10.48,172.86,20.9,0
337,10.49,185.54,22.04,0
338,10.51,169.34,19.6,0
339,10.52,138.98,15.68,0
340,10.53,135.74,17.53,0
341,10.55,146.67,16.23,1
342,10.56,131.94,4.07,1
343,10.57,102.77,-3.44,1
344,10.59,95.99,7.19,1
345,10.6,103.7,27.76,1
346,10.61,96.91,40.22,1
347,10.63,82.85,38.69,1
348,10.64,79.85,35.86,1
349,10.65,74.64,36.61,1
350,10.67,51.46,27.72,1
351,10.68,28.33,12.8,1
352,10.69,25.5,13.07,1
353,10.71,29.62,23.65,1
354,10.72,20.31,18.11,1
355,10.73,-0.77,3.43,1
356,10.75,-20.57,5.82,1
357,10.76,-31.67,13.13,1
358,10.77,-38.29,6.56,1
359,10.78,-43.23,1.53,1
360,10.8,-41.03,2.62,1
361,10.81,-34.13,-5.68,1
362,10.83,-30.76,-16.86,1
363,10.84,-28.74,-14.21,1
364,10.85,-26.85,-1.23,1
365,10.87,-35.03,8.44,1
366,10.88,-52.31,10.52,1
367,10.89,-58.57,7.86,1
368,10.91,-53.68,4.77,1
369,10.92,-58.48,5.45,1
370,10.93,-63.13,7.2,1
371,10.95,-49.31,3.75,1
372,10.96,-43.36,-3.03,1
373,10.97,-62.39,-6.54,1
374,10.99,-70.99,-3.08,1
375,11.0,-53.96,4.99,1
376,11.01,-46.96,14.22,1
377,11.03,-63.05,15.94,1
378,11.04,-72.09,4.75,1
379,11.05,-65.75,-2.21,1
380,11.07,-67.64,2.65,1
381,11.08,-77.18,-1.84,1
382,11.09,-72.22,-16.28,1
383,11.11,-60.68,-18.09,1
384,11.12,-64.53,-8.47,1
385,11.13,-69.71,-4.06,1
386,11.15,-55.27,-4.76,1
387,11.16,-42.21,-5.24,1
388,11.17,-50.99,-8.81,1
389,11.19,-63.52,-15.39,1
390,11.2,-68.44,-21.27,1
391,11.21,-74.47,-22.16,1
392,11.23,-76.13,-14.22,1
393,11.24,-64.43,-5.45,1
394,11.25,-46.27,-3.49,1
395,11.27,-35.5,-1.59,1
396,11.28,-39.29,-0.46,1
397,11.29,-48.56,-6.84,1
398,11.31,-49.29,-10.13,1
399,11.32,-42.21,-6.37,1
400,11.33,-36.69,-8.49,1
401,11.35,-35.89,-15.81,1
402,11.36,-35.27,-21.04,1
403,11.37,-30.86,-17.79,1
404,11.39,-25.36,-1.23,1
405,11.4,-22.65,5.76,1
406,11.41,-21.21,-9.45,1
407,11.43,-23.84,-12.45,1
408,11.44,-30.71,5.35,1
409,11.45,-26.13,12.91,1
410,11.47,-11.56,7.58,1
411,11.48,-11.43,4.22,1
412,11.49,-18.77,4.39,1
413,11.51,-10.83,3.37,1
414,11.52,0.32,-3.95,1
415,11.53,-0.95,-5.97,1
416,11.55,-5.12,5.61,1
417,11.56,-4.59,9.52,1
418,11.57,-7.44,-1.5,1
419,11.59,-14.37,-3.92,1
420,11.6,-9.46,2.4,1
421,11.61,7.31,-2.8,1
422,11.63,12.39,-11.77,1
423,11.64,-0.93,-9.94,1
424,11.65,-9.11,-3.84,1
425,11.67,2.92,-2.92,1
426,11.68,16.15,-7.8,1
427,11.69,12.07,-4.3,1
428,11.71,6.78,14.16,1
429,11.72,15.4,21.0,1
430,11.73,23.66,1.53,1
431,11.75,23.36,-18.69,1
432,11.76,23.04,-23.35,1
433,11.77,24.26,-18.33,1
434,11.79,25.02,-6.09,1
435,11.8,21.15,4.36,1
436,11.81,11.68,5.97,1
437,11.83,10.66,4.12,1
438,11.84,18.16,0.32,1
439,11.85,19.33,-1.43,1
440,11.87,24.25,2.03,1
441,11.88,39.59,4.39,1
442,11.89,37.96,6.19,1
443,11.91,18.29,6.12,1
444,11.92,16.62,-3.99,1
445,11.93,31.22,-13.6,1
446,11.94,28.63,-10.89,1
447,11.96,13.95,-5.24,1
448,11.97,17.04,-2.92,1
449,11.98,34.25,-1.91,1
450,12.0,35.94,-4.93,1
451,12.01,15.58,-7.19,1
452,12.02,-2.85,-2.05,1
453,12.04,-1.04,3.8,1
454,12.05,10.96,5.35,1
455,12.06,18.54,3.05,1
456,12.08,27.54,0.17,1
457,12.09,36.63,6.37,1
458,12.1,34.9,18.22,1
459,12.12,30.23,12.95,1
460,12.13,28.34,-9.21,1
461,12.15,24.2,-11.3,2
462,12.16,24.68,10.0,2
463,12.17,33.61,16.14,2
464,12.19,41.57,5.49,2
465,12.2,38.32,-0.77,2
466,12.21,25.28,-6.75,2
467,12.23,25.79,-11.37,2
468,12.24,44.67,-5.02,2
469,12.25,53.93,3.98,2
470,12.27,68.81,9.89,2
471,12.28,139.49,25.23,2
472,12.29,249.5,52.08,2
473,12.31,329.59,70.49,2
474,12.32,354.29,69.71,2
475,12.33,346.53,59.4,2
476,12.35,317.84,46.01,2
477,12.36,270.79,35.21,2
478,12.37,223.11,33.71,2
479,12.39,186.28,27.19,2
480,12.4,140.23,3.18,2
481,12.41,42.35,-22.86,2
482,12.43,-113.67,-36.78,2
483,12.44,-252.08,-38.71,2
484,12.45,-307.28,-34.91,2
485,12.47,-311.34,-38.11,2
486,12.48,-317.92,-47.27,2
487,12.49,-325.99,-45.07,2
488,12.51,-317.53,-31.86,2
489,12.52,-294.86,-24.18,2
490,12.53,-267.82,-21.51,2
491,12.55,-242.54,-15.5,1
492,12.56,-224.99,-15.53,1
493,12.57,-210.96,-27.04,1
494,12.59,-177.52,-31.57,1
495,12.6,-117.79,-27.23,1
496,12.61,-75.04,-28.41,1
497,12.63,-85.16,-25.57,1
498,12.64,-112.22,-14.05,1
499,12.65,-110.97,-7.98,1
500,12.67,-96.35,-5.97,1
501,12.68,-93.86,-3.25,1
502,12.69,-88.65,-2.39,1
503,12.71,-67.6,-4.49,1
504,12.72,-52.95,-10.37,1
505,12.73,-53.23,-11.54,1
506,12.75,-45.37,0.06,1
507,12.76,-28.36,11.8,1
508,12.77,-20.85,10.7,1
509,12.79,-16.17,3.67,1
510,12.8,0.47,0.57,1
511,12.81,20.68,1.81,1
512,12.83,26.56,5.52,1
513,12.84,18.92,7.35,1
514,12.85,16.68,3.36,1
515,12.87,23.13,0.92,1
516,12.88,27.0,7.31,1
517,12.89,33.01,14.74,1
518,12.91,44.69,14.51,1
519,12.92,50.46,9.89,1
520,12.93,50.19,5.07,1
521,12.95,50.81,-0.25,1
522,12.96,51.82,-3.14,1
523,12.97,53.86,2.04,1
524,12.99,59.44,14.62,1
525,13.0,63.99,19.82,1
526,13.01,63.82,7.26,1
527,13.03,60.64,-6.8,1
528,13.04,57.17,-5.29,1
529,13.05,59.92,1.05,1
530,13.07,66.92,0.01,1
531,13.08,62.16,0.79,1
532,13.09,50.68,9.72,1
533,13.11,56.4,17.87,1
534,13.12,70.41,20.49,1
535,13.13,69.34,18.36,1
536,13.15,60.95,11.45,1
537,13.16,59.76,2.68,1
538,13.17,62.71,2.7,1
539,13.19,61.93,15.81,1
540,13.2,55.97,22.95,1
541,13.21,54.16,11.84,1
542,13.23,56.25,2.74,1
543,13.24,47.27,10.06,1
544,13.25,34.86,17.18,1
545,13.27,42.49,9.08,1
546,13.28,57.28,1.3,1
547,13.29,50.98,8.42,1
548,13.31,37.56,13.43,1
549,13.32,42.44,1.1,1
550,13.33,52.08,-14.09,1
551,13.35,47.97,-11.83,1
552,13.36,38.84,2.19,1
553,13.37,35.38,8.28,1
554,13.39,32.82,6.67,1
555,13.4,22.49,7.16,1
556,13.41,11.95,5.25,1
557,13.43,19.26,-1.49,1
558,13.44,36.26,-4.49,1
559,13.45,40.58,-0.32,1
560,13.47,36.07,7.47,1
561,13.48,30.73,14.88,1
562,13.49,18.75,12.1,1
563,13.51,8.98,-4.81,1
564,13.52,14.93,-18.06,1
565,13.53,20.64,-15.81,1
566,13.55,9.51,-10.38,1
567,13.56,-2.26,-10.92,1
568,13.57,0.96,-9.35,1
569,13.59,4.55,2.87,1
570,13.6,-2.29,15.17,1
571,13.61,-1.45,8.14,1
572,13.63,14.12,-9.82,1
573,13.64,18.06,-14.45,1
574,13.65,-1.34,-7.96,1
575,13.67,-18.96,-8.27,1
576,13.68,-17.06,-15.5,1
577,13.69,-12.85,-14.47,1
578,13.71,-15.81,-0.83,1
579,13.72,-14.77,4.95,1
580,13.73,-14.99,-10.01,1
581,13.75,-23.09,-18.24,1
582,13.76,-25.14,-0.01,1
583,13.77,-18.9,10.45,1
584,13.79,-15.38,-7.99,1
585,13.8,-17.51,-17.54,1
586,13.81,-20.73,1.29,1
587,13.83,-18.06,17.64,1
588,13.84,-15.13,10.96,1
589,13.85,-21.39,-5.79,1
590,13.86,-28.6,-7.39,1
591,13.88,-31.49,7.89,1
592,13.89,-33.73,8.68,1
593,13.9,-29.93,-8.19,1
594,13.92,-19.83,-14.78,1
595,13.93,-15.87,-11.33,1
596,13.94,-21.32,-7.96,1
597,13.96,-28.29,-0.13,1
598,13.97,-27.05,5.97,1
599,13.98,-16.68,3.44,1
600,14.0,-12.1,-0.15,1
601,14.01,-17.39,-3.82,1
602,14.02,-19.74,-9.18,1
603,14.04,-22.67,-6.05,1
604,14.05,-34.4,1.56,1
605,14.07,-42.53,-1.35,1
606,14.08,-38.18,-6.1,1
607,14.09,-27.52,-0.42,1
608,14.11,-20.04,4.84,1
609,14.12,-21.04,2.43,1
610,14.13,-21.32,1.34,1
611,14.15,-16.17,5.69,1
612,14.16,-10.69,18.17,1
613,14.17,-11.26,38.9,1
614,14.19,-54.8,92.11,1
615,14.2,-114.22,248.59,1
616,14.21,-63.99,415.28,1
617,14.23,61.66,358.53,1
618,14.24,90.21,202.81,1
619,14.25,2.49,242.88,1
620,14.27,-166.3,340.15,1
621,14.28,-392.34,273.3,1
622,14.29,-499.82,166.12,1
623,14.31,-401.14,145.85,1
624,14.32,-280.35,142.0,1
625,14.33,-255.4,100.52,1
626,14.35,-246.79,58.33,1
627,14.36,-208.0,36.99,1
628,14.37,-138.06,17.67,1
629,14.39,51.01,-8.62,1
630,14.4,340.07,-33.27,1
631,14.41,444.49,-52.23,1
632,14.43,275.97,-69.52,1
633,14.44,154.63,-86.26,1
634,14.45,226.82,-100.86,1
635,14.47,267.93,-114.12,1
636,14.48,163.07,-126.71,1
637,14.49,101.5,-137.32,1
638,14.51,217.38,-145.61,1
639,14.52,312.55,-153.39,1
640,14.53,249.66,-160.58,1
641,14.55,293.46,-166.26,1
642,14.56,513.97,-170.51,1
643,14.57,460.41,-174.2,1
644,14.59,13.34,-176.89,1
645,14.6,-256.64,-177.81,1
646,14.61,-45.53,-178.17,1
647,14.63,214.22,-178.62,1
648,14.64,148.06,-178.05,1
649,14.65,-65.84,-176.06,1
650,14.67,-152.64,-173.89,1
651,14.68,-106.05,-172.17,1
652,14.69,-95.59,-169.45,1
653,14.71,-183.91,-164.96,1
654,14.72,-159.5,-160.51,1
655,14.73,34.88,-156.69,1
656,14.75,148.53,-152.03,1
657,14.76,168.83,-146.53,1
658,14.77,197.16,-141.09,1
659,14.79,67.65,-134.92,1
660,14.8,-187.04,-128.05,1
661,14.81,-224.86,-121.88,1
662,14.83,-44.2,-116.28,1
663,14.84,95.58,-109.66,1
664,14.85,56.76,-102.01,1
665,14.87,-240.64,-94.66,1
666,14.88,-553.33,-88.23,1
667,14.89,-454.47,-81.8,1
668,14.91,-113.86,-89.24,1
669,14.92,-66.64,-174.21,1
670,14.93,-259.12,-353.2,1
671,14.95,-159.92,-411.27,1
672,14.96,209.86,-164.56,1
673,14.97,238.11,97.74,1
674,14.99,-76.19,-4.95,1
675,15.0,-105.55,-284.55,1
676,15.01,84.5,-347.39,1
677,15.03,11.49,-301.88,1
678,15.04,-131.07,-419.27,1
679,15.05,-25.86,-557.92,1
680,15.07,159.3,-547.29,1
681,15.08,241.18,-496.84,1
682,15.09,273.0,-454.91,1
683,15.11,300.28,-366.0,1
684,15.12,267.55,-266.65,1
685,15.13,179.57,-201.72,1
686,15.15,113.4,-146.44,1
687,15.16,76.59,-80.59,1
688,15.17,33.44,-17.96,1
689,15.19,-8.43,32.77,1
690,15.2,-33.44,79.77,1
691,15.21,-48.18,126.18,1
692,15.23,-55.27,167.8,1
693,15.24,-55.3,204.7,1
694,15.25,-60.14,239.3,1
695,15.27,-74.75,270.99,1
696,15.28,-80.68,299.16,1
697,15.29,-65.62,324.22,1
698,15.31,-52.21,346.27,1
699,15.32,-58.35,364.91,1
700,15.33,-68.12,381.05,1
701,15.35,-69.27,395.27,1
702,15.36,-70.7,407.36,1
703,15.37,-78.17,416.86,1
704,15.39,-81.55,424.0,1
705,15.4,-71.35,429.23,1
706,15.41,-58.1,432.42,1
707,15.43,-56.83,434.16,1
708,15.44,-63.04,434.11,1
709,15.45,-64.08,436.05,1
710,15.47,-59.55,463.38,1
711,15.48,-54.56,540.38,1
712,15.49,-50.43,629.22,1
713,15.51,-47.54,661.78,1
714,15.52,-47.43,646.39,1
715,15.53,-47.56,631.7,1
716,15.55,-40.54,618.36,1
717,15.56,-30.64,587.19,1
718,15.57,-28.63,537.64,1
719,15.59,-26.34,488.27,1
720,15.6,-15.61,462.05,1
721,15.61,-12.18,444.94,1
722,15.63,-22.58,405.36,1
723,15.64,-29.47,354.5,1
724,15.65,-27.97,318.78,1
725,15.67,-29.19,292.17,1
726,15.68,-30.88,257.2,1
727,15.69,-22.43,215.69,1
728,15.71,-7.71,181.63,1
729,15.72,-0.58,151.73,1
730,15.73,-6.1,111.61,1
731,15.75,-12.75,73.59,1
732,15.76,-7.87,57.53,1
733,15.77,0.62,46.01,1
734,15.78,-0.08,18.82,1
735,15.8,-1.95,-12.74,1
736,15.81,6.28,-44.05,1
737,15.82,16.24,-74.84,1
738,15.84,16.37,-87.53,1
739,15.85,11.71,-88.29,1
740,15.86,13.86,-105.01,1
741,15.88,19.74,-130.53,1
742,15.89,18.09,-141.31,1
743,15.9,14.52,-147.42,1
744,15.92,18.25,-165.91,1
745,15.93,20.34,-189.57,1
746,15.94,17.08,-207.53,1
747,15.96,15.64,-216.96,1
748,15.97,15.52,-218.8,1
749,15.98,14.45,-223.09,1
750,16.0,15.01,-237.13,1
751,16.01,12.77,-245.45,1
752,16.03,6.96,-237.38,1
753,16.04,8.0,-228.68,1
754,16.05,19.43,-235.78,1
755,16.07,31.95,-254.09,1
756,16.08,37.78,-260.44,1
757,16.09,38.23,-251.03,1
758,16.11,34.74,-253.01,1
759,16.12,27.85,-266.19,1
760,16.13,24.24,-263.75,1
761,16.15,27.65,-255.07,1
762,16.16,36.33,-262.49,2
763,16.17,43.38,-273.19,2
764,16.19,41.79,-274.2,2
765,16.2,45.24,-272.54,2
766,16.21,98.63,-270.23,2
767,16.23,229.99,-254.88,2
768,16.24,379.58,-218.85,2
769,16.25,439.42,-196.25,2
770,16.27,390.03,-219.75,2
771,16.28,313.66,-250.89,2
772,16.29,255.46,-249.38,2
773,16.31,187.35,-235.55,2
774,16.32,103.4,-226.37,2
775,16.33,29.32,-217.98,2
776,16.35,-30.04,-218.38,2
777,16.36,-74.28,-222.75,2
778,16.37,-106.78,-215.33,2
779,16.39,-145.97,-201.88,2
780,16.4,-183.43,-192.72,2
781,16.41,-196.19,-186.02,2
782,16.42,-195.17,-180.12,2
783,16.44,-198.39,-176.31,2
784,16.45,-201.29,-171.98,2
785,16.46,-204.42,-161.37,2
786,16.48,-211.67,-144.08,2
787,16.49,-207.22,-127.72,2
788,16.5,-184.76,-118.4,2
789,16.52,-168.79,-108.67,2
790,16.53,-171.41,-90.03,2
791,16.54,-175.73,-72.02,2
792,16.56,-166.82,-61.63,1
793,16.57,-146.55,-52.69,1
794,16.58,-131.11,-47.75,1
795,16.6,-121.39,-49.27,1
796,16.61,-96.85,-48.1,1
797,16.62,-70.92,-34.87,1
798,16.64,-69.66,-13.3,1
799,16.65,-69.42,-2.24,1
800,16.67,-47.96,-5.89,1
801,16.68,-27.96,-6.3,1
802,16.69,-25.58,-0.54,1
803,16.71,-23.05,2.16,1
804,16.72,-4.11,5.83,1
805,16.73,17.97,14.72,1
806,16.75,23.69,26.14,1
807,16.76,18.16,32.11,1
808,16.77,14.83,23.82,1
809,16.79,18.17,17.6,1
810,16.8,28.65,36.85,1
811,16.81,40.49,60.5,1
812,16.83,42.57,57.69,1
813,16.84,36.62,48.13,1
814,16.85,38.18,57.91,1
815,16.87,51.64,70.57,1
816,16.88,59.74,69.87,1
817,16.89,52.37,68.35,1
818,16.91,46.67,73.18,1
819,16.92,55.43,72.36,1
820,16.93,61.86,64.67,1
821,16.95,55.45,64.06,1
822,16.96,54.3,75.11,1
823,16.97,63.09,87.81,1
824,16.99,57.25,89.86,1
825,17.0,35.99,86.96,1
826,17.01,34.44,90.86,1
827,17.03,61.47,90.64,1
828,17.04,83.26,84.42,1
829,17.05,75.95,88.75,1
830,17.06,51.85,96.88,1
831,17.08,35.72,96.06,1
832,17.09,37.83,90.29,1
833,17.1,49.53,81.85,1
834,17.12,61.6,76.69,1
835,17.13,69.72,84.8,1
836,17.14,66.6,97.8,1
837,17.16,52.33,98.77,1
838,17.17,44.9,87.31,1
839,17.18,47.81,76.37,1
840,17.2,44.37,73.89,1
841,17.21,40.92,77.48,1
842,17.22,54.03,83.46,1
843,17.24,68.03,90.94,1
844,17.25,58.34,95.15,1
845,17.26,32.58,89.33,1
846,17.28,18.55,78.8,1
847,17.29,23.26,76.29,1
848,17.3,28.81,77.54,1
849,17.32,28.27,74.36,1
850,17.33,28.42,71.52,1
851,17.35,26.32,67.52,1
852,17.36,20.37,60.47,1
853,17.37,21.44,63.56,1
854,17.39,27.59,78.47,1
855,17.4,25.64,86.18,1
856,17.41,19.2,78.52,1
857,17.43,16.54,63.67,1
858,17.44,15.35,52.18,1
859,17.45,13.54,51.26,1
860,17.47,12.64,53.56,1
861,17.48,13.96,46.82,1
862,17.49,15.34,35.7,1
863,17.51,13.09,33.46,1
864,17.52,3.89,46.09,1
865,17.53,-12.13,56.14,1
866,17.55,-21.3,40.63,1
867,17.56,-10.99,17.79,1
868,17.57,4.62,16.96,1
869,17.59,7.55,25.71,1
870,17.6,3.32,24.41,1
871,17.61,-1.82,20.71,1
872,17.63,-8.02,21.38,1
873,17.64,-6.02,25.72,1
874,17.65,-2.5,33.68,1
875,17.67,-15.87,33.57,1
876,17.68,-31.42,19.33,1
877,17.69,-26.57,8.33,1
878,17.7,-17.01,8.33,1
879,17.72,-21.81,6.92,1
880,17.73,-28.42,3.63,1
881,17.75,-27.4,5.55,1
882,17.76,-28.43,7.46,1
883,17.77,-31.19,5.68,1
884,17.78,-26.19,3.83,1
885,17.8,-19.82,0.57,1
886,17.81,-20.65,-2.47,1
887,17.82,-21.16,-2.7,1
888,17.84,-16.41,-5.0,1
889,17.85,-17.61,-10.61,1
890,17.86,-30.09,-16.64,1
891,17.88,-38.39,-21.09,1
892,17.89,-33.18,-21.73,1
893,17.9,-25.06,-21.49,1
894,17.92,-19.94,-17.13,1
895,17.93,-15.81,-5.99,1
896,17.94,-16.88,-8.96,1
897,17.96,-25.88,-31.64,1
898,17.97,-34.28,-43.25,1
899,17.99,-30.67,-31.86,1
900,18.0,-23.25,-14.77,1
901,18.01,-33.08,-7.81,1
902,18.03,-48.8,-16.86,1
903,18.04,-42.01,-30.62,1
904,18.05,-25.42,-33.42,1
905,18.07,-25.54,-28.93,1
906,18.08,-33.06,-26.55,1
907,18.09,-26.41,-23.38,1
908,18.11,-11.54,-19.19,1
909,18.12,-11.42,-22.97,1
910,18.13,-24.16,-34.82,1
911,18.15,-27.91,-40.55,1
912,18.16,-21.49,-28.43,0
913,18.17,-15.01,-8.11,0
914,18.19,-6.3,-6.04,0
915,18.2,-0.35,-27.08,0
916,18.21,-4.85,-43.19,0
917,18.23,-9.84,-40.72,0
918,18.24,-6.62,-36.43,0
919,18.25,-1.62,-37.77,0
920,18.27,-2.55,-36.31,0
921,18.28,-15.54,-28.29,0
922,18.29,-59.04,-16.86,0
923,18.31,-141.98,-9.67,0
924,18.32,-233.88,-8.12,0
925,18.33,-307.08,-7.0,0
926,18.34,-359.69,-9.4,0
927,18.36,-372.4,-18.33,0
928,18.37,-330.35,-30.88,0
929,18.38,-269.8,-48.75,0
930,18.4,-227.57,-68.07,0
931,18.41,-195.8,-78.03,0
932,18.42,-159.05,-77.19,0
933,18.44,-110.5,-67.53,0
934,18.45,-20.83,-50.93,0
935,18.46,125.45,-34.26,0
936,18.48,265.47,-20.96,0
937,18.49,328.2,-12.79,0
938,18.5,334.21,-10.21,0
939,18.52,336.04,-2.38,0
940,18.53,331.66,13.94,0
941,18.54,306.65,20.94,0
942,18.56,282.16,11.93,1
943,18.57,270.97,2.89,1
944,18.58,256.31,-1.63,1
945,18.6,234.27,-8.43,1
946,18.61,218.66,-9.15,1
947,18.63,207.27,1.71,1
948,18.64,184.62,6.64,1
949,18.65,151.34,-0.99,1
950,18.67,130.52,-2.57,1
951,18.68,145.05,11.53,1
952,18.69,168.43,29.2,1
953,18.71,146.53,29.64,1
954,18.72,101.19,9.47,1
955,18.73,84.07,-7.35,1
956,18.75,70.35,-9.45,1
957,18.76,36.55,-9.02,1
958,18.77,16.07,-8.7,1
959,18.79,15.92,-5.02,1
960,18.8,10.15,-2.97,1
961,18.81,-2.27,1.24,1
962,18.83,-8.33,12.12,1
963,18.84,-10.16,8.81,1
964,18.85,-17.31,-13.96,1
965,18.87,-28.43,-23.01,1
966,18.88,-35.13,-10.1,1
967,18.89,-39.66,-0.84,1
968,18.91,-46.64,-4.36,1
969,18.92,-49.42,-9.63,1
970,18.93,-43.11,-11.97,1
971,18.95,-39.12,-18.06,1
972,18.96,-52.25,-22.14,1
973,18.97,-72.22,-15.77,1
974,18.98,-74.19,-10.72,1
975,19.0,-59.34,-7.8,1
976,19.01,-51.44,4.33,1
977,19.02,-60.53,13.55,1
978,19.04,-71.12,8.34,1
979,19.05,-69.57,4.07,1
980,19.06,-68.17,11.39,1
981,19.08,-76.09,18.59,1
982,19.09,-78.63,19.43,1
983,19.1,-71.3,17.98,1
984,19.12,-65.92,11.77,1
985,19.13,-64.81,5.06,1
986,19.14,-64.7,7.43,1
987,19.16,-66.25,13.97,1
988,19.17,-68.95,16.13,1
989,19.18,-71.73,13.55,1
990,19.2,-72.86,8.69,1
991,19.21,-68.03,1.79,1
992,19.22,-59.47,-3.76,1
993,19.24,-55.4,2.46,1
994,19.25,-56.64,14.98,1
995,19.265,-58.81,11.96,1
996,19.28,-58.88,-1.15,1
997,19.29,-55.71,1.21,1
998,19.31,-55.44,11.44,1
999,19.32,-59.12,8.75,1
1000,19.33,-56.04,2.69,1
1001,19.35,-45.98,5.71,1
1002,19.36,-34.78,7.5,1
1003,19.37,-27.6,5.01,1
1004,19.39,-31.36,11.26,1
1005,19.4,-36.35,19.63,1
1006,19.41,-33.25,11.94,1
1007,19.43,-34.82,0.91,1
1008,19.44,-40.56,8.46,1
1009,19.45,-35.4,22.22,1
1010,19.47,-27.18,15.02,1
1011,19.48,-21.95,-6.51,1
1012,19.49,-10.16,-10.06,1
1013,19.51,-6.5,0.79,1
1014,19.52,-22.31,-0.9,1
1015,19.53,-29.69,-5.7,1
1016,19.55,-15.9,3.3,1
1017,19.56,-6.12,12.11,1
1018,19.57,-11.01,8.55,1
1019,19.59,-13.33,0.72,1
1020,19.6,-4.81,0.08,1
1021,19.61,5.2,6.8,1
1022,19.62,7.68,7.0,1
1023,19.64,3.19,0.63,1
1024,19.65,1.68,4.75,1
1025,19.67,4.58,10.89,1
1026,19.68,6.67,7.83,1
1027,19.69,12.97,14.36,1
1028,19.7,18.5,25.54,1
1029,19.72,9.66,15.12,1
1030,19.73,-2.03,-3.88,1
1031,19.75,0.08,-9.76,1
1032,19.76,8.44,-8.58,1
1033,19.77,13.25,-3.1,1
1034,19.78,18.75,3.0,1
1035,19.8,27.75,0.17,1
1036,19.81,30.91,2.33,1
1037,19.82,19.96,15.3,1
1038,19.84,10.13,14.54,1
1039,19.85,18.18,1.47,1
1040,19.86,25.82,-1.22,1
1041,19.88,16.5,-1.52,1
1042,19.89,12.84,-10.22,1
1043,19.9,27.73,-10.48,1
1044,19.92,36.86,0.91,1
1045,19.93,28.11,5.13,1
1046,19.95,18.38,0.44,1
1047,19.96,19.38,-0.86,1
1048,19.97,26.15,1.1,1
1049,19.99,28.85,-5.98,1
1050,20.0,25.8,-20.2,1
1051,20.01,27.61,-16.58,1
1052,20.03,32.25,4.55,1
1053,20.04,21.31,11.34,1
1054,20.05,6.67,6.09,1
1055,20.07,13.69,12.98,1
1056,20.08,25.53,20.02,1
1057,20.09,24.21,8.08,1
1058,20.11,22.96,-9.42,1
1059,20.12,26.48,-17.88,1
1060,20.13,30.54,-20.73,1
1061,20.15,34.6,-15.37,1
1062,20.16,36.73,-2.36,0
1063,20.17,36.74,4.59,0
1064,20.19,23.3,5.42,0
1065,20.2,-20.14,5.2,0
1066,20.21,-99.59,4.66,0
1067,20.23,-209.93,15.29,0
1068,20.24,-301.27,39.1,0
1069,20.25,-312.0,56.75,0
1070,20.26,-265.0,51.8,0
1071,20.28,-216.86,28.69,0
1072,20.29,-165.17,2.19,0
1073,20.3,-94.26,-22.68,0
1074,20.32,-22.31,-43.85,0
1075,20.33,32.78,-53.95,0
1076,20.34,74.38,-54.73,0
1077,20.36,114.75,-58.54,0
1078,20.37,157.09,-65.13,0
1079,20.38,186.55,-60.99,0
1080,20.4,194.87,-45.33,0
1081,20.41,195.8,-26.3,0
1082,20.42,200.02,-7.47,0
1083,20.44,199.95,-0.1,0
1084,20.45,188.78,-8.88,0
1085,20.46,178.34,-17.54,0
1086,20.48,184.9,-15.72,0
1087,20.49,197.98,-8.06,0
1088,20.5,188.84,-1.63,0
1089,20.52,158.22,0.91,0
1090,20.53,136.9,5.45,0
1091,20.54,131.92,14.8,0
1092,20.56,126.44,22.22,1
1093,20.57,118.23,24.96,1
1094,20.59,108.8,24.9,1
1095,20.6,96.08,20.7,1
1096,20.61,89.04,14.42,1
1097,20.63,90.3,12.39,1
1098,20.64,87.8,16.73,1
1099,20.65,73.51,22.27,1
1100,20.67,54.09,25.35,1
1101,20.68,47.62,27.83,1
1102,20.69,49.26,27.82,1
1103,20.71,33.87,22.14,1
1104,20.72,11.49,15.87,1
1105,20.73,6.8,14.34,1
1106,20.75,8.69,13.42,1
1107,20.76,-0.92,7.18,1
1108,20.77,-14.96,0.39,1
1109,20.79,-21.72,1.73,1
1110,20.8,-27.96,8.09,1
1111,20.81,-45.77,8.77,1
1112,20.83,-68.85,5.01,1
1113,20.84,-77.46,4.71,1
1114,20.85,-67.71,2.17,1
1115,20.87,-58.18,-3.6,1
1116,20.88,-58.27,-0.76,1
1117,20.89,-55.77,7.58,1
1118,20.9,-48.02,10.36,1
1119,20.92,-50.75,4.43,1
1120,20.93,-63.11,-7.44,1
1121,20.94,-64.91,-11.74,1
1122,20.96,-55.88,-0.16,1
1123,20.97,-55.31,16.94,1
1124,20.98,-70.86,21.98,1
1125,21.0,-90.81,11.5,1
1126,21.01,-95.27,5.18,1
1127,21.02,-81.36,7.08,1
1128,21.04,-68.81,-3.52,1
1129,21.05,-65.5,-19.87,1
1130,21.06,-64.26,-15.58,1
1131,21.08,-69.72,1.46,1
1132,21.09,-83.78,4.0,1
1133,21.1,-90.69,-9.42,1
1134,21.12,-82.75,-17.55,1
1135,21.13,-68.29,-6.3,1
1136,21.14,-57.16,9.63,1
1137,21.16,-55.71,6.84,1
1138,21.17,-60.49,-5.74,1
1139,21.18,-62.81,-10.61,1
1140,21.2,-61.76,-13.9,1
1141,21.21,-58.45,-16.75,1
1142,21.23,-49.93,-12.0,1
1143,21.24,-40.01,-6.64,1
1144,21.25,-38.7,-3.49,1
1145,21.27,-49.56,2.52,1
1146,21.28,-60.85,2.94,1
1147,21.29,-55.73,-5.66,1
1148,21.31,-38.79,-6.45,1
1149,21.32,-30.35,2.21,1
1150,21.33,-35.2,0.99,1
1151,21.35,-44.72,-11.68,1
1152,21.36,-49.37,-17.96,1
1153,21.37,-42.94,-8.11,1
1154,21.39,-33.29,4.14,1
1155,21.4,-28.96,0.87,1
1156,21.41,-24.99,-10.19,1
1157,21.43,-18.69,-12.8,1
1158,21.44,-12.57,-10.33,1
1159,21.45,-8.35,-9.79,1
1160,21.47,-13.05,-7.29,1
1161,21.48,-25.98,-1.99,1
1162,21.49,-27.78,3.93,1
1163,21.51,-8.25,7.32,1
1164,21.52,12.42,-2.91,1
1165,21.53,9.72,-20.75,1
1166,21.54,-9.59,-14.9,1
1167,21.56,-18.87,12.82,1
1168,21.57,-9.25,17.97,1
1169,21.58,3.34,-7.12,1
1170,21.6,5.82,-24.37,1
1171,21.61,5.33,-19.48,1
1172,21.62,7.61,-9.04,1
1173,21.64,8.29,-4.12,1
1174,21.65,7.01,-3.52,1
1175,21.67,7.3,-5.17,1
1176,21.68,14.52,-11.02,1
1177,21.69,26.73,-18.93,1
1178,21.7,28.54,-21.92,1
1179,21.72,20.24,-14.59,1
1180,21.73,16.83,3.39,1
1181,21.75,16.83,20.09,1
1182,21.76,15.29,22.99,1
1183,21.77,15.42,12.79,1
1184,21.78,15.61,-3.71,1
1185,21.8,17.69,-12.04,1
1186,21.81,23.76,-3.25,1
1187,21.82,24.24,8.21,1
1188,21.84,18.14,12.59,1
1189,21.85,20.98,15.68,1
1190,21.865,34.11,13.25,1
1191,21.88,40.01,-0.07,1
1192,21.89,30.34,-10.98,1
1193,21.91,11.91,-8.97,1
1194,21.92,-1.6,-2.7,1
1195,21.93,-0.31,-1.71,1
1196,21.95,9.31,-3.87,1
1197,21.96,19.02,-5.05,1
1198,21.97,31.31,-1.94,1
1199,21.99,38.05,9.21,1
1200,22.0,26.76,17.63,1
1201,22.01,13.08,15.38,1
1202,22.03,17.3,14.92,1
1203,22.04,24.55,15.2,1
1204,22.05,15.1,5.94,1
1205,22.07,4.88,-1.82,1
1206,22.08,17.08,-2.12,1
1207,22.09,34.73,-5.98,1
1208,22.11,30.09,-8.39,1
1209,22.12,21.29,0.35,1
1210,22.13,31.34,6.73,1
1211,22.15,40.94,2.27,1
1212,22.16,40.98,0.64,2
1213,22.17,72.3,10.68,2
1214,22.18,172.75,28.05,2
1215,22.2,303.69,43.55,2
1216,22.21,382.52,47.95,2
1217,22.22,390.02,41.93,2
1218,22.24,362.73,30.12,2
1219,22.25,319.21,14.53,2
1220,22.26,268.9,1.67,2
1221,22.28,226.42,-3.61,2
1222,22.29,191.4,-4.53,2
1223,22.3,156.06,-10.64,2
1224,22.32,104.85,-25.67,2
1225,22.33,-4.91,-32.59,2
1226,22.34,-177.83,-20.06,2
1227,22.36,-317.36,-10.26,2
1228,22.37,-345.65,-21.7,2
1229,22.38,-316.12,-33.7,2
1230,22.4,-307.7,-25.45,2
1231,22.41,-318.78,-12.14,2
1232,22.42,-319.08,-10.95,2
1233,22.44,-306.01,-14.95,2
1234,22.45,-287.74,-16.23,2
1235,22.46,-268.53,-19.01,2
1236,22.48,-243.25,-19.79,2
1237,22.49,-206.89,-11.89,2
1238,22.5,-179.12,-2.77,2
1239,22.52,-172.05,-0.06,2
1240,22.53,-162.49,-4.17,2
1241,22.55,-140.25,-13.09,1
1242,22.56,-120.82,-19.59,1
1243,22.57,-104.84,-14.55,1
1244,22.59,-84.38,-0.44,1
1245,22.6,-63.63,5.23,1
1246,22.61,-50.05,-0.59,1
1247,22.63,-47.37,3.83,1
1248,22.64,-44.0,14.61,1
1249,22.65,-24.84,8.59,1
1250,22.67,-2.26,-3.01,1
1251,22.68,8.95,1.38,1
1252,22.69,13.11,13.07,1
1253,22.71,6.65,21.16,1
1254,22.72,-7.6,26.03,1
1255,22.73,-3.64,17.52,1
1256,22.75,23.83,-5.46,1
1257,22.76,49.79,-19.65,1
1258,22.77,59.74,-14.19,1
1259,22.79,61.25,-0.5,1
1260,22.8,63.01,8.09,1
1261,22.81,64.21,5.24,1
1262,22.82,63.19,0.38,1
1263,22.84,62.21,4.98,1
1264,22.85,67.95,12.93,1
1265,22.86,80.66,17.43,1
1266,22.88,87.19,14.41,1
1267,22.89,83.12,4.96,1
1268,22.9,76.87,2.51,1
1269,22.92,69.71,0.32,1
1270,22.93,63.65,-10.87,1
1271,22.94,66.56,-5.44,1
1272,22.96,72.28,14.64,1
1273,22.97,67.31,14.36,1
1274,22.98,63.66,4.63,1
1275,23.0,78.36,6.37,1
1276,23.01,90.03,4.52,1
1277,23.02,76.47,-5.1,1
1278,23.04,61.0,-11.41,1
1279,23.05,66.09,-10.63,1
1280,23.06,75.19,-1.7,1
1281,23.08,69.03,7.86,1
1282,23.09,56.63,10.24,1
1283,23.1,56.04,12.03,1
1284,23.12,61.35,14.84,1
1285,23.13,52.91,9.35,1
1286,23.14,38.36,0.6,1
1287,23.16,41.4,-0.03,1
1288,23.17,52.5,-0.93,1
1289,23.19,46.35,-7.79,1
1290,23.2,32.94,-10.44,1
1291,23.21,34.41,-7.45,1
1292,23.23,43.5,-4.51,1
1293,23.24,42.76,-3.02,1
1294,23.25,38.81,-2.49,1
1295,23.27,40.33,2.35,1
1296,23.28,33.35,9.41,1
1297,23.29,21.59,8.14,1
1298,23.31,29.06,4.52,1
1299,23.32,41.12,9.48,1
1300,23.33,25.8,12.33,1
1301,23.35,2.72,5.53,1
1302,23.36,4.04,2.22,1
1303,23.37,13.83,7.79,1
1304,23.39,11.18,14.67,1
1305,23.4,8.12,13.07,1
1306,23.41,13.86,-0.04,1
1307,23.43,12.61,-11.44,1
1308,23.44,-4.58,-14.46,1
1309,23.45,-15.4,-10.49,1
1310,23.46,-6.82,3.81,1
1311,23.48,0.87,16.04,1
1312,23.49,0.3,11.5,1
1313,23.5,0.43,3.76,1
1314,23.52,1.22,5.97,1
1315,23.53,0.51,5.79,1
1316,23.54,-6.43,-0.68,1
1317,23.56,-15.9,0.83,1
1318,23.57,-13.61,7.46,1
1319,23.58,-6.34,7.65,1
1320,23.6,-7.52,4.81,1
1321,23.61,-7.66,1.4,1
1322,23.62,-4.25,-8.62,1
1323,23.64,-14.31,-22.11,1
1324,23.65,-33.04,-24.11,1
1325,23.67,-38.51,-9.63,1
1326,23.68,-32.0,1.64,1
1327,23.69,-21.75,-6.85,1
1328,23.7,-11.25,-15.75,1
1329,23.72,-13.49,-6.19,1
1330,23.73,-29.26,2.89,1
1331,23.75,-37.12,-3.27,1
1332,23.76,-29.65,-11.49,1
1333,23.77,-22.76,-11.72,1
1334,23.78,-27.73,-1.8,1
1335,23.8,-40.68,13.22,1
1336,23.81,-46.1,14.42,1
1337,23.83,-33.5,-2.44,1
1338,23.84,-19.32,-13.22,1
1339,23.85,-19.57,-8.14,1
1340,23.87,-22.9,-0.02,1
1341,23.88,-22.56,12.6,1
1342,23.89,-27.22,29.63,1
1343,23.91,-34.79,33.61,1
1344,23.92,-31.06,25.35,1
1345,23.93,-17.83,17.86,1
1346,23.95,-18.97,7.01,1
1347,23.96,-33.9,-6.21,1
1348,23.97,-32.42,-5.99,1
1349,23.99,-18.79,2.87,1
1350,24.0,-19.34,0.36,1
1351,24.01,-27.51,-8.68,1
1352,24.03,-30.43,-8.26,1
1353,24.04,-35.6,-4.97,1
1354,24.05,-40.04,-10.36,1
1355,24.07,-28.67,-20.01,1
1356,24.08,-9.02,-29.04,1
1357,24.09,-3.58,-31.09,1
1358,24.1,-10.76,-19.27,1
1359,24.12,-13.68,-3.07,1
1360,24.13,-10.64,6.83,1
1361,24.14,-11.73,14.39,1
1362,24.16,-18.96,24.85,1
1363,24.17,-9.0,53.94,1
1364,24.18,32.61,154.79,1
1365,24.2,13.95,333.31,1
1366,24.21,-184.63,451.81,1
1367,24.22,-368.39,403.51,1
1368,24.24,-158.84,294.74,1
1369,24.25,192.84,252.22,1
1370,24.26,39.58,240.85,1
1371,24.28,-408.19,199.69,1
1372,24.29,-482.25,149.7,1
1373,24.3,-291.28,118.12,1
1374,24.32,-245.63,92.79,1
1375,24.33,-280.91,61.88,1
1376,24.34,-231.17,31.8,1
1377,24.36,-132.33,8.03,1
1378,24.37,-15.37,-13.99,1
1379,24.38,82.08,-36.5,1
1380,24.4,56.24,-56.94,1
1381,24.41,28.52,-74.09,1
1382,24.42,259.8,-89.87,1
1383,24.44,566.96,-104.67,1
1384,24.45,504.15,-117.52,1
1385,24.46,203.54,-128.95,1
1386,24.48,142.37,-139.4,1
1387,24.49,184.94,-148.54,1
1388,24.51,-22.74,-155.57,1
1389,24.52,-214.56,-161.69,1
1390,24.53,-52.48,-167.92,1
1391,24.55,233.04,-172.83,1
1392,24.56,265.42,-175.57,1
1393,24.57,150.81,-177.51,1
1394,24.59,223.26,-179.43,1
1395,24.6,323.68,-180.28,1
1396,24.61,199.71,-179.76,1
1397,24.63,82.48,-178.63,1
1398,24.64,107.06,-177.13,1
1399,24.65,142.85,-175.24,1
1400,24.67,125.69,-173.08,1
1401,24.68,-35.59,-170.24,1
1402,24.69,-235.41,-166.25,1
1403,24.71,-167.49,-161.31,1
1404,24.72,98.34,-156.0,1
1405,24.73,275.71,-150.82,1
1406,24.75,336.36,-146.07,1
1407,24.76,340.03,-141.05,1
1408,24.77,248.01,-134.69,1
1409,24.78,57.07,-130.88,1
1410,24.8,-114.51,-133.72,1
1411,24.81,-128.69,-130.45,1
1412,24.82,25.19,-110.24,1
1413,24.84,172.19,-91.52,1
1414,24.85,163.99,-90.72,1
1415,24.86,81.58,-95.35,1
1416,24.88,-10.85,-104.63,1
1417,24.89,-104.66,-143.73,1
1418,24.9,-89.65,-268.06,1
1419,24.92,0.14,-505.37,1
1420,24.93,-1.0,-674.86,1
1421,24.94,-60.02,-656.09,1
1422,24.96,-63.81,-652.67,1
1423,24.97,-39.89,-629.37,1
1424,24.98,22.94,-359.02,1
1425,25.0,119.71,-88.56,1
1426,25.01,73.31,-69.33,1
1427,25.02,-104.77,-98.41,1
1428,25.04,-160.56,6.7,1
1429,25.05,-36.72,280.63,1
1430,25.06,30.77,512.21,1
1431,25.08,-87.66,266.6,1
1432,25.09,-202.16,-236.47,1
1433,25.1,-179.75,-257.24,1
1434,25.12,-99.2,164.52,1
1435,25.13,-30.38,354.37,1
1436,25.15,12.13,161.46,1
1437,25.16,8.84,-47.46,1
1438,25.17,-49.72,-111.68,1
1439,25.19,-67.44,-121.48,1
1440,25.2,45.16,-94.46,1
1441,25.21,177.76,-21.75,1
1442,25.23,183.23,40.13,1
1443,25.24,93.7,71.95,1
1444,25.25,22.03,104.64,1
1445,25.27,-5.45,146.15,1
1446,25.28,-33.39,181.56,1
1447,25.29,-82.55,208.82,1
1448,25.31,-132.47,234.76,1
1449,25.32,-161.91,259.75,1
1450,25.33,-168.18,280.81,1
1451,25.35,-164.71,299.13,1
1452,25.36,-170.21,315.63,1
1453,25.37,-181.49,329.22,1
1454,25.38,-180.09,340.28,1
1455,25.4,-165.05,349.94,1
1456,25.41,-150.36,357.97,1
1457,25.42,-149.32,363.38,1
1458,25.44,-161.91,366.48,1
1459,25.45,-162.96,368.05,1
1460,25.46,-140.79,368.33,1
1461,25.48,-123.7,367.48,1
1462,25.49,-119.19,365.11,1
1463,25.5,-104.09,361.11,1
1464,25.52,-87.32,355.81,1
1465,25.53,-90.25,349.48,1
1466,25.54,-97.71,355.78,1
1467,25.56,-89.02,410.95,1
1468,25.57,-75.82,512.52,1
1469,25.58,-72.64,581.67,1
1470,25.6,-71.15,569.11,1
1471,25.61,-62.08,523.59,1
1472,25.62,-45.37,502.78,1
1473,25.64,-29.22,496.28,1
1474,25.65,-28.76,464.52,1
1475,25.67,-31.33,406.69,1
1476,25.68,-15.08,357.69,1
1477,25.69,-1.86,331.02,1
1478,25.7,-11.32,303.73,1
1479,25.72,-15.76,261.93,1
1480,25.73,-0.22,222.19,1
1481,25.75,10.0,192.22,1
1482,25.76,3.67,159.3,1
1483,25.77,2.44,121.15,1
1484,25.79,16.71,90.83,1
1485,25.8,27.85,73.97,1
1486,25.81,24.88,54.66,1
1487,25.83,24.65,18.14,1
1488,25.84,36.45,-21.71,1
1489,25.85,42.57,-46.54,1
1490,25.87,32.96,-64.24,1
1491,25.88,28.56,-86.41,1
1492,25.89,44.24,-110.5,1
1493,25.91,58.17,-134.91,1
1494,25.92,56.8,-156.89,1
1495,25.93,57.84,-171.27,1
1496,25.95,61.71,-184.24,1
1497,25.96,50.42,-202.81,1
1498,25.97,37.04,-222.46,1
1499,25.99,42.76,-236.62,1
1500,26.0,55.01,-245.42,1
1501,26.01,58.7,-253.2,1
1502,26.02,61.07,-261.61,1
1503,26.04,63.46,-267.08,1
1504,26.05,53.19,-269.23,1
1505,26.06,41.3,-273.26,1
1506,26.08,53.29,-277.84,1
1507,26.09,76.61,-281.52,1
1508,26.1,77.82,-285.34,1
1509,26.12,60.93,-282.1,1
1510,26.13,57.42,-272.16,1
1511,26.14,68.69,-272.16,1
1512,26.16,68.16,-284.87,2
1513,26.17,54.27,-292.73,2
1514,26.18,50.21,-286.41,2
1515,26.2,61.23,-275.77,2
1516,26.21,72.17,-275.23,2
1517,26.22,91.87,-279.84,2
1518,26.24,165.62,-268.61,2
1519,26.25,301.19,-244.77,2
1520,26.26,420.7,-237.23,2
1521,26.28,446.04,-254.12,2
1522,26.29,394.63,-270.73,2
1523,26.3,333.45,-264.99,2
1524,26.32,280.53,-246.28,2
1525,26.33,211.15,-234.35,2
1526,26.34,124.69,-228.71,2
1527,26.36,45.7,-218.77,2
1528,26.37,-17.71,-208.91,2
1529,26.38,-69.58,-211.19,2
1530,26.4,-106.98,-213.47,2
1531,26.41,-135.71,-194.04,2
1532,26.43,-163.76,-168.81,2
1533,26.44,-177.72,-165.42,2
1534,26.45,-173.98,-169.63,2
1535,26.47,-182.14,-154.88,2
1536,26.48,-207.45,-132.06,2
1537,26.49,-214.12,-123.7,2
1538,26.51,-194.75,-119.88,2
1539,26.52,-178.07,-107.9,2
1540,26.53,-177.37,-102.15,2
1541,26.55,-183.19,-105.52,1
1542,26.56,-178.67,-99.27,1
1543,26.57,-155.95,-81.59,1
1544,26.59,-131.55,-70.54,1
1545,26.6,-120.37,-69.06,1
1546,26.61,-113.41,-59.98,1
1547,26.63,-99.4,-43.8,1
1548,26.64,-81.24,-36.83,1
1549,26.65,-65.91,-37.47,1
1550,26.67,-59.58,-32.18,1
1551,26.68,-64.16,-17.35,1
1552,26.69,-64.73,-2.33,1
1553,26.7,-46.9,4.86,1
1554,26.72,-25.59,8.15,1
1555,26.73,-19.07,11.76,1
1556,26.75,-15.7,14.76,1
1557,26.76,-4.83,21.28,1
1558,26.77,0.61,31.7,1
1559,26.78,-2.92,34.7,1
1560,26.8,-2.81,31.59,1
1561,26.81,3.83,35.33,1
1562,26.82,13.3,41.26,1
1563,26.84,21.98,40.79,1
1564,26.85,25.26,40.82,1
1565,26.86,28.05,46.28,1
1566,26.88,34.09,59.43,1
1567,26.89,37.04,78.45,1
1568,26.9,34.92,85.1,1
1569,26.92,36.25,73.71,1
1570,26.93,45.53,66.12,1
1571,26.94,50.14,73.71,1
1572,26.96,40.71,86.0,1
1573,26.97,32.43,94.2,1
1574,26.98,38.23,98.61,1
1575,27.0,47.87,100.39,1
1576,27.01,49.57,100.22,1
1577,27.02,46.82,96.46,1
1578,27.04,48.05,88.95,1
1579,27.05,50.37,85.36,1
1580,27.06,47.12,88.5,1
1581,27.08,44.55,98.24,1
1582,27.09,47.32,112.93,1
1583,27.11,51.93,115.51,1
1584,27.12,55.11,102.33,1
1585,27.13,52.7,95.99,1
1586,27.15,45.73,102.69,1
1587,27.16,37.28,109.96,1
1588,27.17,26.46,108.85,1
1589,27.19,24.07,99.25,1
1590,27.2,37.29,94.72,1
1591,27.21,45.21,99.74,1
1592,27.23,33.95,100.42,1
1593,27.24,21.93,95.7,1
1594,27.25,23.84,95.13,1
1595,27.27,28.59,92.06,1
1596,27.28,23.05,84.05,1
1597,27.29,13.45,83.85,1
1598,27.3,13.56,89.73,1
1599,27.32,22.05,88.13,1
1600,27.33,26.02,79.72,1
1601,27.34,21.01,73.24,1
1602,27.36,14.84,69.04,1
1603,27.37,13.02,67.46,1
1604,27.38,13.04,72.29,1
1605,27.4,12.98,78.89,1
1606,27.41,12.93,77.64,1
1607,27.42,10.95,68.98,1
1608,27.44,9.32,63.72,1
1609,27.45,9.92,66.03,1
1610,27.46,6.36,63.75,1
1611,27.48,0.42,52.65,1
1612,27.49,0.89,47.5,1
1613,27.5,2.74,50.69,1
1614,27.52,0.78,49.59,1
1615,27.53,-0.83,42.0,1
1616,27.54,0.16,33.81,1
1617,27.56,3.1,30.07,1
1618,27.57,5.1,33.55,1
1619,27.58,1.02,38.25,1
1620,27.6,-10.93,34.11,1
1621,27.61,-21.84,24.63,1
1622,27.62,-20.56,20.54,1
1623,27.64,-12.48,23.66,1
1624,27.65,-8.24,28.27,1
1625,27.67,-7.47,29.46,1
1626,27.68,-5.39,28.24,1
1627,27.69,-0.56,21.72,1
1628,27.7,0.69,7.52,1
1629,27.72,-7.79,1.02,1
1630,27.73,-18.86,6.71,1
1631,27.75,-25.82,7.89,1
1632,27.76,-27.89,5.16,1
1633,27.77,-20.98,7.94,1
1634,27.79,-9.02,6.31,1
1635,27.8,-6.98,-4.25,1
1636,27.81,-17.23,-11.6,1
1637,27.83,-26.55,-19.62,1
1638,27.84,-28.06,-35.23,1
1639,27.85,-27.05,-37.28,1
1640,27.87,-26.95,-19.4,1
1641,27.88,-24.44,-8.2,1
1642,27.89,-19.52,-13.73,1
1643,27.91,-17.88,-23.44,1
1644,27.92,-19.1,-30.97,1
1645,27.93,-17.65,-34.47,1
1646,27.94,-15.47,-30.12,1
1647,27.96,-15.29,-20.81,1
1648,27.97,-11.44,-17.06,1
1649,27.98,-6.28,-24.49,1
1650,28.0,-9.74,-32.15,1
1651,28.01,-17.76,-24.16,1
1652,28.02,-22.76,-6.78,1
1653,28.04,-27.56,-4.08,1
1654,28.05,-34.38,-20.56,1
1655,28.06,-39.13,-34.62,1
1656,28.08,-34.22,-34.18,1
1657,28.09,-18.24,-28.28,1
1658,28.1,-4.95,-27.07,1
1659,28.12,-9.33,-25.4,1
1660,28.13,-24.22,-13.62,1
1661,28.14,-25.92,-7.08,1
1662,28.16,-9.43,-22.77,0
1663,28.17,3.63,-42.76,0
1664,28.18,0.07,-45.75,0
1665,28.2,-9.32,-36.16,0
1666,28.21,-10.97,-28.28,0
1667,28.22,-5.59,-27.95,0
1668,28.24,1.18,-28.16,0
1669,28.25,3.92,-23.85,0
1670,28.26,-31.55,-19.85,0
1671,28.28,-131.07,-13.29,0
1672,28.29,-236.09,-2.74,0
1673,28.3,-282.73,-3.84,0
1674,28.32,-300.59,-16.93,0
1675,28.33,-330.14,-25.37,0
1676,28.34,-341.89,-35.02,0
1677,28.36,-304.78,-53.28,0
1678,28.37,-247.46,-63.74,0
1679,28.39,-205.62,-64.51,0
1680,28.4,-174.6,-69.9,0
1681,28.41,-126.83,-68.63,0
1682,28.43,-28.12,-45.68,0
1683,28.44,122.36,-21.45,0
1684,28.45,257.88,-19.4,0
1685,28.47,317.71,-31.2,0
1686,28.48,319.87,-37.6,0
1687,28.49,314.54,-30.56,0
1688,28.51,318.68,-15.27,0
1689,28.52,319.33,-5.01,0
1690,28.53,304.95,-4.28,0
1691,28.55,279.52,-8.5,1
1692,28.56,258.43,-15.87,1
1693,28.57,247.28,-20.99,1
1694,28.58,229.04,-14.84,1
1695,28.6,194.14,0.2,1
1696,28.61,163.54,8.43,1
1697,28.62,152.9,4.71,1
1698,28.64,146.49,2.57,1
1699,28.65,128.09,3.56,1
1700,28.67,102.18,-3.97,1
1701,28.68,79.5,-13.32,1
1702,28.69,64.28,-10.94,1
1703,28.7,55.33,-2.31,1
1704,28.72,49.89,-1.17,1
1705,28.73,42.6,-6.93,1
1706,28.75,29.89,-8.2,1
1707,28.76,19.57,-4.68,1
1708,28.77,18.92,-4.74,1
1709,28.78,16.07,-6.97,1
1710,28.8,2.12,-3.72,1
1711,28.81,-9.14,2.04,1
1712,28.82,-12.99,0.42,1
1713,28.84,-20.68,-3.37,1
1714,28.85,-27.88,0.89,1
1715,28.86,-27.77,5.81,1
1716,28.88,-32.12,-0.69,1
1717,28.89,-44.05,-11.15,1
1718,28.9,-49.68,-8.02,1
1719,28.92,-49.26,4.46,1
1720,28.93,-54.0,9.57,1
1721,28.94,-59.15,7.14,1
1722,28.96,-57.82,3.31,1
1723,28.97,-59.2,0.57,1
1724,28.98,-68.27,3.56,1
1725,29.0,-75.96,8.57,1
1726,29.01,-71.67,7.31,1
1727,29.03,-57.34,6.92,1
1728,29.04,-52.95,15.49,1
1729,29.05,-68.58,24.28,1
1730,29.07,-84.61,22.09,1
1731,29.08,-83.94,12.27,1
1732,29.09,-71.93,3.92,1
1733,29.11,-62.89,3.8,1
1734,29.12,-62.26,16.36,1
1735,29.13,-60.76,27.53,1
1736,29.15,-57.34,16.02,1
1737,29.16,-63.53,-3.93,1
1738,29.17,-72.3,-2.29,1
1739,29.19,-69.14,10.81,1
1740,29.2,-62.55,8.65,1
1741,29.21,-61.43,2.14,1
1742,29.22,-59.04,10.46,1
1743,29.24,-52.2,19.26,1
1744,29.25,-46.4,13.0,1
1745,29.26,-49.58,-0.21,1
1746,29.28,-57.46,-6.5,1
1747,29.29,-54.27,-0.57,1
1748,29.3,-46.0,8.84,1
1749,29.32,-45.35,7.77,1
1750,29.33,-36.51,0.81,1
1751,29.34,-21.39,3.32,1
1752,29.36,-31.87,9.86,1
1753,29.37,-52.1,2.25,1
1754,29.38,-41.87,-11.01,1
1755,29.4,-24.17,-6.48,1
1756,29.41,-33.99,7.62,1
1757,29.42,-48.4,12.91,1
1758,29.44,-41.9,16.04,1
1759,29.45,-27.16,19.52,1
1760,29.46,-17.9,15.94,1
1761,29.48,-13.47,10.24,1
1762,29.49,-12.02,7.49,1
1763,29.5,-11.06,7.28,1
1764,29.52,-7.97,7.81,1
1765,29.53,-6.85,3.7,1
1766,29.54,-8.63,-0.94,1
1767,29.56,-5.89,5.93,1
1768,29.57,-2.58,21.18,1
1769,29.58,-5.66,21.75,1
1770,29.6,-2.72,1.55,1
1771,29.61,10.58,-10.12,1
1772,29.62,17.9,-1.61,1
1773,29.64,13.03,5.01,1
1774,29.65,4.78,3.47,1
1775,29.67,2.83,0.17,1
1776,29.68,9.84,-3.1,1
1777,29.69,18.5,-0.58,1
1778,29.71,19.09,1.19,1
1779,29.72,11.52,-3.89,1
1780,29.73,8.65,1.24,1
1781,29.75,17.91,13.99,1
1782,29.76,26.64,6.23,1
1783,29.77,22.2,-6.28,1
1784,29.79,13.26,9.09,1
1785,29.8,14.08,20.06,1
1786,29.81,19.74,-0.5,1
1787,29.83,17.49,-14.95,1
1788,29.84,9.25,-4.91,1
1789,29.85,7.62,4.43,1
1790,29.86,18.19,3.41,1
1791,29.88,28.53,2.1,1
1792,29.89,25.9,3.27,1
1793,29.9,17.82,4.58,1
1794,29.92,14.82,4.97,1
1795,29.93,14.07,5.27,1
1796,29.94,14.76,8.17,1
1797,29.96,18.15,9.56,1
1798,29.97,20.59,3.01,1
1799,29.98,22.29,-6.22,1
1800,30.0,24.91,-9.87,1
1801,30.01,25.4,-6.05,1
1802,30.02,25.83,3.67,1
1803,30.04,27.08,10.87,1
1804,30.05,24.99,8.93,1
1805,30.06,24.49,5.98,1
1806,30.08,30.27,6.21,1
1807,30.09,34.01,-0.01,1
1808,30.1,30.32,-12.94,1
1809,30.12,20.36,-17.02,1
1810,30.13,12.6,-4.32,1
1811,30.14,19.36,6.98,1
1812,30.16,32.58,1.47,0
1813,30.17,34.42,-4.57,0
1814,30.18,26.08,-3.27,0
1815,30.2,10.59,-8.61,0
1816,30.21,-45.27,-14.04,0
1817,30.22,-172.08,-10.65,0
1818,30.24,-303.14,-16.29,0
1819,30.25,-335.34,-33.0,0
1820,30.26,-285.66,-34.6,0
1821,30.28,-239.16,-17.67,0
1822,30.29,-206.24,-5.6,0
1823,30.3,-146.17,-8.44,0
1824,30.32,-55.04,-16.01,0
1825,30.33,25.54,-15.37,0
1826,30.35,69.12,-8.17,0
1827,30.36,101.99,-4.63,0
1828,30.37,141.89,-1.51,0
1829,30.39,165.79,5.54,0
1830,30.4,170.29,6.21,0
1831,30.41,179.56,-2.98,0
1832,30.43,201.0,-12.07,0
1833,30.44,223.1,-9.67,0
1834,30.45,231.12,7.67,0
1835,30.47,222.51,20.36,0
1836,30.48,208.78,12.1,0
1837,30.49,193.96,3.32,0
1838,30.5,176.55,8.98,0
1839,30.52,165.31,15.5,0
1840,30.53,160.48,17.95,0
1841,30.54,145.69,17.81,0
1842,30.56,122.48,10.77,1
1843,30.57,112.71,3.25,1
1844,30.58,116.63,5.55,1
1845,30.6,112.65,10.73,1
1846,30.61,98.75,5.96,1
1847,30.62,91.33,1.78,1
1848,30.64,87.77,9.45,1
1849,30.65,76.83,9.92,1
1850,30.67,62.73,-3.65,1
1851,30.68,47.19,-5.55,1
1852,30.69,27.68,14.07,1
1853,30.7,14.0,29.35,1
1854,30.72,12.25,18.73,1
1855,30.73,15.63,1.5,1
1856,30.75,12.7,6.93,1
1857,30.76,-12.1,21.23,1
1858,30.77,-53.63,17.25,1
1859,30.78,-73.05,-0.69,1
1860,30.8,-55.25,-11.61,1
1861,30.81,-35.35,-0.13,1
1862,30.82,-36.39,18.52,1
1863,30.84,-41.79,13.67,1
1864,30.85,-40.66,-6.76,1
1865,30.86,-40.94,-11.63,1
1866,30.88,-42.31,-2.97,1
1867,30.89,-40.27,-2.75,1
1868,30.9,-44.19,-7.7,1
1869,30.92,-56.9,-1.94,1
1870,30.93,-64.28,7.23,1
1871,30.94,-67.35,7.56,1
1872,30.96,-76.14,4.42,1
1873,30.97,-79.37,5.25,1
1874,30.99,-69.31,3.58,1
1875,31.0,-61.44,-9.62,1
1876,31.01,-65.44,-21.95,1
1877,31.03,-70.46,-12.93,1
1878,31.04,-65.1,4.26,1
1879,31.05,-60.34,4.92,1
1880,31.07,-71.46,-2.79,1
1881,31.08,-84.97,-2.31,1
1882,31.09,-78.74,-1.48,1
1883,31.11,-61.24,-11.75,1
1884,31.12,-59.09,-24.95,1
1885,31.13,-70.94,-27.34,1
1886,31.14,-72.65,-18.18,1
1887,31.16,-65.67,-11.28,1
1888,31.17,-65.08,-20.05,1
1889,31.18,-63.15,-28.24,1
1890,31.2,-60.69,-15.94,1
1891,31.21,-73.61,-2.53,1
1892,31.22,-83.33,-5.27,1
1893,31.24,-66.85,-11.97,1
1894,31.25,-48.5,-14.39,1
1895,31.26,-52.41,-12.28,1
1896,31.28,-59.16,-2.77,1
1897,31.29,-49.99,8.96,1
1898,31.3,-40.59,10.99,1
1899,31.32,-47.98,-0.3,1
1900,31.33,-56.29,-10.9,1
1901,31.34,-45.31,-5.1,1
1902,31.36,-32.05,5.44,1
1903,31.37,-39.1,0.71,1
1904,31.38,-48.54,-8.85,1
1905,31.4,-37.55,-7.6,1
1906,31.41,-20.34,-8.65,1
1907,31.42,-16.93,-20.06,1
1908,31.44,-19.89,-23.53,1
1909,31.45,-16.53,-19.09,1
1910,31.46,-12.16,-20.7,1
1911,31.48,-14.78,-17.35,1
1912,31.49,-20.09,-2.57,1
1913,31.5,-19.13,6.26,1
1914,31.52,-15.0,1.69,1
1915,31.53,-17.35,-3.47,1
1916,31.54,-15.09,2.19,1
1917,31.56,1.78,7.56,1
1918,31.57,9.29,0.15,1
1919,31.58,-0.6,-2.66,1
1920,31.6,-0.71,11.46,1
1921,31.61,6.14,19.23,1
1922,31.63,0.01,11.26,1
1923,31.64,-2.34,9.07,1
1924,31.65,12.02,12.53,1
1925,31.67,22.93,6.02,1
1926,31.68,21.71,-0.21,1
1927,31.69,18.86,1.41,1
1928,31.71,19.79,-1.12,1
1929,31.72,23.49,-4.57,1
1930,31.73,23.14,1.75,1
1931,31.75,17.79,9.09,1
1932,31.76,22.37,6.66,1
1933,31.77,35.63,-1.45,1
1934,31.78,34.99,-4.63,1
1935,31.8,20.8,2.74,1
1936,31.81,14.17,11.93,1
1937,31.82,21.43,9.7,1
1938,31.84,32.06,-1.6,1
1939,31.85,33.85,-5.99,1
1940,31.86,29.86,5.82,1
1941,31.88,28.95,22.3,1
1942,31.89,22.9,26.29,1
1943,31.9,14.08,15.37,1
1944,31.92,24.1,-1.88,1
1945,31.93,39.62,-11.77,1
1946,31.94,33.33,-6.97,1
1947,31.96,24.61,-2.24,1
1948,31.97,29.3,-7.25,1
1949,31.98,24.8,-4.34,1
1950,32.0,15.23,9.86,1
1951,32.01,23.26,12.99,1
1952,32.03,33.08,3.87,1
1953,32.04,23.45,3.31,1
1954,32.05,6.98,13.88,1
1955,32.06,5.06,16.23,1
1956,32.08,17.76,3.91,1
1957,32.09,27.35,-6.09,1
1958,32.11,29.38,-1.59,1
1959,32.12,32.42,5.96,1
1960,32.13,31.18,3.15,1
1961,32.15,22.5,1.76,1
1962,32.16,19.78,14.34,2
1963,32.17,22.34,25.45,2
1964,32.19,13.59,21.5,2
1965,32.2,10.4,19.21,2
1966,32.21,72.79,39.22,2
1967,32.22,211.41,66.7,2
1968,32.24,343.98,68.25,2
1969,32.25,407.04,45.6,2
1970,32.27,406.21,27.6,2
1971,32.28,359.88,20.23,2
1972,32.29,298.28,12.39,2
1973,32.31,252.8,0.49,2
1974,32.32,219.52,-12.86,2
1975,32.33,182.85,-24.34,2
1976,32.35,128.73,-36.74,2
1977,32.36,22.71,-48.38,2
1978,32.37,-137.14,-46.92,2
1979,32.39,-273.31,-34.08,2
1980,32.4,-327.55,-26.83,2
1981,32.41,-331.81,-23.69,2
1982,32.43,-329.26,-13.85,2
1983,32.44,-323.24,-9.67,2
1984,32.45,-312.81,-24.56,2
1985,32.47,-298.32,-38.18,2
1986,32.48,-271.4,-30.47,2
1987,32.49,-239.24,-21.38,2
1988,32.51,-218.03,-29.31,2
1989,32.52,-202.84,-32.41,2
1990,32.53,-180.72,-18.15,2
1991,32.54,-154.69,-7.95,2
1992,32.56,-135.15,-10.2,1
1993,32.57,-122.38,-11.55,1
1994,32.59,-109.16,-4.4,1
1995,32.6,-93.2,2.75,1
1996,32.61,-78.27,-3.63,1
1997,32.63,-69.23,-13.94,1
1998,32.64,-66.35,-9.69,1
1999,32.65,-62.38,-0.05,1
2000,32.67,-49.07,2.3,1
2001,32.68,-31.68,1.22,1
2002,32.69,-23.52,-1.26,1
2003,32.71,-20.07,0.58,1
2004,32.72,-9.41,8.97,1
2005,32.73,2.66,5.58,1
2006,32.75,5.48,-10.19,1
2007,32.76,4.42,-9.39,1
2008,32.77,11.86,8.56,1
2009,32.79,27.45,14.85,1
2010,32.8,36.68,7.41,1
2011,32.81,35.08,5.14,1
2012,32.83,37.89,10.01,1
2013,32.84,49.88,9.63,1
2014,32.85,54.17,4.36,1
2015,32.87,43.17,4.41,1
2016,32.88,34.15,3.73,1
2017,32.89,44.28,-1.13,1
2018,32.9,59.91,-0.33,1
2019,32.92,57.76,-0.78,1
2020,32.93,47.73,-7.9,1
2021,32.95,50.15,-4.94,1
2022,32.96,56.18,9.84,1
2023,32.97,55.99,12.9,1
2024,32.99,60.28,3.31,1
2025,33.0,73.3,3.13,1
2026,33.01,81.5,10.62,1
2027,33.03,75.32,12.98,1
2028,33.04,66.85,14.05,1
2029,33.05,69.92,13.13,1
2030,33.06,74.07,5.78,1
2031,33.08,67.8,-0.2,1
2032,33.09,62.45,-2.99,1
2033,33.11,63.34,-6.6,1
2034,33.12,56.59,-3.09,1
2035,33.13,44.2,9.54,1
2036,33.15,47.42,17.95,1
2037,33.16,60.84,12.72,1
2038,33.17,57.18,-2.17,1
2039,33.19,45.57,-11.83,1
2040,33.2,52.85,-6.82,1
2041,33.21,62.2,7.92,1
2042,33.22,49.86,23.54,1
2043,33.24,40.63,26.35,1
2044,33.25,54.18,9.94,1
2045,33.27,59.09,-1.2,1
2046,33.28,39.21,12.85,1
2047,33.29,24.35,22.62,1
2048,33.31,25.96,3.13,1
2049,33.32,25.88,-12.9,1
2050,33.33,22.45,-4.08,1
2051,33.35,24.21,4.36,1
2052,33.36,31.8,3.41,1
2053,33.37,40.74,3.26,1
2054,33.38,36.77,0.8,1
2055,33.4,21.2,-4.4,1
2056,33.41,18.47,-7.43,1
2057,33.43,28.14,-9.3,1
2058,33.44,27.41,-6.18,1
2059,33.45,15.9,3.72,1
2060,33.47,8.62,12.66,1
2061,33.48,5.33,18.21,1
2062,33.49,2.13,15.75,1
2063,33.51,5.71,2.08,1
2064,33.52,12.36,-11.58,1
2065,33.53,5.78,-15.08,1
2066,33.54,-9.29,-8.82,1
2067,33.56,-11.26,-3.61,1
2068,33.57,-0.55,-9.69,1
2069,33.59,5.48,-14.87,1
2070,33.6,0.85,-4.86,1
2071,33.61,-9.85,8.78,1
2072,33.63,-19.75,11.27,1
2073,33.64,-21.05,8.29,1
2074,33.65,-11.75,5.61,1
2075,33.67,1.38,0.49,1
2076,33.68,5.92,-7.12,1
2077,33.69,-3.59,-16.36,1
2078,33.71,-19.81,-19.57,1
2079,33.72,-32.59,-9.96,1
2080,33.73,-34.33,0.93,1
2081,33.75,-29.39,1.18,1
2082,33.76,-31.74,-3.27,1
2083,33.77,-36.77,-3.11,1
2084,33.79,-32.87,1.55,1
2085,33.8,-28.37,10.94,1
2086,33.81,-26.4,23.58,1
2087,33.83,-18.79,21.49,1
2088,33.84,-15.75,0.92,1
2089,33.85,-26.78,-11.08,1
2090,33.87,-35.58,-7.32,1
2091,33.88,-32.99,-7.01,1
2092,33.89,-28.85,-9.94,1
2093,33.9,-25.07,-5.24,1
2094,33.92,-20.65,-0.48,1
2095,33.93,-20.32,-2.87,1
2096,33.95,-22.22,-4.43,1
2097,33.96,-23.09,0.35,1
2098,33.97,-24.7,7.41,1
2099,33.99,-29.06,12.0,1
2100,34.0,-35.4,10.93,1
2101,34.01,-38.16,2.37,1
2102,34.03,-28.49,-9.18,1
2103,34.04,-16.42,-11.8,1
2104,34.05,-26.27,-5.76,1
2105,34.06,-46.32,-7.58,1
2106,34.08,-41.1,-14.2,1
2107,34.09,-21.34,-5.85,1
2108,34.11,-17.57,8.82,1
2109,34.12,-21.72,1.4,1
2110,34.13,-19.05,-21.79,1
2111,34.15,-18.55,-20.67,1
2112,34.16,-25.38,13.76,1
2113,34.17,-25.27,46.3,1
2114,34.19,-11.21,78.69,1
2115,34.2,-2.68,124.34,1
2116,34.21,-23.17,115.99,1
2117,34.23,-11.7,105.6,1
2118,34.24,131.4,264.65,1
2119,34.25,208.85,454.28,1
2120,34.27,-20.93,417.04,1
2121,34.28,-197.79,270.56,1
2122,34.29,0.65,225.11,1
2123,34.31,131.85,230.96,1
2124,34.32,-144.99,190.11,1
2125,34.33,-453.24,133.3,1
2126,34.35,-440.37,103.35,1
2127,34.36,-237.87,82.07,1
2128,34.37,-21.86,50.89,1
2129,34.38,139.34,20.08,1
2130,34.4,120.21,-2.88,1
2131,34.41,-29.52,-23.32,1
2132,34.43,-26.51,-45.12,1
2133,34.44,196.97,-65.43,1
2134,34.45,347.0,-82.21,1
2135,34.47,191.95,-96.93,1
2136,34.48,-100.59,-110.95,1
2137,34.49,-167.73,-123.98,1
2138,34.51,55.36,-135.16,1
2139,34.52,227.21,-145.04,1
2140,34.53,101.36,-153.89,1
2141,34.54,-65.08,-160.67,1
2142,34.56,35.6,-166.0,1
2143,34.57,176.78,-170.87,1
2144,34.59,94.91,-174.7,1
2145,34.6,22.14,-177.16,1
2146,34.61,93.28,-179.0,1
2147,34.63,70.0,-180.72,1
2148,34.64,-10.51,-181.29,1
2149,34.65,51.31,-180.42,1
2150,34.67,74.39,-178.93,1
2151,34.68,-52.73,-177.25,1
2152,34.69,-160.15,-175.21,1
2153,34.71,-157.22,-172.39,1
2154,34.72,33.53,-169.0,1
2155,34.73,285.58,-164.99,1
2156,34.75,196.86,-160.82,1
2157,34.76,-200.38,-156.33,1
2158,34.77,-338.98,-150.62,1
2159,34.79,-54.12,-177.25,1
2160,34.8,135.15,-263.26,1
2161,34.81,61.25,-342.55,1
2162,34.83,146.68,-392.3,1
2163,34.84,323.57,-428.54,1
2164,34.85,162.38,-338.88,1
2165,34.87,-173.97,-173.47,1
2166,34.88,-344.06,-229.14,1
2167,34.89,-340.53,-443.46,1
2168,34.91,-151.44,-433.94,1
2169,34.92,131.86,-245.04,1
2170,34.93,193.58,-186.88,1
2171,34.95,-22.04,-273.52,1
2172,34.96,-221.18,-321.43,1
2173,34.97,-236.13,-187.0,1
2174,34.99,-192.62,-16.21,1
2175,35.0,-174.55,-31.85,1
2176,35.01,-154.63,-4.82,1
2177,35.03,-174.21,175.04,1
2178,35.04,-164.1,82.48,1
2179,35.05,-64.14,-246.35,1
2180,35.06,-79.98,-200.04,1
2181,35.08,-220.47,176.6,1
2182,35.09,-215.26,240.51,1
2183,35.11,-108.33,-66.27,1
2184,35.12,-108.91,-267.77,1
2185,35.13,-95.47,-217.57,1
2186,35.15,71.42,-115.88,1
2187,35.16,254.06,-67.6,1
2188,35.17,343.48,-32.14,1
2189,35.19,370.66,18.92,1
2190,35.2,364.05,68.7,1
2191,35.21,337.79,106.62,1
2192,35.22,302.97,140.94,1
2193,35.24,253.19,175.88,1
2194,35.25,196.17,207.27,1
2195,35.27,157.98,233.72,1
2196,35.28,137.07,257.27,1
2197,35.29,110.87,279.01,1
2198,35.31,83.22,298.63,1
2199,35.32,73.46,315.81,1
2200,35.33,72.11,330.34,1
2201,35.35,59.22,342.47,1
2202,35.36,45.84,352.27,1
2203,35.37,42.13,359.58,1
2204,35.38,30.18,365.14,1
2205,35.4,14.95,369.91,1
2206,35.41,21.78,372.92,1
2207,35.43,33.24,373.47,1
2208,35.44,18.05,373.34,1
2209,35.45,-6.12,384.56,1
2210,35.47,-5.63,429.58,1
2211,35.48,9.56,505.66,1
2212,35.49,6.36,569.63,1
2213,35.51,-15.23,589.98,1
2214,35.52,-27.42,580.95,1
2215,35.53,-23.89,563.91,1
2216,35.55,-22.05,537.16,1
2217,35.56,-25.23,504.38,1
2218,35.57,-25.02,472.61,1
2219,35.59,-31.68,433.97,1
2220,35.6,-52.57,395.39,1
2221,35.61,-62.22,370.23,1
2222,35.63,-48.72,345.52,1
2223,35.64,-40.65,307.84,1
2224,35.65,-51.93,264.79,1
2225,35.67,-61.14,227.61,1
2226,35.68,-54.76,195.28,1
2227,35.69,-50.29,159.3,1
2228,35.71,-57.22,125.98,1
2229,35.72,-54.05,106.53,1
2230,35.73,-39.84,87.64,1
2231,35.75,-43.08,54.47,1
2232,35.76,-58.71,23.46,1
2233,35.77,-54.32,12.68,1
2234,35.79,-35.81,3.89,1
2235,35.8,-38.4,-26.05,1
2236,35.81,-57.19,-59.65,1
2237,35.83,-56.97,-73.91,1
2238,35.84,-38.22,-85.77,1
2239,35.85,-31.41,-110.89,1
2240,35.87,-41.88,-131.91,1
2241,35.88,-47.86,-137.74,1
2242,35.89,-41.54,-146.26,1
2243,35.9,-34.71,-167.59,1
2244,35.92,-33.09,-183.51,1
2245,35.93,-31.97,-186.34,1
2246,35.95,-28.06,-191.47,1
2247,35.96,-26.05,-200.95,1
2248,35.97,-28.58,-209.36,1
2249,35.99,-25.86,-221.91,1
2250,36.0,-19.31,-237.95,1
2251,36.01,-24.17,-247.91,1
2252,36.03,-34.59,-246.23,1
2253,36.04,-36.76,-239.02,1
2254,36.05,-40.55,-242.36,1
2255,36.06,-54.33,-260.47,1
2256,36.08,-56.26,-272.52,1
2257,36.09,-33.22,-266.0,1
2258,36.11,-15.07,-256.25,1
2259,36.12,-16.83,-251.38,1
2260,36.13,-7.79,-247.78,1
2261,36.15,15.37,-252.08,1
2262,36.16,16.94,-258.55,2
2263,36.17,-3.25,-248.96,2
2264,36.19,3.81,-227.84,2
2265,36.2,87.27,-213.2,2
2266,36.21,231.7,-211.09,2
2267,36.23,352.18,-217.24,2
2268,36.24,388.97,-220.77,2
2269,36.25,356.93,-220.48,2
2270,36.27,298.87,-228.23,2
2271,36.28,236.56,-239.17,2
2272,36.29,167.13,-233.7,2
2273,36.31,91.38,-215.17,2
2274,36.32,20.05,-205.15,2
2275,36.33,-41.58,-202.5,2
2276,36.35,-93.26,-190.7,2
2277,36.36,-138.36,-173.77,2
2278,36.37,-178.87,-165.96,2
2279,36.38,-205.29,-166.85,2
2280,36.4,-210.17,-167.73,2
2281,36.41,-200.96,-164.88,2
2282,36.43,-196.91,-157.51,2
2283,36.44,-208.95,-141.79,2
2284,36.45,-218.95,-120.76,2
2285,36.47,-207.0,-109.05,2
2286,36.48,-188.46,-106.72,2
2287,36.49,-180.51,-100.25,2
2288,36.51,-178.18,-95.25,2
2289,36.52,-174.98,-97.49,2
2290,36.53,-162.73,-89.61,2
2291,36.54,-134.91,-70.32,2
2292,36.56,-109.59,-60.88,1
2293,36.57,-104.66,-60.52,1
2294,36.59,-100.77,-51.29,1
2295,36.6,-81.29,-31.24,1
2296,36.61,-69.64,-15.77,1
2297,36.63,-76.72,-17.37,1
2298,36.64,-68.01,-22.92,1
2299,36.65,-26.64,-13.57,1
2300,36.67,6.72,-2.07,1
2301,36.68,-1.23,-3.96,1
2302,36.69,-18.4,-3.43,1
2303,36.71,-2.95,8.2,1
2304,36.72,24.59,17.17,1
2305,36.73,24.31,22.7,1
2306,36.75,13.37,29.84,1
2307,36.76,26.39,30.9,1
2308,36.77,44.66,28.14,1
2309,36.79,42.7,31.23,1
2310,36.8,42.91,39.06,1
2311,36.81,56.85,51.82,1
2312,36.83,59.36,68.12,1
2313,36.84,54.47,74.73,1
2314,36.85,64.54,71.97,1
2315,36.87,76.4,69.49,1
2316,36.88,75.99,66.16,1
2317,36.89,78.49,66.66,1
2318,36.9,90.34,73.17,1
2319,36.92,94.17,77.25,1
2320,36.93,80.18,78.46,1
2321,36.95,66.3,75.78,1
2322,36.96,72.29,71.98,1
2323,36.97,84.81,77.24,1
2324,36.99,80.18,83.79,1
2325,37.0,70.2,83.19,1
2326,37.01,77.81,83.17,1
2327,37.03,87.3,84.8,1
2328,37.04,77.51,85.2,1
2329,37.05,70.63,88.74,1
2330,37.06,85.12,94.04,1
2331,37.08,95.18,91.63,1
2332,37.09,84.66,80.48,1
2333,37.11,75.48,69.67,1
2334,37.12,74.38,68.85,1
2335,37.13,65.37,78.93,1
2336,37.15,56.75,86.24,1
2337,37.16,63.01,88.01,1
2338,37.17,71.44,95.39,1
2339,37.19,70.86,101.37,1
2340,37.2,64.38,94.39,1
2341,37.21,55.91,80.14,1
2342,37.22,49.56,66.32,1
2343,37.24,42.39,51.33,1
2344,37.25,29.89,38.61,1
2345,37.27,17.78,46.0,1
2346,37.28,19.71,73.11,1
2347,37.29,39.66,87.02,1
2348,37.31,57.03,73.48,1
2349,37.32,49.48,59.05,1
2350,37.33,24.52,67.37,1
2351,37.35,7.03,83.93,1
2352,37.36,7.94,82.37,1
2353,37.37,18.52,72.81,1
2354,37.38,23.44,77.89,1
2355,37.4,14.98,88.51,1
2356,37.41,6.56,91.55,1
2357,37.43,15.04,87.97,1
2358,37.44,29.43,77.25,1
2359,37.45,21.92,64.76,1
2360,37.47,1.07,57.38,1
2361,37.48,1.73,51.94,1
2362,37.49,15.49,43.59,1
2363,37.51,9.15,32.15,1
2364,37.52,-8.14,31.07,1
2365,37.53,-10.39,44.36,1
2366,37.54,-5.17,41.36,1
2367,37.56,-8.85,12.8,1
2368,37.57,-16.88,-4.05,1
2369,37.59,-24.69,2.89,1
2370,37.6,-31.43,8.94,1
2371,37.61,-28.36,4.52,1
2372,37.63,-14.7,-4.45,1
2373,37.64,-6.53,-9.58,1
2374,37.65,-16.25,-1.22,1
2375,37.67,-29.5,11.57,1
2376,37.68,-24.31,15.34,1
2377,37.69,-10.15,16.34,1
2378,37.71,-9.72,15.02,1
2379,37.72,-18.78,8.81,1
2380,37.73,-20.28,8.36,1
2381,37.75,-18.52,9.3,1
2382,37.76,-27.93,0.31,1
2383,37.77,-36.6,-10.04,1
2384,37.79,-25.09,-12.77,1
2385,37.8,-12.05,-11.58,1
2386,37.81,-19.92,-10.18,1
2387,37.83,-32.55,-8.88,1
2388,37.84,-33.08,-8.04,1
2389,37.85,-32.28,-6.73,1
2390,37.87,-39.79,-10.39,1
2391,37.88,-41.79,-22.72,1
2392,37.89,-30.11,-26.78,1
2393,37.9,-30.34,-18.17,1
2394,37.92,-52.54,-20.18,1
2395,37.93,-54.78,-25.35,1
2396,37.95,-24.2,-9.98,1
2397,37.96,-9.2,2.56,1
2398,37.97,-23.96,-8.33,1
2399,37.99,-29.22,-23.86,1
2400,38.0,-17.4,-33.33,1
2401,38.01,-18.69,-35.67,1
2402,38.03,-32.28,-28.17,1
2403,38.04,-33.78,-21.03,1
2404,38.05,-28.54,-22.63,1
2405,38.06,-37.51,-29.84,1
2406,38.08,-48.08,-36.72,1
2407,38.09,-35.24,-35.04,1
2408,38.11,-15.04,-29.42,1
2409,38.12,-15.25,-30.6,1
2410,38.13,-25.11,-29.87,1
2411,38.15,-22.06,-21.65,1
2412,38.16,-8.7,-20.92,0
2413,38.17,-1.35,-27.48,0
2414,38.19,-7.76,-25.4,0
2415,38.2,-19.96,-20.95,0
2416,38.21,-27.93,-26.26,0
2417,38.22,-29.21,-30.28,0
2418,38.24,-23.37,-27.9,0
2419,38.25,-11.38,-29.06,0
2420,38.27,2.64,-31.96,0
2421,38.28,9.75,-30.33,0
2422,38.29,1.12,-27.59,0
2423,38.31,-13.64,-26.63,0
2424,38.32,-15.87,-24.36,0
2425,38.33,-10.79,-22.51,0
2426,38.35,-11.96,-27.57,0
2427,38.36,-12.8,-27.17,0
2428,38.37,-7.74,-7.1,0
2429,38.38,-3.92,9.2,0
2430,38.4,-5.06,3.34,0
2431,38.41,-33.74,1.0,0
2432,38.43,-113.49,12.65,0
2433,38.44,-203.66,17.86,0
2434,38.45,-257.85,13.6,0
2435,38.47,-295.1,1.06,0
2436,38.48,-326.66,-21.63,0
2437,38.49,-323.89,-39.61,0
2438,38.51,-287.27,-50.73,0
2439,38.52,-246.68,-68.52,0
2440,38.53,-210.56,-83.95,0
2441,38.54,-168.35,-79.89,0
2442,38.56,-102.67,-62.54,1
2443,38.57,8.47,-44.79,1
2444,38.59,150.21,-24.46,1
2445,38.6,261.82,-4.36,1
2446,38.61,308.05,-1.31,1
2447,38.63,310.31,-11.64,1
2448,38.64,303.23,-12.6,1
2449,38.65,301.88,-1.76,1
2450,38.67,295.93,7.78,1
2451,38.68,275.42,12.77,1
2452,38.69,253.51,14.94,1
2453,38.71,238.09,16.28,1
2454,38.72,220.09,19.03,1
2455,38.73,200.19,19.45,1
2456,38.75,188.16,9.19,1
2457,38.76,181.65,-4.66,1
2458,38.77,164.75,-1.0,1
2459,38.79,135.81,12.67,1
2460,38.8,118.94,8.05,1
2461,38.81,120.73,-2.89,1
2462,38.83,113.03,6.77,1
2463,38.84,85.64,16.0,1
2464,38.85,64.18,2.92,1
2465,38.87,61.51,-7.39,1
2466,38.88,58.01,-1.91,1
2467,38.89,42.31,1.12,1
2468,38.9,29.71,-2.51,1
2469,38.92,26.07,-5.44,1
2470,38.93,15.92,-5.08,1
2471,38.95,-1.15,0.14,1
2472,38.96,-7.99,5.08,1
2473,38.97,-7.78,4.48,1
2474,38.99,-13.02,5.86,1
2475,39.0,-15.58,12.57,1
2476,39.01,-11.14,11.81,1
2477,39.03,-14.98,1.49,1
2478,39.04,-29.48,-0.57,1
2479,39.05,-37.31,10.91,1
2480,39.06,-35.13,16.04,1
2481,39.08,-37.39,2.4,1
2482,39.09,-48.57,-5.73,1
2483,39.11,-58.16,10.48,1
2484,39.12,-60.03,20.35,1
2485,39.13,-59.38,8.22,1
2486,39.15,-61.15,3.87,1
2487,39.16,-63.93,11.91,1
2488,39.17,-65.32,13.51,1
2489,39.19,-68.12,10.89,1
2490,39.2,-72.66,10.82,1
2491,39.21,-71.1,11.96,1
2492,39.22,-64.42,12.56,1
2493,39.24,-64.9,9.16,1
2494,39.25,-72.58,6.62,1
2495,39.27,-74.57,13.79,1
2496,39.28,-65.9,20.15,1
2497,39.29,-57.18,17.98,1
2498,39.31,-60.22,22.7,1
2499,39.32,-68.17,29.56,1
2500,39.33,-64.18,16.29,1
2501,39.35,-53.24,-3.19,1
2502,39.36,-52.66,-4.21,1
2503,39.37,-58.18,4.12,1
2504,39.38,-58.46,4.06,1
2505,39.4,-57.7,-1.42,1
2506,39.41,-53.65,1.53,1
2507,39.43,-40.44,12.92,1
2508,39.44,-36.27,15.99,1
2509,39.45,-49.49,2.73,1
2510,39.47,-55.6,-11.44,1
2511,39.48,-47.04,-8.8,1
2512,39.49,-45.29,5.54,1
2513,39.51,-52.78,13.1,1
2514,39.52,-47.06,9.13,1
2515,39.53,-28.23,7.03,1
2516,39.54,-23.13,11.14,1
2517,39.56,-34.3,10.38,1
2518,39.57,-35.94,4.2,1
2519,39.59,-26.12,0.54,1
2520,39.6,-26.44,-2.97,1
2521,39.61,-36.01,-6.79,1
2522,39.63,-33.85,-1.96,1
2523,39.64,-18.59,7.49,1
2524,39.65,-9.49,7.29,1
2525,39.67,-13.44,-2.38,1
2526,39.68,-18.5,-11.31,1
2527,39.69,-17.83,-12.43,1
2528,39.71,-12.14,-4.39,1
2529,39.72,-1.13,5.12,1
2530,39.73,4.91,7.41,1
2531,39.75,-4.12,4.36,1
2532,39.76,-12.13,1.51,1
2533,39.77,-3.48,-3.12,1
2534,39.79,5.17,-8.81,1
2535,39.8,-2.56,-5.8,1
2536,39.81,-11.73,5.06,1
2537,39.83,-4.3,12.46,1
2538,39.84,10.91,11.96,1
2539,39.85,13.2,5.43,1
2540,39.87,1.87,0.55,1
2541,39.88,-3.24,-0.78,1
2542,39.89,4.73,-4.73,1
2543,39.9,7.97,-3.4,1
2544,39.92,3.5,2.86,1
2545,39.93,12.24,-3.36,1
2546,39.95,27.0,-15.15,1
2547,39.96,21.79,-17.5,1
2548,39.97,10.0,-15.83,1
2549,39.99,17.17,-12.71,1
2550,40.0,28.55,-3.53,1
2551,40.01,24.07,7.5,1
2552,40.03,15.7,12.14,1
2553,40.04,20.65,5.35,1
2554,40.05,31.91,-8.87,1
2555,40.065,28.32,-12.92,1
2556,40.08,12.18,-1.11,1
2557,40.09,9.1,6.0,1
2558,40.11,21.25,-4.19,1
2559,40.12,28.6,-16.53,1
2560,40.13,27.15,-12.6,1
2561,40.15,26.42,1.73,1
2562,40.16,29.95,3.66,0
2563,40.17,35.96,-5.73,0
2564,40.19,36.6,-4.05,0
2565,40.2,27.31,-4.61,0
2566,40.21,13.94,-25.37,0
2567,40.22,-26.78,-34.91,0
2568,40.24,-132.84,-23.78,0
2569,40.25,-265.3,-29.84,0
2570,40.27,-331.34,-51.41,0
2571,40.28,-311.08,-49.23,0
2572,40.29,-265.01,-19.8,0
2573,40.31,-223.88,4.0,0
2574,40.32,-162.46,3.32,0
2575,40.33,-75.62,-1.35,0
2576,40.35,5.15,11.22,0
2577,40.36,62.21,22.6,0
2578,40.37,103.65,17.46,0
2579,40.38,138.8,19.05,0
2580,40.4,170.69,34.52,0
2581,40.41,200.26,35.56,0
2582,40.43,223.71,22.09,0
2583,40.44,235.11,20.89,0
2584,40.45,233.63,23.54,0
2585,40.47,224.36,14.14,0
2586,40.48,218.9,13.42,0
2587,40.49,219.14,30.71,0
2588,40.51,210.59,40.2,0
2589,40.52,194.77,26.36,0
2590,40.53,187.61,3.95,0
2591,40.54,183.62,-3.87,0
2592,40.56,165.86,2.9,1
2593,40.57,141.28,6.08,1
2594,40.59,132.22,3.77,1
2595,40.6,136.9,3.03,1
2596,40.61,131.8,-4.28,1
2597,40.63,114.39,-21.48,1
2598,40.64,103.15,-28.03,1
2599,40.65,100.23,-10.42,1
2600,40.67,92.3,9.4,1
2601,40.68,73.58,11.06,1
2602,40.69,50.86,8.84,1
2603,40.71,39.74,11.36,1
2604,40.72,39.62,3.28,1
2605,40.73,25.03,-8.84,1
2606,40.75,-3.34,-5.85,1
2607,40.76,-16.05,1.7,1
2608,40.77,-10.35,3.59,1
2609,40.79,-3.26,8.31,1
2610,40.8,-1.52,10.89,1
2611,40.81,-7.61,7.52,1
2612,40.83,-19.83,9.65,1
2613,40.84,-30.06,10.73,1
2614,40.85,-35.82,-0.31,1
2615,40.87,-41.73,-4.93,1
2616,40.88,-49.83,5.76,1
2617,40.89,-55.04,4.66,1
2618,40.9,-55.98,-12.89,1
2619,40.92,-63.4,-13.73,1
2620,40.93,-77.83,6.52,1
2621,40.95,-82.52,16.58,1
2622,40.96,-76.5,5.3,1
2623,40.97,-71.67,-8.52,1
2624,40.99,-68.13,-8.83,1
2625,41.0,-69.71,-3.15,1
2626,41.01,-82.32,-3.67,1
2627,41.03,-89.59,-2.41,1
2628,41.04,-82.5,5.48,1
2629,41.05,-80.99,8.81,1
2630,41.06,-88.5,4.86,1
2631,41.08,-82.62,-0.84,1
2632,41.09,-69.15,-2.84,1
2633,41.11,-81.18,-0.39,1
2634,41.12,-108.38,-1.63,1
2635,41.13,-104.86,-5.9,1
2636,41.15,-76.84,-7.12,1
2637,41.16,-66.6,-11.22,1
2638,41.17,-67.76,-18.96,1
2639,41.19,-53.95,-18.1,1
2640,41.2,-42.97,-8.63,1
2641,41.21,-55.32,-4.64,1
2642,41.22,-70.66,-8.94,1
2643,41.24,-65.66,-13.16,1
2644,41.25,-50.72,-17.65,1
2645,41.27,-48.39,-23.72,1
2646,41.28,-57.15,-25.27,1
2647,41.29,-61.29,-22.18,1
2648,41.31,-59.65,-15.09,1
2649,41.32,-57.77,-5.94,1
2650,41.33,-50.54,-3.9,1
2651,41.35,-37.74,-5.43,1
2652,41.36,-28.54,-6.02,1
2653,41.37,-28.77,-10.48,1
2654,41.38,-37.73,-6.83,1
2655,41.4,-42.9,5.73,1
2656,41.41,-36.71,1.98,1
2657,41.43,-27.59,-11.77,1
2658,41.44,-13.68,-7.56,1
2659,41.45,-0.66,-0.05,1
2660,41.47,-12.81,-15.22,1
2661,41.48,-36.24,-27.26,1
2662,41.49,-34.71,-8.96,1
2663,41.51,-17.94,9.65,1
2664,41.52,-12.95,2.01,1
2665,41.53,-12.98,-8.58,1
2666,41.54,-7.15,-1.08,1
2667,41.56,-7.88,8.5,1
2668,41.57,-18.2,4.77,1
2669,41.59,-18.88,4.15,1
2670,41.6,-6.57,12.5,1
2671,41.61,2.91,4.71,1
2672,41.63,6.7,-14.54,1
2673,41.64,11.66,-13.61,1
2674,41.65,15.46,1.4,1
2675,41.67,12.96,5.61,1
2676,41.68,10.18,4.9,1
2677,41.69,14.64,9.26,1
2678,41.71,17.84,5.42,1
2679,41.72,12.55,-2.98,1
2680,41.73,5.24,2.86,1
2681,41.75,3.12,11.45,1
2682,41.76,11.82,10.32,1
2683,41.77,25.79,11.01,1
2684,41.79,29.03,14.48,1
2685,41.8,23.49,9.26,1
2686,41.81,22.77,-3.82,1
2687,41.83,24.06,-7.43,1
2688,41.84,21.35,7.46,1
2689,41.85,19.68,17.81,1
2690,41.87,19.88,6.16,1
2691,41.88,18.48,-4.83,1
2692,41.89,21.29,3.37,1
2693,41.9,28.0,11.57,1
2694,41.92,24.87,0.83,1
2695,41.93,15.71,-14.83,1
2696,41.95,21.17,-12.92,1
2697,41.96,37.69,1.4,1
2698,41.97,41.74,6.58,1
2699,41.99,29.56,3.84,1
2700,42.0,22.44,4.96,1
2701,42.01,29.92,6.45,1
2702,42.03,32.99,8.0,1
2703,42.04,25.75,12.81,1
2704,42.05,26.01,11.35,1
2705,42.06,29.32,2.1,1
2706,42.08,18.64,-2.74,1
2707,42.09,4.55,-1.06,1
2708,42.11,8.93,4.17,1
2709,42.12,28.15,13.33,1
2710,42.13,36.33,15.4,1
2711,42.15,29.14,3.72,1
2712,42.16,30.22,-4.35,2
2713,42.17,36.77,2.21,2
2714,42.19,28.5,11.59,2
2715,42.2,19.17,13.13,2
2716,42.21,32.46,18.98,2
2717,42.22,71.95,51.18,2
2718,42.24,140.55,93.61,2
2719,42.25,242.44,98.8,2
2720,42.27,351.76,64.0,2
2721,42.28,409.83,28.15,2
2722,42.29,388.5,7.11,2
2723,42.31,329.25,0.04,2
2724,42.32,280.65,4.72,2
2725,42.33,243.74,2.0,2
2726,42.35,204.54,-17.99,2
2727,42.36,165.18,-39.7,2
2728,42.37,126.21,-51.12,2
2729,42.38,59.31,-52.29,2
2730,42.4,-70.71,-45.61,2
2731,42.41,-230.12,-41.81,2
2732,42.43,-330.2,-46.48,2
2733,42.44,-350.61,-44.44,2
2734,42.45,-350.38,-28.87,2
2735,42.47,-360.19,-19.86,2
2736,42.48,-352.48,-24.66,2
2737,42.49,-317.09,-28.01,2
2738,42.51,-282.81,-28.18,2
2739,42.52,-262.97,-27.74,2
2740,42.53,-247.75,-17.51,2
2741,42.54,-231.18,-5.96,2
2742,42.56,-206.81,-8.67,1
2743,42.57,-176.62,-17.09,1
2744,42.59,-156.85,-18.51,1
2745,42.6,-149.88,-8.66,1
2746,42.61,-137.58,5.4,1
2747,42.63,-110.67,4.55,1
2748,42.64,-84.17,-4.72,1
2749,42.65,-70.03,3.28,1
2750,42.66,-59.54,19.96,1
2751,42.68,-49.86,20.93,1
2752,42.69,-51.08,6.16,1
2753,42.71,-55.02,-8.83,1
2754,42.72,-42.93,-10.97,1
2755,42.73,-24.01,-3.97,1
2756,42.75,-16.87,-1.95,1
2757,42.76,-9.58,-0.52,1
2758,42.77,4.75,7.33,1
2759,42.79,-7.0,9.21,1
2760,42.8,-43.3,1.77,1
2761,42.81,-39.92,-2.45,1
2762,42.83,12.55,1.44,1
2763,42.84,52.86,7.89,1
2764,42.85,59.22,9.63,1
2765,42.87,55.06,2.83,1
2766,42.88,54.96,-8.17,1
2767,42.89,61.77,-11.42,1
2768,42.9,70.02,0.9,1
2769,42.92,76.51,16.23,1
2770,42.93,89.79,13.73,1
2771,42.95,100.64,1.28,1
2772,42.96,90.98,3.81,1
2773,42.97,78.92,12.53,1
2774,42.99,82.07,6.8,1
2775,43.0,81.25,-1.39,1
2776,43.01,74.67,-2.66,1
2777,43.03,82.93,-3.68,1
2778,43.04,94.99,0.57,1
2779,43.05,91.01,7.24,1
2780,43.06,79.83,7.7,1
2781,43.08,75.39,11.09,1
2782,43.09,79.24,15.37,1
2783,43.11,82.99,8.48,1
2784,43.12,78.35,0.77,1
2785,43.13,69.12,4.63,1
2786,43.15,62.19,13.45,1
2787,43.16,56.32,12.92,1
2788,43.17,49.91,-0.92,1
2789,43.19,46.76,-10.78,1
2790,43.2,49.13,-2.51,1
2791,43.21,55.94,12.3,1
2792,43.22,66.28,16.38,1
2793,43.24,71.41,10.43,1
2794,43.25,62.39,5.74,1
2795,43.27,44.9,4.72,1
2796,43.28,34.97,2.68,1
2797,43.29,39.93,0.02,1
2798,43.3,47.99,1.19,1
2799,43.32,44.9,3.04,1
2800,43.33,40.14,-0.95,1
2801,43.35,40.27,-1.73,1
2802,43.36,31.33,5.52,1
2803,43.37,17.86,4.07,1
2804,43.38,18.17,-6.62,1
2805,43.4,25.97,-7.13,1
2806,43.41,27.18,3.57,1
2807,43.43,23.43,12.44,1
2808,43.44,20.9,13.39,1
2809,43.45,21.49,8.48,1
2810,43.47,21.7,4.52,1
2811,43.48,17.31,1.48,1
2812,43.49,14.27,-4.31,1
2813,43.51,12.39,-2.79,1
2814,43.52,1.36,9.18,1
2815,43.53,-9.21,13.15,1
2816,43.54,-4.06,6.22,1
2817,43.56,4.59,5.06,1
2818,43.57,1.28,8.68,1
2819,43.59,-9.36,7.13,1
2820,43.6,-14.6,2.66,1
2821,43.61,-9.28,-0.72,1
2822,43.63,-4.99,-2.96,1
2823,43.64,-9.5,-6.06,1
2824,43.65,-12.48,-10.37,1
2825,43.67,-11.51,-10.75,1
2826,43.68,-15.82,-2.81,1
2827,43.69,-19.04,6.29,1
2828,43.71,-11.79,4.22,1
2829,43.72,-9.14,-5.72,1
2830,43.73,-23.21,-8.23,1
2831,43.75,-33.97,-3.64,1
2832,43.76,-25.84,-0.56,1
2833,43.77,-17.25,5.61,1
2834,43.79,-25.21,12.2,1
2835,43.8,-38.04,7.51,1
2836,43.81,-38.01,2.14,1
2837,43.83,-24.75,6.4,1
2838,43.84,-14.79,2.89,1
2839,43.85,-21.36,-14.23,1
2840,43.87,-34.45,-22.65,1
2841,43.88,-38.26,-16.27,1
2842,43.89,-34.32,-14.81,1
2843,43.9,-30.17,-21.02,1
2844,43.92,-28.08,-21.48,1
2845,43.93,-31.08,-15.72,1
2846,43.94,-37.11,-5.37,1
2847,43.96,-37.0,5.24,1
2848,43.97,-29.38,-0.05,1
2849,43.99,-24.32,-15.14,1
2850,44.0,-30.49,-15.94,1
2851,44.01,-39.02,-9.86,1
2852,44.03,-34.59,-16.87,1
2853,44.04,-24.93,-22.35,1
2854,44.05,-25.83,-9.02,1
2855,44.06,-32.88,3.06,1
2856,44.08,-38.28,3.3,1
2857,44.09,-42.76,7.47,1
2858,44.11,-42.84,9.21,1
2859,44.12,-34.28,-2.58,1
2860,44.13,-22.54,-7.2,1
2861,44.15,-15.35,11.75,1
2862,44.16,-13.6,34.22,1
2863,44.17,-13.76,44.4,1
2864,44.19,-14.1,72.36,1
2865,44.2,-15.54,130.05,1
2866,44.21,23.22,196.8,1
2867,44.22,118.0,299.7,1
2868,44.24,81.08,405.76,1
2869,44.25,-138.82,394.27,1
2870,44.27,-211.62,291.72,1
2871,44.28,-96.05,231.24,1
2872,44.29,-101.68,218.53,1
2873,44.31,-214.09,187.36,1
2874,44.32,-242.39,138.91,1
2875,44.33,-212.83,104.27,1
2876,44.35,-201.3,80.25,1
2877,44.36,-122.54,52.15,1
2878,44.37,100.2,22.43,1
2879,44.38,252.79,-2.18,1
2880,44.4,96.31,-22.8,1
2881,44.41,-103.06,-42.57,1
2882,44.43,49.6,-61.43,1
2883,44.44,270.29,-78.21,1
2884,44.45,94.11,-93.57,1
2885,44.47,-135.39,-107.9,1
2886,44.48,79.87,-120.84,1
2887,44.49,353.37,-132.07,1
2888,44.51,186.38,-142.11,1
2889,44.52,-135.84,-150.63,1
2890,44.53,-183.43,-157.74,1
2891,44.54,8.39,-163.7,1
2892,44.56,199.82,-168.45,1
2893,44.57,299.38,-171.44,1
2894,44.58,294.86,-174.05,1
2895,44.6,129.46,-176.74,1
2896,44.61,-88.51,-178.69,1
2897,44.62,-150.75,-178.86,1
2898,44.64,-58.96,-177.91,1
2899,44.65,47.81,-203.08,1
2900,44.67,132.86,-288.55,1
2901,44.68,256.99,-344.25,1
2902,44.69,290.63,-264.12,1
2903,44.71,36.96,-173.91,1
2904,44.72,-227.43,-184.04,1
2905,44.73,-102.78,-179.46,1
2906,44.75,137.68,-154.67,1
2907,44.76,3.26,-281.33,1
2908,44.77,-296.51,-474.14,1
2909,44.79,-225.71,-421.81,1
2910,44.8,131.58,-267.07,1
2911,44.81,181.83,-335.41,1
2912,44.83,-82.28,-342.58,1
2913,44.84,-54.72,-130.27,1
2914,44.85,115.86,-113.55,1
2915,44.87,-138.03,-262.02,1
2916,44.88,-412.6,-227.99,1
2917,44.89,-204.23,-203.97,1
2918,44.9,94.08,-277.84,1
2919,44.92,163.79,-94.8,1
2920,44.93,137.58,120.39,1
2921,44.95,48.89,-47.95,1
2922,44.96,-30.88,-158.3,1
2923,44.97,-31.03,103.3,1
2924,44.99,-64.39,302.41,1
2925,45.0,-61.34,244.08,1
2926,45.01,53.53,80.11,1
2927,45.03,8.79,-115.04,1
2928,45.04,-266.93,-179.37,1
2929,45.05,-369.11,-12.35,1
2930,45.06,-185.32,126.49,1
2931,45.08,-118.26,29.55,1
2932,45.09,-236.2,-135.52,1
2933,45.11,-193.7,-228.93,1
2934,45.12,9.22,-270.54,1
2935,45.13,111.26,-233.41,1
2936,45.15,123.82,-138.19,1
2937,45.16,191.51,-72.49,1
2938,45.17,266.36,-41.0,1
2939,45.19,237.59,0.66,1
2940,45.2,159.45,51.18,1
2941,45.21,136.23,90.38,1
2942,45.22,139.99,121.36,1
2943,45.24,108.67,153.97,1
2944,45.25,73.52,185.83,1
2945,45.26,72.74,212.13,1
2946,45.28,76.65,234.77,1
2947,45.29,64.34,256.05,1
2948,45.31,53.75,274.58,1
2949,45.32,46.33,290.24,1
2950,45.33,30.01,304.03,1
2951,45.35,17.48,316.06,1
2952,45.36,25.43,326.09,1
2953,45.37,31.04,334.41,1
2954,45.38,17.42,349.78,1
2955,45.4,11.77,401.44,1
2956,45.41,21.13,495.08,1
2957,45.43,22.93,570.19,1
2958,45.44,11.64,584.47,1
2959,45.45,-4.53,571.52,1
2960,45.47,-12.83,558.13,1
2961,45.48,-12.72,534.3,1
2962,45.49,-26.16,496.92,1
2963,45.51,-50.22,460.98,1
2964,45.52,-52.64,444.5,1
2965,45.53,-33.4,437.0,1
2966,45.54,-17.16,409.78,1
2967,45.56,-6.45,369.08,1
2968,45.57,0.46,343.29,1
2969,45.59,-4.16,324.39,1
2970,45.6,-12.93,291.03,1
2971,45.61,-13.24,254.04,1
2972,45.63,-12.8,226.27,1
2973,45.64,-20.53,206.16,1
2974,45.65,-27.92,187.63,1
2975,45.67,-23.73,157.63,1
2976,45.68,-13.71,119.83,1
2977,45.69,-16.7,94.66,1
2978,45.71,-31.06,81.68,1
2979,45.72,-37.73,63.19,1
2980,45.73,-37.16,37.12,1
2981,45.75,-36.37,13.54,1
2982,45.76,-27.45,-5.6,1
2983,45.77,-11.69,-20.77,1
2984,45.79,-7.96,-31.51,1
2985,45.8,-20.52,-45.59,1
2986,45.81,-34.12,-69.22,1
2987,45.83,-41.34,-94.85,1
2988,45.84,-41.24,-110.69,1
2989,45.85,-33.55,-117.84,1
2990,45.86,-27.77,-134.18,1
2991,45.88,-29.26,-162.96,1
2992,45.89,-29.42,-176.13,1
2993,45.9,-22.64,-167.51,1
2994,45.92,-16.37,-166.6,1
2995,45.93,-18.57,-183.92,1
2996,45.95,-23.2,-202.86,1
2997,45.96,-19.53,-209.79,1
2998,45.97,-12.39,-209.05,1
2999,45.99,-15.32,-215.62,1
3000,46.0,-23.99,-228.61,1
3001,46.01,-22.15,-234.7,1
3002,46.03,-10.97,-236.14,1
3003,46.04,-4.57,-238.37,1
3004,46.05,-8.69,-234.05,1
3005,46.06,-21.03,-224.57,1
3006,46.08,-31.68,-219.45,1
3007,46.09,-26.89,-222.66,1
3008,46.11,-11.38,-229.84,1
3009,46.12,-5.08,-223.05,1
3010,46.13,-5.56,-203.93,1
3011,46.15,2.39,-202.96,1
3012,46.16,5.07,-219.45,2
3013,46.17,-9.38,-224.93,2
3014,46.19,-15.06,-217.73,2
3015,46.2,-1.47,-207.68,2
3016,46.21,20.07,-189.51,2
3017,46.22,86.21,-164.73,2
3018,46.24,230.91,-153.77,2
3019,46.25,376.99,-167.88,2
3020,46.27,418.1,-188.34,2
3021,46.28,363.74,-191.69,2
3022,46.29,293.25,-179.98,2
3023,46.31,229.3,-173.52,2
3024,46.32,147.65,-176.71,2
3025,46.33,58.78,-173.85,2
3026,46.35,-6.1,-166.88,2
3027,46.36,-52.56,-169.24,2
3028,46.37,-102.01,-167.1,2
3029,46.38,-145.02,-147.09,2
3030,46.4,-164.89,-133.91,2
3031,46.41,-174.49,-141.09,2
3032,46.43,-185.74,-141.61,2
3033,46.44,-188.82,-123.29,2
3034,46.45,-190.07,-109.84,2
3035,46.47,-203.07,-113.07,2
3036,46.48,-214.2,-108.74,2
3037,46.49,-212.74,-87.41,2
3038,46.5,-204.91,-75.36,2
3039,46.52,-193.22,-74.59,2
3040,46.53,-182.28,-65.43,2
3041,46.54,-170.44,-56.56,2
3042,46.56,-145.91,-55.02,1
3043,46.57,-122.42,-45.01,1
3044,46.59,-118.52,-28.73,1
3045,46.6,-114.14,-24.79,1
3046,46.61,-93.15,-30.29,1
3047,46.63,-79.46,-27.76,1
3048,46.64,-80.74,-11.86,1
3049,46.65,-67.4,2.7,1
3050,46.67,-37.38,2.12,1
3051,46.68,-26.63,1.2,1
3052,46.69,-32.34,14.16,1
3053,46.71,-22.29,25.3,1
3054,46.72,-4.17,28.74,1
3055,46.73,2.03,36.18,1
3056,46.75,7.16,42.41,1
3057,46.76,20.81,38.58,1
3058,46.77,33.19,33.39,1
3059,46.79,38.6,36.88,1
3060,46.8,43.15,45.36,1
3061,46.81,48.55,49.71,1
3062,46.83,45.77,52.68,1
3063,46.84,35.77,63.08,1
3064,46.85,38.92,76.07,1
3065,46.87,55.16,80.25,1
3066,46.88,59.2,74.94,1
3067,46.89,52.52,69.82,1
3068,46.9,58.14,74.04,1
3069,46.92,72.33,85.83,1
3070,46.93,77.28,92.28,1
3071,46.95,76.3,82.0,1
3072,46.96,77.86,63.19,1
3073,46.97,74.51,60.48,1
3074,46.99,63.01,78.43,1
3075,47.0,57.43,90.08,1
3076,47.01,69.59,80.61,1
3077,47.03,87.59,69.3,1
3078,47.04,83.73,75.54,1
3079,47.05,59.51,88.52,1
3080,47.06,53.35,89.36,1
3081,47.08,73.45,82.35,1
3082,47.09,85.74,76.7,1
3083,47.11,78.38,69.55,1
3084,47.12,70.14,61.59,1
3085,47.13,65.29,62.55,1
3086,47.14,59.8,72.11,1
3087,47.16,58.07,76.65,1
3088,47.17,57.23,71.98,1
3089,47.18,51.73,65.61,1
3090,47.2,47.36,64.51,1
3091,47.21,51.2,69.59,1
3092,47.22,58.36,72.46,1
3093,47.24,54.55,71.62,1
3094,47.25,39.95,75.2,1
3095,47.27,36.06,76.65,1
3096,47.28,41.3,66.0,1
3097,47.29,34.46,54.05,1
3098,47.31,27.83,51.34,1
3099,47.32,38.36,50.39,1
3100,47.33,43.65,49.85,1
3101,47.35,30.33,52.73,1
3102,47.36,21.74,49.79,1
3103,47.37,28.94,44.39,1
3104,47.38,31.8,49.54,1
3105,47.4,22.08,53.17,1
3106,47.41,16.44,44.33,1
3107,47.43,22.69,36.08,1
3108,47.44,23.52,33.77,1
3109,47.45,9.03,33.39,1
3110,47.47,-2.43,35.89,1
3111,47.48,2.87,36.76,1
3112,47.49,10.72,35.78,1
3113,47.51,8.43,37.7,1
3114,47.52,6.2,36.62,1
3115,47.53,8.25,31.42,1
3116,47.54,3.47,25.61,1
3117,47.56,-6.54,20.35,1
3118,47.57,-7.86,23.53,1
3119,47.59,-3.66,28.08,1
3120,47.6,-8.33,20.46,1
3121,47.61,-14.41,14.98,1
3122,47.63,-8.02,21.72,1
3123,47.64,1.71,22.05,1
3124,47.65,-0.6,11.67,1
3125,47.67,-9.47,9.08,1
3126,47.68,-9.71,10.68,1
3127,47.69,-6.02,0.96,1
3128,47.71,-10.99,-6.75,1
3129,47.72,-17.41,3.17,1
3130,47.73,-15.33,13.97,1
3131,47.75,-14.13,6.27,1
3132,47.76,-23.0,-9.36,1
3133,47.77,-33.87,-16.27,1
3134,47.78,-34.66,-16.3,1
3135,47.8,-25.87,-14.4,1
3136,47.81,-18.24,-9.29,1
3137,47.82,-16.31,-5.86,1
3138,47.84,-19.66,-12.43,1
3139,47.85,-30.09,-17.2,1
3140,47.86,-41.34,-7.79,1
3141,47.88,-38.74,-4.79,1
3142,47.89,-27.71,-19.48,1
3143,47.9,-30.43,-29.61,1
3144,47.92,-40.49,-27.7,1
3145,47.93,-32.27,-24.13,1
3146,47.95,-12.89,-21.74,1
3147,47.96,-9.09,-23.16,1
3148,47.97,-20.73,-24.4,1
3149,47.99,-25.95,-15.25,1
3150,48.0,-21.56,-6.46,1
3151,48.01,-27.07,-13.23,1
3152,48.03,-42.81,-21.75,1
3153,48.04,-42.3,-18.91,1
3154,48.05,-25.58,-15.35,1
3155,48.06,-23.76,-17.52,1
3156,48.08,-39.33,-20.84,1
3157,48.09,-45.95,-21.14,1
3158,48.11,-38.51,-16.34,1
3159,48.12,-32.35,-14.25,1
3160,48.13,-31.58,-22.16,1
3161,48.15,-24.83,-26.09,1
3162,48.16,-13.25,-18.72,0
3163,48.17,-12.12,-19.09,0
3164,48.19,-13.61,-25.78,0
3165,48.2,-5.68,-20.07,0
3166,48.21,-5.23,-13.5,0
3167,48.22,-16.88,-21.59,0
3168,48.24,-22.33,-31.8,0
3169,48.25,-11.7,-25.59,0
3170,48.27,4.15,-8.55,0
3171,48.28,-20.02,-7.52,0
3172,48.29,-112.13,-21.78,0
3173,48.31,-220.47,-26.96,0
3174,48.32,-291.17,-25.17,0
3175,48.33,-331.56,-22.66,0
3176,48.35,-353.02,-15.14,0
3177,48.36,-344.88,-17.33,0
3178,48.37,-307.05,-32.78,0
3179,48.38,-257.97,-41.55,0
3180,48.4,-214.63,-40.17,0
3181,48.41,-173.09,-36.09,0
3182,48.42,-106.02,-33.4,0
3183,48.44,12.66,-34.44,0
3184,48.45,164.35,-33.48,0
3185,48.46,283.16,-31.65,0
3186,48.48,324.9,-35.76,0
3187,48.49,316.54,-32.1,0
3188,48.5,309.07,-11.73,0
3189,48.52,309.38,-0.57,0
3190,48.53,293.4,-10.93,0
3191,48.54,263.97,-13.09,0
3192,48.56,245.93,4.23,1
3193,48.57,236.52,12.76,1
3194,48.59,217.83,-0.09,1
3195,48.6,194.98,-11.57,1
3196,48.61,176.16,-4.15,1
3197,48.63,146.08,6.25,1
3198,48.64,102.34,1.07,1
3199,48.65,77.87,-6.78,1
3200,48.67,86.76,0.85,1
3201,48.68,99.22,13.62,1
3202,48.69,94.64,16.35,1
3203,48.71,86.52,11.96,1
3204,48.72,82.67,5.35,1
3205,48.73,73.4,1.11,1
3206,48.75,58.39,4.58,1
3207,48.76,45.69,6.43,1
3208,48.77,38.5,2.85,1
3209,48.79,33.55,4.81,1
3210,48.8,25.73,6.39,1
3211,48.81,16.46,0.42,1
3212,48.83,5.86,-2.2,1
3213,48.84,-7.66,-1.08,1
3214,48.85,-16.25,-0.55,1
3215,48.87,-17.12,1.69,1
3216,48.88,-21.07,0.66,1
3217,48.89,-27.82,-1.57,1
3218,48.9,-28.62,4.59,1
3219,48.92,-28.7,11.19,1
3220,48.93,-37.0,6.51,1
3221,48.95,-47.47,-3.39,1
3222,48.96,-51.68,-7.37,1
3223,48.97,-51.61,-2.05,1
3224,48.99,-47.91,2.26,1
3225,49.0,-42.55,0.0,1
3226,49.01,-47.32,5.55,1
3227,49.03,-61.09,16.28,1
3228,49.04,-68.15,13.33,1
3229,49.05,-65.64,3.87,1
3230,49.06,-59.16,4.77,1
3231,49.08,-54.45,11.3,1
3232,49.09,-60.35,13.58,1
3233,49.1,-67.46,10.27,1
3234,49.12,-59.86,2.63,1
3235,49.13,-53.95,-2.54,1
3236,49.14,-64.46,0.7,1
3237,49.16,-69.03,4.46,1
3238,49.17,-57.75,4.38,1
3239,49.19,-57.01,7.63,1
3240,49.2,-73.72,9.64,1
3241,49.21,-77.33,4.19,1
3242,49.22,-59.96,0.45,1
3243,49.24,-51.3,-0.94,1
3244,49.25,-58.82,-5.21,1
3245,49.27,-59.47,-3.57,1
3246,49.28,-48.32,5.96,1
3247,49.29,-44.41,9.75,1
3248,49.31,-53.3,2.05,1
3249,49.32,-57.65,-7.95,1
3250,49.33,-48.38,-8.9,1
3251,49.35,-38.32,-0.38,1
3252,49.36,-32.96,6.66,1
3253,49.37,-22.63,5.32,1
3254,49.38,-17.32,0.56,1
3255,49.4,-35.89,0.0,1
3256,49.41,-54.89,3.65,1
3257,49.43,-39.24,5.51,1
3258,49.44,-10.27,3.74,1
3259,49.45,-8.11,3.36,1
3260,49.47,-23.44,10.64,1
3261,49.48,-28.08,18.48,1
3262,49.49,-27.27,14.87,1
3263,49.51,-31.71,10.15,1
3264,49.52,-27.04,11.66,1
3265,49.53,-9.54,6.73,1
3266,49.54,-0.67,2.75,1
3267,49.56,-8.55,11.81,1
3268,49.57,-17.2,16.69,1
3269,49.59,-14.55,11.42,1
3270,49.6,-5.79,13.24,1
3271,49.61,-1.99,20.99,1
3272,49.63,-1.52,20.16,1
3273,49.64,2.74,7.6,1
3274,49.65,1.82,-5.4,1
3275,49.67,-9.31,0.76,1
3276,49.68,-10.42,16.51,1
3277,49.69,3.84,9.31,1
3278,49.7,13.54,-9.32,1
3279,49.72,20.39,-12.13,1
3280,49.73,34.81,-12.62,1
3281,49.74,35.16,-18.99,1
3282,49.76,8.23,-14.19,1
3283,49.77,-15.19,2.11,1
3284,49.78,-7.03,13.21,1
3285,49.8,19.58,6.22,1
3286,49.81,32.1,-7.98,1
3287,49.83,21.79,-3.63,1
3288,49.84,5.18,11.89,1
3289,49.85,-6.25,13.61,1
3290,49.87,-3.67,5.54,1
3291,49.88,19.07,-3.03,1
3292,49.89,39.57,-15.35,1
3293,49.9,34.62,-23.65,1
3294,49.92,22.24,-15.96,1
3295,49.93,26.29,-3.11,1
3296,49.95,35.54,-3.73,1
3297,49.96,29.33,-10.98,1
3298,49.97,14.22,-5.17,1
3299,49.99,9.74,9.74,1
3300,50.0,15.63,10.68,1
3301,50.01,22.18,-2.62,1
3302,50.03,29.97,-2.35,1
3303,50.04,37.15,11.95,1
3304,50.05,36.42,8.69,1
3305,50.06,23.11,-8.1,1
3306,50.08,5.12,-9.05,1
3307,50.09,1.42,-0.16,1
3308,50.11,12.67,0.82,1
3309,50.12,22.02,1.27,1
3310,50.13,31.17,7.27,1
3311,50.15,47.27,11.0,1
3312,50.16,51.7,7.85,0
3313,50.17,33.53,-5.74,0
3314,50.19,18.98,-19.82,0
3315,50.2,24.66,-14.24,0
3316,50.21,33.49,-5.0,0
3317,50.22,32.56,-18.4,0
3318,50.24,28.5,-36.08,0
3319,50.25,23.68,-33.97,0
3320,50.27,-5.69,-25.93,0
3321,50.28,-93.84,-32.49,0
3322,50.29,-230.84,-44.73,0
3323,50.31,-343.43,-43.02,0
3324,50.32,-368.46,-32.67,0
3325,50.33,-323.87,-27.32,0
3326,50.34,-260.01,-22.27,0
3327,50.36,-191.41,-11.47,0
3328,50.37,-117.84,2.18,0
3329,50.38,-42.99,13.68,0
3330,50.4,30.48,16.92,0
3331,50.41,91.88,18.22,0
3332,50.42,132.78,29.54,0
3333,50.44,159.68,37.37,0
3334,50.45,186.18,28.27,0
3335,50.46,212.82,21.69,0
3336,50.48,226.92,25.98,0
3337,50.49,228.59,24.0,0
3338,50.51,227.54,17.73,0
3339,50.52,219.73,18.05,0
3340,50.53,204.8,18.68,0
3341,50.54,199.33,14.98,0
3342,50.56,202.23,12.25,1
3343,50.57,193.39,13.6,1
3344,50.59,175.84,17.45,1
3345,50.6,164.34,21.35,1
3346,50.61,156.54,18.91,1
3347,50.63,148.57,9.02,1
3348,50.64,139.14,5.32,1
3349,50.65,123.26,9.0,1
3350,50.67,101.59,7.7,1
3351,50.68,71.35,6.34,1
3352,50.69,34.31,10.15,1
3353,50.71,19.41,8.84,1
3354,50.72,34.56,-0.42,1
3355,50.73,40.16,-10.84,1
3356,50.75,23.79,-13.69,1
3357,50.76,13.4,-1.99,1
3358,50.77,14.68,14.28,1
3359,50.79,15.82,18.02,1
3360,50.8,13.13,8.35,1
3361,50.81,4.32,-0.83,1
3362,50.83,-8.28,0.91,1
3363,50.84,-19.41,6.85,1
3364,50.85,-27.7,4.88,1
3365,50.87,-30.84,-4.39,1
3366,50.88,-33.87,-10.89,1
3367,50.89,-45.3,-7.98,1
3368,50.9,-51.61,2.0,1
3369,50.92,-41.66,8.23,1
3370,50.93,-38.45,5.85,1
3371,50.95,-53.21,6.66,1
3372,50.96,-59.58,11.24,1
3373,50.97,-53.88,4.76,1
3374,50.98,-64.23,-3.75,1
3375,51.0,-80.56,-0.83,1
3376,51.01,-71.75,-1.08,1
3377,51.02,-58.24,-6.15,1
3378,51.04,-68.94,-2.04,1
3379,51.05,-79.71,-0.35,1
3380,51.06,-70.0,-8.68,1
3381,51.08,-66.12,-13.18,1
3382,51.09,-83.59,-12.67,1
3383,51.1,-94.32,-9.91,1
3384,51.12,-77.88,1.81,1
3385,51.13,-60.4,10.94,1
3386,51.15,-72.47,0.65,1
3387,51.16,-92.77,-10.63,1
3388,51.17,-81.32,-5.02,1
3389,51.19,-53.7,0.26,1
3390,51.2,-54.65,-7.86,1
3391,51.21,-73.61,-23.42,1
3392,51.22,-70.01,-34.51,1
3393,51.24,-55.22,-25.5,1
3394,51.25,-59.24,-5.7,1
3395,51.27,-63.99,-4.72,1
3396,51.28,-49.8,-16.52,1
3397,51.29,-45.14,-11.63,1
3398,51.31,-63.88,2.99,1
3399,51.32,-70.02,-0.84,1
3400,51.33,-52.9,-18.26,1
3401,51.35,-45.34,-18.98,1
3402,51.36,-50.06,0.24,1
3403,51.37,-40.46,6.92,1
3404,51.38,-22.14,-9.0,1
3405,51.4,-26.6,-15.75,1
3406,51.41,-56.02,-4.71,1
3407,51.43,-75.19,-3.31,1
3408,51.44,-65.85,-11.73,1
3409,51.45,-47.06,-6.37,1
3410,51.47,-29.39,5.52,1
3411,51.48,-12.57,1.32,1
3412,51.49,-10.79,-12.06,1
3413,51.51,-22.73,-11.86,1
3414,51.52,-23.04,1.48,1
3415,51.53,-7.24,7.26,1
3416,51.54,2.93,-4.88,1
3417,51.56,-2.4,-19.72,1
3418,51.57,-8.46,-15.3,1
3419,51.59,-5.74,3.52,1
3420,51.6,-5.27,9.53,1
3421,51.61,-8.08,-2.35,1
3422,51.62,0.97,-5.95,1
3423,51.64,11.93,4.91,1
3424,51.65,1.12,6.47,1
3425,51.66,-15.57,1.27,1
3426,51.68,-10.36,4.43,1
3427,51.69,3.04,-2.56,1
3428,51.7,3.29,-20.33,1
3429,51.72,3.98,-14.95,1
3430,51.73,21.0,7.1,1
3431,51.74,34.17,12.37,1
3432,51.76,22.5,8.71,1
3433,51.77,7.97,11.58,1
3434,51.79,13.38,10.81,1
3435,51.8,20.32,8.35,1
3436,51.81,13.95,12.15,1
3437,51.83,11.49,8.28,1
3438,51.84,19.78,-4.21,1
3439,51.85,21.51,-3.9,1
3440,51.87,16.71,8.9,1
3441,51.88,21.26,14.33,1
3442,51.89,28.4,8.44,1
3443,51.9,26.56,4.97,1
3444,51.92,24.82,8.47,1
3445,51.93,30.71,8.45,1
3446,51.95,38.8,3.28,1
3447,51.96,40.7,-0.64,1
3448,51.97,28.57,-2.56,1
3449,51.99,13.19,-0.14,1
3450,52.0,19.83,5.11,1
3451,52.01,37.11,3.98,1
3452,52.03,33.82,-0.88,1
3453,52.04,21.38,1.51,1
3454,52.05,23.95,7.07,1
3455,52.06,27.58,7.7,1
3456,52.08,17.61,7.29,1
3457,52.09,11.46,6.23,1
3458,52.11,21.65,1.6,1
3459,52.12,33.25,-0.27,1
3460,52.13,36.15,1.36,1
3461,52.15,38.5,1.43,1
3462,52.16,41.45,2.88,2
3463,52.17,35.87,2.8,2
3464,52.19,22.55,-7.84,2
3465,52.2,15.26,-20.32,2
3466,52.21,19.82,-15.89,2
3467,52.22,26.95,3.03,2
3468,52.24,29.48,19.17,2
3469,52.25,26.41,31.82,2
3470,52.26,32.82,45.87,2
3471,52.28,85.17,54.15,2
3472,52.29,186.26,53.53,2
3473,52.3,279.8,50.11,2
3474,52.32,325.46,50.59,2
3475,52.33,338.65,49.11,2
3476,52.34,341.02,30.6,2
3477,52.36,326.48,-0.83,2
3478,52.37,284.79,-27.58,2
3479,52.38,232.63,-41.44,2
3480,52.4,192.28,-43.04,2
3481,52.41,149.77,-40.02,2
3482,52.43,58.74,-35.24,2
3483,52.44,-96.38,-22.52,2
3484,52.45,-246.85,-14.24,2
3485,52.47,-313.78,-27.06,2
3486,52.48,-319.11,-43.66,2
3487,52.49,-327.82,-39.34,2
3488,52.51,-337.75,-20.23,2
3489,52.52,-321.71,-7.43,2
3490,52.53,-299.24,-9.0,2
3491,52.54,-282.27,-17.01,2
3492,52.56,-230.4,-20.77,1
3493,52.57,-140.87,-18.58,1
3494,52.59,-96.96,-16.85,1
3495,52.6,-138.42,-17.12,1
3496,52.61,-184.21,-16.81,1
3497,52.63,-166.18,-11.36,1
3498,52.64,-127.72,6.44,1
3499,52.65,-123.98,18.77,1
3500,52.67,-132.97,6.26,1
3501,52.68,-116.05,-5.06,1
3502,52.69,-84.79,0.56,1
3503,52.71,-68.84,0.39,1
3504,52.72,-64.91,-4.53,1
3505,52.73,-53.46,4.74,1
3506,52.75,-38.4,19.75,1
3507,52.76,-32.98,21.7,1
3508,52.77,-34.01,7.18,1
3509,52.79,-31.66,-9.44,1
3510,52.8,-22.5,-10.07,1
3511,52.81,-9.94,-2.9,1
3512,52.83,0.77,-10.18,1
3513,52.84,6.88,-21.58,1
3514,52.85,13.06,-15.91,1
3515,52.87,27.76,-4.95,1
3516,52.88,40.51,-2.5,1
3517,52.89,35.68,2.53,1
3518,52.9,28.43,9.34,1
3519,52.92,37.46,4.49,1
3520,52.93,48.95,-4.76,1
3521,52.94,50.41,-3.05,1
3522,52.96,48.86,7.58,1
3523,52.97,48.34,11.74,1
3524,52.98,53.28,3.78,1
3525,53.0,67.38,-0.12,1
3526,53.01,73.71,7.91,1
3527,53.02,59.82,11.55,1
3528,53.04,45.87,1.97,1
3529,53.05,49.08,-4.45,1
3530,53.06,56.95,7.28,1
3531,53.08,61.72,17.88,1
3532,53.09,68.63,1.03,1
3533,53.11,71.54,-20.67,1
3534,53.12,64.39,-12.62,1
3535,53.13,59.95,6.72,1
3536,53.15,66.94,6.85,1
3537,53.16,72.82,1.34,1
3538,53.17,70.21,9.63,1
3539,53.19,69.27,15.01,1
3540,53.2,68.71,6.59,1
3541,53.21,53.85,2.53,1
3542,53.22,40.42,7.59,1
3543,53.24,53.65,7.86,1
3544,53.25,69.62,1.02,1
3545,53.27,60.08,-4.34,1
3546,53.28,45.67,-4.33,1
3547,53.29,45.52,0.3,1
3548,53.31,49.26,9.51,1
3549,53.32,52.03,12.89,1
3550,53.33,52.65,-0.16,1
3551,53.35,44.69,-10.13,1
3552,53.36,33.02,0.25,1
3553,53.37,27.24,9.76,1
3554,53.38,30.88,4.33,1
3555,53.4,39.2,5.18,1
3556,53.41,37.06,16.03,1
3557,53.43,24.08,13.49,1
3558,53.44,19.71,4.38,1
3559,53.45,23.91,8.04,1
3560,53.47,21.56,8.57,1
3561,53.48,17.15,-1.08,1
3562,53.49,20.72,-1.44,1
3563,53.51,23.77,5.53,1
3564,53.52,16.19,6.09,1
3565,53.53,9.78,2.18,1
3566,53.54,19.23,0.55,1
3567,53.56,31.12,1.21,1
3568,53.57,22.89,2.48,1
3569,53.58,1.7,7.58,1
3570,53.6,-5.73,10.98,1
3571,53.61,2.86,4.79,1
3572,53.62,5.44,2.71,1
3573,53.64,-1.24,8.66,1
3574,53.65,-2.76,3.04,1
3575,53.66,0.04,-9.06,1
3576,53.68,-5.36,-7.1,1
3577,53.69,-20.03,-1.21,1
3578,53.7,-27.02,-7.6,1
3579,53.72,-18.1,-12.37,1
3580,53.73,-10.92,-1.22,1
3581,53.75,-14.75,10.21,1
3582,53.76,-15.44,6.21,1
3583,53.77,-8.86,-3.27,1
3584,53.79,-7.41,-5.64,1
3585,53.8,-14.74,-2.93,1
3586,53.81,-22.13,-2.17,1
3587,53.83,-25.19,-4.58,1
3588,53.84,-26.74,-3.92,1
3589,53.85,-25.91,0.11,1
3590,53.87,-21.6,1.32,1
3591,53.88,-21.0,4.9,1
3592,53.89,-27.51,12.99,1
3593,53.9,-28.15,10.22,1
3594,53.92,-18.57,-0.68,1
3595,53.93,-18.74,0.91,1
3596,53.95,-33.79,3.71,1
3597,53.96,-38.0,-2.87,1
3598,53.97,-26.82,6.54,1
3599,53.99,-23.41,19.68,1
3600,54.0,-27.92,-0.12,1
3601,54.01,-27.57,-26.31,1
3602,54.03,-27.81,-24.08,1
3603,54.04,-31.28,-10.7,1
3604,54.05,-27.84,-5.58,1
3605,54.06,-14.55,-4.86,1
3606,54.08,-10.64,-3.41,1
3607,54.09,-29.27,-3.08,1
3608,54.11,-43.59,-0.73,1
3609,54.12,-30.8,7.42,1
3610,54.13,-16.79,16.56,1
3611,54.15,-22.99,32.05,1
3612,54.16,-29.33,58.73,1
3613,54.17,-24.09,103.14,1
3614,54.18,-19.84,204.01,1
3615,54.2,-6.74,352.93,1
3616,54.21,56.21,431.82,1
3617,54.22,135.26,374.76,1
3618,54.24,51.06,280.55,1
3619,54.25,-209.4,241.33,1
3620,54.26,-321.23,222.98,1
3621,54.28,-215.07,182.06,1
3622,54.29,-191.0,136.94,1
3623,54.3,-236.88,106.1,1
3624,54.32,-210.46,79.39,1
3625,54.33,-243.8,49.39,1
3626,54.34,-290.66,20.71,1
3627,54.36,-137.87,-3.49,1
3628,54.37,96.42,-25.5,1
3629,54.38,195.36,-46.6,1
3630,54.4,242.26,-65.44,1
3631,54.41,267.33,-82.31,1
3632,54.43,125.93,-98.2,1
3633,54.44,3.25,-112.59,1
3634,54.45,94.55,-125.0,1
3635,54.47,154.34,-135.6,1
3636,54.48,71.51,-144.69,1
3637,54.49,30.17,-152.82,1
3638,54.51,50.84,-160.74,1
3639,54.52,90.17,-167.76,1
3640,54.53,226.75,-172.84,1
3641,54.54,385.44,-176.05,1
3642,54.56,365.97,-178.33,1
3643,54.57,210.92,-180.25,1
3644,54.59,75.05,-181.77,1
3645,54.6,-38.49,-182.3,1
3646,54.61,-97.73,-181.81,1
3647,54.63,-69.49,-180.77,1
3648,54.64,-91.87,-179.13,1
3649,54.65,-89.85,-210.45,1
3650,54.67,141.4,-317.47,1
3651,54.68,318.34,-384.84,1
3652,54.69,143.66,-267.38,1
3653,54.71,-147.21,-171.18,1
3654,54.72,-239.64,-339.94,1
3655,54.73,-42.46,-479.88,1
3656,54.75,269.58,-312.34,1
3657,54.76,310.68,-235.55,1
3658,54.77,-82.19,-476.67,1
3659,54.79,-518.04,-543.52,1
3660,54.8,-500.33,-268.08,1
3661,54.81,-111.17,-62.3,1
3662,54.82,167.73,-42.09,1
3663,54.84,104.21,-62.83,1
3664,54.85,-101.04,-163.74,1
3665,54.86,-193.59,-307.11,1
3666,54.88,-152.96,-303.8,1
3667,54.89,-42.97,-208.12,1
3668,54.9,77.11,-185.45,1
3669,54.92,119.37,-155.99,1
3670,54.93,-5.18,13.77,1
3671,54.94,-212.54,183.99,1
3672,54.96,-187.39,127.49,1
3673,54.97,21.05,-20.95,1
3674,54.98,-29.22,-39.45,1
3675,55.0,-285.91,-64.04,1
3676,55.01,-353.83,-208.32,1
3677,55.03,-203.35,-301.94,1
3678,55.04,-51.64,-235.91,1
3679,55.05,-18.07,-122.19,1
3680,55.06,-14.79,-69.52,1
3681,55.08,69.32,-43.96,1
3682,55.09,145.73,5.45,1
3683,55.11,99.44,59.84,1
3684,55.12,-1.1,97.8,1
3685,55.13,-23.08,129.54,1
3686,55.15,47.67,164.21,1
3687,55.16,114.82,196.5,1
3688,55.17,114.69,223.05,1
3689,55.19,92.19,246.75,1
3690,55.2,104.6,269.06,1
3691,55.21,124.84,288.66,1
3692,55.22,113.12,304.91,1
3693,55.24,99.99,319.09,1
3694,55.25,110.19,331.94,1
3695,55.27,107.16,342.91,1
3696,55.28,82.48,351.41,1
3697,55.29,75.05,369.58,1
3698,55.31,87.1,428.83,1
3699,55.32,90.73,530.67,1
3700,55.33,78.97,609.55,1
3701,55.35,58.8,617.59,1
3702,55.36,42.54,592.58,1
3703,55.37,41.81,580.94,1
3704,55.38,49.0,573.0,1
3705,55.4,47.48,546.89,1
3706,55.41,32.2,510.33,1
3707,55.43,14.98,483.41,1
3708,55.44,11.32,462.7,1
3709,55.45,13.75,424.5,1
3710,55.46,10.03,373.22,1
3711,55.48,11.3,342.52,1
3712,55.49,18.73,330.91,1
3713,55.5,14.07,305.0,1
3714,55.52,-2.38,264.75,1
3715,55.53,-18.15,234.34,1
3716,55.54,-26.84,210.41,1
3717,55.56,-23.03,178.09,1
3718,55.57,-13.62,146.66,1
3719,55.58,-14.63,127.68,1
3720,55.6,-19.53,108.61,1
3721,55.61,-14.32,83.49,1
3722,55.62,-15.46,64.75,1
3723,55.64,-30.95,48.92,1
3724,55.65,-33.19,28.79,1
3725,55.66,-17.88,14.3,1
3726,55.68,-18.62,1.67,1
3727,55.69,-43.06,-26.35,1
3728,55.71,-55.9,-59.36,1
3729,55.72,-39.85,-74.73,1
3730,55.73,-25.48,-80.4,1
3731,55.75,-34.03,-97.01,1
3732,55.76,-40.49,-121.59,1
3733,55.77,-30.18,-135.59,1
3734,55.79,-28.13,-138.63,1
3735,55.8,-40.29,-151.41,1
3736,55.81,-43.42,-173.51,1
3737,55.83,-38.45,-184.27,1
3738,55.84,-37.7,-185.4,1
3739,55.85,-37.07,-187.15,1
3740,55.87,-38.08,-187.83,1
3741,55.88,-39.0,-192.3,1
3742,55.89,-31.55,-203.07,1
3743,55.9,-29.17,-212.18,1
3744,55.92,-39.52,-216.35,1
3745,55.93,-43.27,-216.9,1
3746,55.95,-33.29,-217.05,1
3747,55.96,-22.79,-219.02,1
3748,55.97,-19.72,-221.51,1
3749,55.99,-22.74,-222.88,1
3750,56.0,-22.59,-225.67,1
3751,56.01,-15.75,-230.3,1
3752,56.03,-16.23,-225.66,1
3753,56.04,-27.92,-213.05,1
3754,56.05,-33.38,-213.25,1
3755,56.06,-26.86,-223.55,1
3756,56.08,-19.02,-222.05,1
3757,56.09,-14.09,-211.17,1
3758,56.1,-9.43,-207.68,1
3759,56.12,-5.99,-209.78,1
3760,56.13,-6.43,-204.79,1
3761,56.14,-7.71,-193.05,1
3762,56.16,-2.35,-181.57,2
3763,56.17,9.32,-169.52,2
3764,56.18,13.86,-154.37,2
3765,56.2,22.34,-143.84,2
3766,56.21,91.52,-148.78,2
3767,56.22,237.79,-162.15,2
3768,56.24,370.91,-168.1,2
3769,56.25,402.33,-164.94,2
3770,56.26,354.77,-156.63,2
3771,56.28,296.11,-145.2,2
3772,56.29,240.58,-137.73,2
3773,56.3,166.3,-135.82,2
3774,56.32,73.57,-127.6,2
3775,56.33,-10.59,-114.01,2
3776,56.35,-64.48,-114.93,2
3777,56.36,-93.0,-125.59,2
3778,56.37,-120.52,-120.6,2
3779,56.38,-160.33,-106.32,2
3780,56.4,-196.2,-98.3,2
3781,56.41,-213.1,-85.14,2
3782,56.43,-219.73,-69.14,2
3783,56.44,-220.93,-63.63,2
3784,56.45,-215.14,-56.08,2
3785,56.47,-212.0,-41.16,2
3786,56.48,-209.56,-36.29,2
3787,56.49,-194.51,-44.97,2
3788,56.51,-174.12,-51.91,2
3789,56.52,-164.48,-44.18,2
3790,56.53,-163.73,-21.71,2
3791,56.54,-159.96,-2.72,2
3792,56.56,-147.53,-4.11,1
3793,56.57,-126.69,-13.51,1
3794,56.59,-104.03,-12.88,1
3795,56.6,-90.78,-2.95,1
3796,56.61,-86.21,12.33,1
3797,56.63,-74.89,24.57,1
3798,56.64,-54.75,29.21,1
3799,56.65,-45.0,38.46,1
3800,56.67,-45.11,47.53,1
3801,56.68,-32.41,40.8,1
3802,56.69,-11.26,30.34,1
3803,56.71,-2.71,29.91,1
3804,56.72,-0.95,33.99,1
3805,56.73,7.26,39.58,1
3806,56.74,20.23,46.28,1
3807,56.76,31.37,48.42,1
3808,56.77,39.54,48.14,1
3809,56.78,49.46,56.03,1
3810,56.8,60.18,70.26,1
3811,56.81,55.68,78.42,1
3812,56.82,35.26,76.89,1
3813,56.84,28.77,73.34,1
3814,56.85,47.4,71.28,1
3815,56.86,60.63,65.57,1
3816,56.88,56.06,63.08,1
3817,56.89,57.47,72.87,1
3818,56.9,67.3,79.75,1
3819,56.92,67.35,71.42,1
3820,56.93,65.45,62.39,1
3821,56.94,79.81,68.47,1
3822,56.96,95.41,84.16,1
3823,56.97,87.65,90.19,1
3824,56.99,73.59,82.08,1
3825,57.0,79.24,76.67,1
3826,57.01,89.39,82.34,1
3827,57.03,88.23,85.36,1
3828,57.04,87.73,77.37,1
3829,57.05,87.26,72.04,1
3830,57.06,73.55,76.17,1
3831,57.08,53.22,76.28,1
3832,57.09,45.65,71.26,1
3833,57.11,56.51,72.98,1
3834,57.12,69.15,77.89,1
3835,57.13,70.58,77.89,1
3836,57.15,70.08,74.32,1
3837,57.16,72.72,70.24,1
3838,57.17,66.84,69.66,1
3839,57.19,57.41,70.12,1
3840,57.2,59.6,64.61,1
3841,57.21,61.77,58.02,1
3842,57.22,52.71,56.45,1
3843,57.24,47.43,56.61,1
3844,57.25,48.88,54.98,1
3845,57.27,42.51,52.49,1
3846,57.28,33.39,56.77,1
3847,57.29,37.31,63.56,1
3848,57.31,47.51,51.34,1
3849,57.32,45.0,27.04,1
3850,57.33,28.42,23.21,1
3851,57.35,15.96,36.41,1
3852,57.36,19.8,42.65,1
3853,57.37,26.98,41.96,1
3854,57.38,21.77,37.2,1
3855,57.4,14.02,22.84,1
3856,57.41,16.55,9.26,1
3857,57.42,20.6,11.83,1
3858,57.44,14.43,24.95,1
3859,57.45,7.57,34.88,1
3860,57.46,12.66,37.0,1
3861,57.48,14.08,31.38,1
3862,57.49,0.92,21.66,1
3863,57.5,-3.52,12.68,1
3864,57.52,9.37,3.52,1
3865,57.53,14.79,-4.24,1
3866,57.54,1.45,-2.15,1
3867,57.56,-11.14,8.52,1
3868,57.57,-8.5,12.87,1
3869,57.58,-1.79,6.23,1
3870,57.6,-0.89,2.8,1
3871,57.61,-2.4,4.36,1
3872,57.63,-6.11,-5.19,1
3873,57.64,-10.57,-16.44,1
3874,57.65,-8.56,-5.72,1
3875,57.67,-4.53,10.53,1
3876,57.68,-13.37,5.62,1
3877,57.69,-28.95,-4.5,1
3878,57.71,-29.56,1.48,1
3879,57.72,-23.98,7.64,1
3880,57.73,-32.34,-1.68,1
3881,57.75,-42.26,-7.38,1
3882,57.76,-38.02,1.08,1
3883,57.77,-28.72,3.07,1
3884,57.79,-25.09,-7.82,1
3885,57.8,-23.4,-14.09,1
3886,57.81,-21.13,-11.31,1
3887,57.83,-24.02,-9.82,1
3888,57.84,-28.07,-12.86,1
3889,57.85,-26.25,-15.17,1
3890,57.87,-27.84,-15.35,1
3891,57.88,-38.37,-19.1,1
3892,57.89,-43.45,-24.49,1
3893,57.9,-35.14,-23.46,1
3894,57.92,-23.89,-20.8,1
3895,57.93,-20.3,-21.71,1
3896,57.95,-24.59,-20.01,1
3897,57.96,-28.12,-14.5,1
3898,57.97,-26.89,-15.4,1
3899,57.99,-30.59,-25.06,1
3900,58.0,-37.15,-31.18,1
3901,58.01,-31.61,-27.41,1
3902,58.02,-19.3,-19.57,1
3903,58.04,-18.68,-16.43,1
3904,58.05,-27.49,-21.49,1
3905,58.06,-31.23,-26.65,1
3906,58.08,-32.99,-26.94,1
3907,58.09,-39.94,-25.78,1
3908,58.1,-41.59,-23.39,1
3909,58.12,-29.83,-21.34,1
3910,58.13,-20.25,-17.64,1
3911,58.14,-27.77,-7.84,1
3912,58.16,-33.08,-5.5,0
3913,58.17,-17.76,-18.75,0
3914,58.18,-4.57,-31.33,0
3915,58.2,-14.09,-33.53,0
3916,58.21,-29.38,-28.75,0
3917,58.22,-26.94,-23.55,0
3918,58.24,-12.55,-21.15,0
3919,58.25,-13.14,-14.52,0
3920,58.26,-23.01,-10.03,0
3921,58.28,-9.44,-19.66,0
3922,58.29,15.79,-26.18,0
3923,58.31,14.22,-18.25,0
3924,58.32,-8.83,-17.29,0
3925,58.33,-23.68,-23.71,0
3926,58.35,-19.44,-9.49,0
3927,58.36,-9.87,18.75,0
3928,58.37,-41.81,29.72,0
3929,58.38,-139.46,24.13,0
3930,58.4,-245.78,14.61,0
3931,58.41,-298.78,-2.23,0
3932,58.43,-305.94,-22.0,0
3933,58.44,-300.67,-39.34,0
3934,58.45,-292.0,-61.23,0
3935,58.47,-272.46,-81.22,0
3936,58.48,-240.67,-79.79,0
3937,58.49,-202.45,-56.2,0
3938,58.51,-155.33,-33.6,0
3939,58.52,-83.53,-28.25,0
3940,58.53,19.4,-28.31,0
3941,58.54,135.82,-19.6,0
3942,58.56,238.62,-12.48,1
3943,58.57,301.34,-12.7,1
3944,58.59,315.17,-3.21,1
3945,58.6,309.55,13.52,1
3946,58.61,311.71,14.38,1
3947,58.63,302.76,2.79,1
3948,58.64,270.67,-1.72,1
3949,58.65,249.04,6.45,1
3950,58.66,246.37,18.73,1
3951,58.68,227.2,20.09,1
3952,58.69,190.43,9.17,1
3953,58.7,167.35,1.91,1
3954,58.72,161.14,5.76,1
3955,58.73,157.59,13.52,1
3956,58.74,150.03,15.26,1
3957,58.76,135.95,7.35,1
3958,58.77,118.0,1.19,1
3959,58.78,99.17,7.51,1
3960,58.8,79.71,9.88,1
3961,58.81,65.8,1.26,1
3962,58.82,62.75,5.74,1
3963,58.84,62.34,21.75,1
3964,58.85,53.61,19.88,1
3965,58.86,37.15,3.51,1
3966,58.88,19.71,-0.32,1
3967,58.89,7.6,11.53,1
3968,58.9,3.83,18.04,1
3969,58.92,0.6,11.15,1
3970,58.93,-10.16,6.03,1
3971,58.95,-20.25,7.79,1
3972,58.96,-18.37,5.23,1
3973,58.97,-11.77,-0.26,1
3974,58.99,-15.25,0.38,1
3975,59.0,-28.73,0.38,1
3976,59.01,-40.38,-3.29,1
3977,59.03,-47.68,3.87,1
3978,59.04,-57.32,19.79,1
3979,59.05,-61.83,26.53,1
3980,59.06,-49.12,19.05,1
3981,59.08,-34.37,4.18,1
3982,59.09,-43.41,-4.38,1
3983,59.11,-68.79,1.53,1
3984,59.12,-76.93,11.53,1
3985,59.13,-62.93,14.21,1
3986,59.15,-55.1,9.74,1
3987,59.16,-58.57,1.04,1
3988,59.17,-60.1,-3.92,1
3989,59.19,-65.66,5.29,1
3990,59.2,-74.9,18.26,1
3991,59.21,-70.34,17.37,1
3992,59.22,-52.57,9.09,1
3993,59.24,-44.44,1.6,1
3994,59.25,-55.66,-5.29,1
3995,59.27,-71.85,-3.18,1
3996,59.28,-76.64,3.74,1
3997,59.29,-70.83,1.4,1
3998,59.3,-68.91,-2.54,1
3999,59.32,-71.1,5.16,1
4000,59.33,-63.86,15.77,1
4001,59.34,-53.87,13.42,1
4002,59.36,-56.5,4.31,1
4003,59.37,-63.07,3.58,1
4004,59.38,-61.74,6.19,1
4005,59.4,-54.86,1.33,1
4006,59.41,-42.91,-5.33,1
4007,59.42,-33.09,-2.38,1
4008,59.44,-39.13,6.74,1
4009,59.45,-50.82,5.84,1
4010,59.46,-45.92,-3.49,1
4011,59.48,-29.96,-1.83,1
4012,59.49,-29.01,8.19,1
4013,59.5,-45.09,9.28,1
4014,59.52,-50.33,-0.51,1
4015,59.53,-33.64,-7.88,1
4016,59.54,-20.19,1.95,1
4017,59.56,-24.69,14.57,1
4018,59.57,-27.86,0.63,1
4019,59.59,-19.08,-22.2,1
4020,59.6,-14.24,-16.49,1
4021,59.61,-20.04,5.39,1
4022,59.63,-22.49,10.27,1
4023,59.64,-13.75,-2.35,1
4024,59.65,-8.12,-12.32,1
4025,59.67,-13.68,-12.39,1
4026,59.68,-11.6,-8.73,1
4027,59.69,3.88,-3.14,1
4028,59.71,10.14,4.23,1
4029,59.72,3.6,4.16,1
4030,59.73,3.05,-1.72,1
4031,59.75,8.46,7.31,1
4032,59.76,5.64,27.18,1
4033,59.77,-1.49,25.59,1
4034,59.79,0.62,2.56,1
4035,59.8,9.01,-11.29,1
4036,59.81,10.78,-10.18,1
4037,59.83,5.21,-8.54,1
4038,59.84,3.09,-11.75,1
4039,59.85,4.38,-17.53,1
4040,59.87,0.13,-16.38,1
4041,59.88,-0.43,-8.24,1
4042,59.89,16.71,-10.9,1
4043,59.9,33.74,-17.27,1
4044,59.92,29.19,-3.5,1
4045,59.93,21.08,16.66,1
4046,59.94,29.61,14.42,1
4047,59.96,36.78,-2.84,1
4048,59.97,27.02,-9.37,1
4049,59.98,16.2,-3.41,1
4050,60.0,15.81,-0.56,1
4051,60.01,18.0,-0.55,1
4052,60.02,16.22,8.09,1
4053,60.04,17.53,16.61,1
4054,60.05,26.17,9.39,1
4055,60.06,26.93,-5.99,1
4056,60.08,12.82,-15.95,1
4057,60.09,7.67,-16.14,1
4058,60.1,25.61,-4.33,1
4059,60.12,38.39,11.06,1
4060,60.13,27.44,17.09,1
4061,60.14,18.55,17.43,1
4062,60.16,25.27,16.08,0
4063,60.17,26.0,6.93,0
4064,60.18,18.47,-3.99,0
4065,60.2,24.83,-5.34,0
4066,60.21,37.16,0.54,0
4067,60.22,22.46,17.24,0
4068,60.24,-30.11,60.09,0
4069,60.25,-119.79,124.89,0
4070,60.27,-235.02,172.62,0
4071,60.28,-318.52,151.23,0
4072,60.29,-322.19,64.14,0
4073,60.31,-281.27,-20.64,0
4074,60.32,-244.56,-72.59,0
4075,60.33,-196.95,-113.08,0
4076,60.35,-118.13,-139.87,0
4077,60.36,-38.19,-144.73,0
4078,60.37,21.37,-142.37,0
4079,60.38,86.15,-138.27,0
4080,60.4,155.89,-122.31,0
4081,60.41,194.08,-92.53,0
4082,60.43,204.77,-64.97,0
4083,60.44,218.53,-54.92,0
4084,60.45,239.72,-52.62,0
4085,60.47,249.38,-41.63,0
4086,60.48,235.3,-27.32,0
4087,60.49,213.85,-18.78,0
4088,60.51,206.97,-6.46,0
4089,60.52,209.43,14.11,0
4090,60.53,205.41,27.78,0
4091,60.54,197.64,25.64,0
4092,60.56,191.03,13.55,1
4093,60.57,173.66,8.12,1
4094,60.58,144.38,25.72,1
4095,60.6,126.67,51.13,1
4096,60.61,129.78,53.62,1
4097,60.62,133.7,42.11,1
4098,60.64,128.36,45.78,1
4099,60.65,120.63,59.78,1
4100,60.66,104.5,63.59,1
4101,60.68,76.32,54.62,1
4102,60.69,56.03,41.9,1
4103,60.7,52.7,33.51,1
4104,60.72,47.85,30.09,1
4105,60.73,31.67,29.55,1
4106,60.74,20.94,32.62,1
4107,60.76,24.2,33.19,1
4108,60.77,20.44,23.91,1
4109,60.78,1.82,15.3,1
4110,60.8,-12.38,19.84,1
4111,60.81,-19.0,24.42,1
4112,60.82,-25.82,16.33,1
4113,60.84,-27.46,11.19,1
4114,60.85,-26.4,15.77,1
4115,60.86,-36.74,15.68,1
4116,60.88,-54.49,11.67,1
4117,60.89,-61.27,10.88,1
4118,60.9,-54.89,7.65,1
4119,60.92,-51.88,2.58,1
4120,60.93,-63.65,5.45,1
4121,60.95,-82.1,12.72,1
4122,60.96,-93.88,14.14,1
4123,60.97,-100.99,14.02,1
4124,60.99,-110.98,15.01,1
4125,61.0,-118.59,10.89,1
4126,61.01,-114.68,4.88,1
4127,61.03,-104.44,6.75,1
4128,61.04,-96.44,13.0,1
4129,61.05,-85.56,8.26,1
4130,61.06,-67.66,-1.76,1
4131,61.08,-51.87,3.11,1
4132,61.09,-51.47,10.55,1
4133,61.11,-64.19,-0.41,1
4134,61.12,-64.6,-14.62,1
4135,61.13,-49.7,-14.6,1
4136,61.15,-53.92,-7.65,1
4137,61.16,-77.82,-4.04,1
4138,61.17,-82.15,-4.79,1
4139,61.19,-69.51,-6.07,1
4140,61.2,-74.1,-7.42,1
4141,61.21,-83.41,-11.95,1
4142,61.22,-65.28,-15.03,1
4143,61.24,-43.35,-11.89,1
4144,61.25,-52.95,-13.76,1
4145,61.26,-70.03,-23.04,1
4146,61.28,-63.53,-19.68,1
4147,61.29,-50.01,-7.18,1
4148,61.3,-49.78,-9.51,1
4149,61.32,-56.34,-16.3,1
4150,61.33,-54.49,-8.95,1
4151,61.34,-44.91,-3.79,1
4152,61.36,-45.03,-8.62,1
4153,61.37,-51.18,-12.23,1
4154,61.38,-46.72,-18.44,1
4155,61.4,-40.07,-24.73,1
4156,61.41,-37.15,-21.51,1
4157,61.42,-28.96,-19.48,1
4158,61.44,-25.39,-23.48,1
4159,61.45,-34.02,-20.53,1
4160,61.46,-38.09,-6.7,1
4161,61.48,-29.37,6.54,1
4162,61.49,-15.25,-2.69,1
4163,61.5,-8.92,-28.95,1
4164,61.52,-11.75,-29.31,1
4165,61.53,-1.93,-6.12,1
4166,61.54,14.09,-3.03,1
4167,61.56,6.55,-13.52,1
4168,61.57,-9.6,-9.91,1
4169,61.59,-7.72,-1.41,1
4170,61.6,-5.03,-1.53,1
4171,61.61,-16.57,-2.27,1
4172,61.63,-17.83,2.59,1
4173,61.64,0.43,4.58,1
4174,61.65,11.3,-1.54,1
4175,61.67,8.97,-6.82,1
4176,61.68,7.13,-1.39,1
4177,61.69,3.48,7.48,1
4178,61.71,2.86,5.7,1
4179,61.72,14.19,-4.03,1
4180,61.73,21.08,-11.84,1
4181,61.75,17.14,-13.21,1
4182,61.76,22.04,-3.13,1
4183,61.77,35.09,10.23,1
4184,61.79,39.93,8.63,1
4185,61.8,33.95,-3.84,1
4186,61.81,22.1,-7.32,1
4187,61.83,17.86,0.42,1
4188,61.84,28.81,7.87,1
4189,61.85,35.03,11.18,1
4190,61.86,22.31,10.31,1
4191,61.88,8.69,-0.77,1
4192,61.89,13.26,-19.15,1
4193,61.9,27.32,-25.52,1
4194,61.92,28.96,-12.33,1
4195,61.93,19.25,5.05,1
4196,61.94,18.62,14.02,1
4197,61.96,24.04,15.38,1
4198,61.97,15.62,6.84,1
4199,61.98,6.06,-6.76,1
4200,62.0,15.78,-7.21,1
4201,62.01,27.37,0.89,1
4202,62.02,28.05,0.43,1
4203,62.04,32.94,-2.26,1
4204,62.05,41.38,0.25,1
4205,62.06,40.14,0.38,1
4206,62.08,27.96,-2.31,1
4207,62.09,11.76,-2.45,1
4208,62.1,7.95,-5.61,1
4209,62.12,19.74,-11.75,1
4210,62.13,24.38,-2.07,1
4211,62.14,24.62,21.92,1
4212,62.16,42.96,31.76,2
4213,62.17,57.26,26.37,2
4214,62.19,41.62,36.0,2
4215,62.2,21.54,64.56,2
4216,62.21,24.03,74.85,2
4217,62.22,73.48,57.22,2
4218,62.24,194.52,50.75,2
4219,62.25,328.89,55.61,2
4220,62.27,387.66,29.66,2
4221,62.28,378.89,-16.45,2
4222,62.29,352.23,-38.9,2
4223,62.31,313.27,-40.63,2
4224,62.32,262.92,-46.45,2
4225,62.33,219.56,-52.26,2
4226,62.35,186.0,-45.02,2
4227,62.36,151.39,-26.51,2
4228,62.37,99.3,-10.34,2
4229,62.38,-9.25,-10.53,2
4230,62.4,-172.33,-21.5,2
4231,62.41,-300.32,-28.35,2
4232,62.43,-340.71,-27.4,2
4233,62.44,-345.7,-22.19,2
4234,62.45,-352.4,-18.66,2
4235,62.47,-342.56,-17.62,2
4236,62.48,-314.4,-11.07,2
4237,62.49,-288.55,-6.39,2
4238,62.5,-269.84,-13.16,2
4239,62.52,-250.66,-17.36,2
4240,62.53,-231.57,-15.39,2
4241,62.54,-211.13,-19.99,2
4242,62.56,-180.29,-24.92,1
4243,62.57,-149.28,-15.36,1
4244,62.58,-137.64,1.3,1
4245,62.6,-135.74,7.26,1
4246,62.61,-121.19,1.21,1
4247,62.62,-95.75,-7.0,1
4248,62.64,-79.93,-11.32,1
4249,62.65,-75.23,-8.98,1
4250,62.66,-61.89,-1.11,1
4251,62.68,-42.94,5.74,1
4252,62.69,-36.13,3.93,1
4253,62.7,-29.64,-2.64,1
4254,62.72,-8.03,2.52,1
4255,62.73,9.56,16.87,1
4256,62.74,2.44,19.19,1
4257,62.76,-10.65,13.74,1
4258,62.77,2.93,15.69,1
4259,62.78,32.52,11.86,1
4260,62.8,41.84,-1.96,1
4261,62.81,37.57,-4.42,1
4262,62.825,45.13,6.7,1
4263,62.84,50.31,14.28,1
4264,62.85,41.09,10.58,1
4265,62.87,38.73,5.75,1
4266,62.88,44.38,14.06,1
4267,62.89,38.81,25.65,1
4268,62.9,31.97,20.87,1
4269,62.92,41.41,5.71,1
4270,62.93,56.48,-3.16,1
4271,62.95,65.03,-4.69,1
4272,62.96,74.32,1.37,1
4273,62.97,88.42,13.18,1
4274,62.99,91.46,15.76,1
4275,63.0,71.22,5.23,1
4276,63.01,49.36,-3.49,1
4277,63.03,53.01,2.26,1
4278,63.04,65.39,10.58,1
4279,63.05,60.07,4.0,1
4280,63.06,55.36,-5.55,1
4281,63.08,69.67,-2.32,1
4282,63.09,73.42,5.41,1
4283,63.11,53.02,9.92,1
4284,63.12,48.18,15.34,1
4285,63.13,75.85,17.53,1
4286,63.14,93.03,13.16,1
4287,63.16,72.62,13.37,1
4288,63.17,51.03,12.76,1
4289,63.18,56.94,1.62,1
4290,63.2,63.63,-1.21,1
4291,63.21,54.38,12.55,1
4292,63.22,48.73,23.27,1
4293,63.24,48.2,18.12,1
4294,63.25,41.25,4.5,1
4295,63.26,36.66,-4.08,1
4296,63.28,41.69,-5.05,1
4297,63.29,44.92,-4.54,1
4298,63.3,38.26,-4.26,1
4299,63.32,31.51,-2.23,1
4300,63.33,31.04,1.5,1
4301,63.34,24.6,4.23,1
4302,63.36,17.06,5.27,1
4303,63.37,29.75,5.15,1
4304,63.38,45.88,4.93,1
4305,63.4,33.93,8.9,1
4306,63.41,11.98,10.73,1
4307,63.42,16.61,3.23,1
4308,63.44,35.89,0.24,1
4309,63.45,33.11,5.65,1
4310,63.46,13.23,3.33,1
4311,63.48,8.56,-3.18,1
4312,63.49,14.99,-0.49,1
4313,63.51,1.73,5.72,1
4314,63.52,-19.2,6.23,1
4315,63.53,-7.94,2.46,1
4316,63.54,19.07,1.92,1
4317,63.56,12.04,8.9,1
4318,63.57,-17.43,13.31,1
4319,63.59,-19.87,2.06,1
4320,63.6,-0.38,-13.79,1
4321,63.61,0.82,-17.19,1
4322,63.63,-12.33,-14.36,1
4323,63.64,-12.46,-12.22,1
4324,63.65,-7.07,-9.62,1
4325,63.67,-12.01,-8.65,1
4326,63.68,-14.41,-2.91,1
4327,63.69,-5.59,6.72,1
4328,63.71,-3.68,2.29,1
4329,63.72,-20.2,-12.07,1
4330,63.73,-36.11,-15.97,1
4331,63.75,-29.66,-12.34,1
4332,63.76,-11.7,-8.55,1
4333,63.77,-4.9,0.69,1
4334,63.78,-7.92,9.22,1
4335,63.8,-11.71,7.78,1
4336,63.81,-19.74,1.62,1
4337,63.82,-31.49,-5.98,1
4338,63.84,-33.25,-6.46,1
4339,63.85,-21.26,5.9,1
4340,63.86,-14.21,8.12,1
4341,63.88,-22.89,-3.96,1
4342,63.89,-29.89,-4.04,1
4343,63.9,-25.25,2.32,1
4344,63.92,-29.01,-4.51,1
4345,63.93,-45.3,-13.28,1
4346,63.94,-48.14,-10.79,1
4347,63.96,-35.52,-1.92,1
4348,63.97,-27.85,5.47,1
4349,63.98,-21.34,2.99,1
4350,64.0,-8.12,-6.26,1
4351,64.01,-5.81,-6.19,1
4352,64.02,-24.32,0.05,1
4353,64.04,-42.81,-6.74,1
4354,64.05,-42.91,-20.91,1
4355,64.06,-36.34,-17.45,1
4356,64.08,-40.16,1.71,1
4357,64.09,-43.07,10.75,1
4358,64.1,-28.44,5.4,1
4359,64.12,-12.71,6.15,1
4360,64.13,-15.0,30.08,1
4361,64.14,-19.33,78.1,1
4362,64.16,-12.98,137.85,1
4363,64.17,-13.56,210.53,1
4364,64.18,-22.4,305.49,1
4365,64.2,-16.41,353.84,1
4366,64.21,6.62,270.73,1
4367,64.22,33.02,178.75,1
4368,64.24,82.93,229.21,1
4369,64.25,180.13,289.26,1
4370,64.26,213.7,222.49,1
4371,64.28,68.39,137.7,1
4372,64.29,-86.36,119.39,1
4373,64.3,-89.53,108.31,1
4374,64.32,-98.41,69.47,1
4375,64.33,-165.6,33.26,1
4376,64.34,-103.66,12.92,1
4377,64.36,34.63,-7.0,1
4378,64.37,27.8,-31.46,1
4379,64.38,-67.4,-52.46,1
4380,64.4,-91.22,-69.26,1
4381,64.41,-76.83,-85.54,1
4382,64.42,-93.44,-101.08,1
4383,64.44,-141.76,-114.4,1
4384,64.45,-164.81,-126.19,1
4385,64.46,-66.11,-136.48,1
4386,64.48,99.73,-144.93,1
4387,64.49,118.25,-152.25,1
4388,64.5,-48.28,-159.46,1
4389,64.52,-154.53,-165.95,1
4390,64.53,-67.25,-170.32,1
4391,64.54,27.22,-172.88,1
4392,64.56,9.24,-175.0,1
4393,64.57,-24.6,-176.76,1
4394,64.58,-112.9,-177.64,1
4395,64.6,-279.44,-178.1,1
4396,64.61,-220.15,-178.64,1
4397,64.62,102.87,-194.67,1
4398,64.64,227.71,-320.83,1
4399,64.65,63.11,-584.68,1
4400,64.66,5.7,-688.27,1
4401,64.68,116.22,-444.76,1
4402,64.69,143.27,-155.76,1
4403,64.7,94.59,-111.44,1
4404,64.72,55.71,-309.09,1
4405,64.73,6.82,-486.49,1
4406,64.74,25.8,-443.09,1
4407,64.76,90.72,-400.8,1
4408,64.77,32.42,-399.09,1
4409,64.79,-100.15,-158.83,1
4410,64.8,-86.66,119.3,1
4411,64.81,56.63,45.38,1
4412,64.82,54.11,-176.69,1
4413,64.84,-120.96,-238.39,1
4414,64.85,-153.15,-206.66,1
4415,64.86,28.92,-70.32,1
4416,64.88,168.72,136.74,1
4417,64.89,140.44,145.74,1
4418,64.9,31.24,68.62,1
4419,64.92,-37.52,139.53,1
4420,64.93,-69.3,145.55,1
4421,64.94,-167.35,101.0,1
4422,64.96,-224.95,281.9,1
4423,64.97,-87.52,412.35,1
4424,64.98,-12.53,149.29,1
4425,65.0,-154.81,-152.92,1
4426,65.01,-118.87,-94.0,1
4427,65.02,167.12,8.01,1
4428,65.04,262.71,-207.08,1
4429,65.05,154.26,-423.43,1
4430,65.06,139.66,-333.13,1
4431,65.08,200.76,-160.95,1
4432,65.09,227.47,-123.36,1
4433,65.1,243.43,-122.46,1
4434,65.12,235.32,-62.82,1
4435,65.13,163.86,4.14,1
4436,65.14,86.53,37.84,1
4437,65.16,62.15,65.2,1
4438,65.17,48.68,103.5,1
4439,65.18,35.88,139.52,1
4440,65.2,68.07,166.75,1
4441,65.21,99.67,191.18,1
4442,65.22,69.46,214.83,1
4443,65.24,23.98,235.66,1
4444,65.25,24.22,254.04,1
4445,65.26,39.99,270.16,1
4446,65.28,20.06,298.38,1
4447,65.29,-3.73,375.61,1
4448,65.3,6.27,496.48,1
4449,65.32,2.41,584.68,1
4450,65.33,-27.02,601.03,1
4451,65.34,-14.97,580.33,1
4452,65.36,17.51,550.81,1
4453,65.37,1.13,520.66,1
4454,65.38,-25.85,496.06,1
4455,65.4,-14.66,472.89,1
4456,65.41,2.01,450.64,1
4457,65.42,-9.75,431.45,1
4458,65.44,-38.61,410.28,1
4459,65.45,-63.84,390.99,1
4460,65.46,-77.71,371.3,1
4461,65.48,-77.96,329.08,1
4462,65.49,-71.37,270.82,1
4463,65.5,-45.61,235.47,1
4464,65.52,8.06,228.03,1
4465,65.53,28.78,219.63,1
4466,65.54,-18.62,195.45,1
4467,65.56,-72.69,158.82,1
4468,65.57,-72.31,125.41,1
4469,65.58,-27.49,109.49,1
4470,65.6,-7.95,101.18,1
4471,65.61,-38.87,87.57,1
4472,65.62,-57.77,72.62,1
4473,65.64,-37.04,56.46,1
4474,65.65,-25.8,32.62,1
4475,65.66,-49.96,8.41,1
4476,65.68,-68.8,-4.19,1
4477,65.69,-42.67,-12.71,1
4478,65.7,-3.88,-35.44,1
4479,65.72,-11.55,-63.84,1
4480,65.73,-47.19,-68.45,1
4481,65.74,-48.85,-59.98,1
4482,65.76,-27.19,-74.92,1
4483,65.77,-34.48,-104.46,1
4484,65.78,-60.27,-118.52,1
4485,65.8,-56.83,-121.14,1
4486,65.81,-27.5,-129.85,1
4487,65.82,-12.25,-140.69,1
4488,65.84,-20.45,-142.01,1
4489,65.85,-33.71,-144.16,1
4490,65.86,-43.03,-161.34,1
4491,65.88,-52.01,-180.2,1
4492,65.89,-57.39,-183.82,1
4493,65.9,-44.98,-181.15,1
4494,65.92,-21.25,-189.47,1
4495,65.93,-14.72,-203.21,1
4496,65.94,-27.18,-201.13,1
4497,65.96,-32.1,-186.73,1
4498,65.97,-22.24,-183.09,1
4499,65.98,-14.22,-191.77,1
4500,66.0,-11.79,-195.03,1
4501,66.01,-4.63,-189.84,1
4502,66.02,-0.92,-194.94,1
4503,66.04,-10.72,-214.56,1
4504,66.05,-13.3,-221.31,1
4505,66.06,3.37,-204.25,1
4506,66.08,11.88,-191.52,1
4507,66.09,-3.34,-202.23,1
4508,66.11,-16.61,-218.34,1
4509,66.12,-9.1,-217.2,1
4510,66.13,0.63,-202.27,1
4511,66.14,-4.94,-186.82,1
4512,66.16,-12.55,-172.48,2
4513,66.17,-8.1,-156.92,2
4514,66.18,-2.7,-138.97,2
4515,66.2,-6.33,-121.87,2
4516,66.21,4.96,-114.77,2
4517,66.22,82.87,-119.19,2
4518,66.24,238.06,-127.41,2
4519,66.25,384.02,-132.12,2
4520,66.26,426.89,-129.99,2
4521,66.28,381.16,-125.15,2
4522,66.29,320.4,-124.12,2
4523,66.3,268.03,-127.84,2
4524,66.32,192.45,-134.19,2
4525,66.33,83.67,-135.93,2
4526,66.34,-13.58,-122.28,2
4527,66.36,-60.45,-100.34,2
4528,66.37,-78.3,-90.44,2
4529,66.38,-112.6,-91.79,2
4530,66.4,-167.11,-91.2,2
4531,66.41,-205.88,-86.78,2
4532,66.42,-210.98,-80.78,2
4533,66.44,-206.5,-73.02,2
4534,66.45,-214.6,-62.51,2
4535,66.46,-222.67,-51.43,2
4536,66.48,-217.29,-40.95,2
4537,66.49,-214.6,-29.64,2
4538,66.5,-225.75,-23.28,2
4539,66.52,-225.88,-21.98,2
4540,66.53,-193.92,-13.37,2
4541,66.54,-155.2,4.7,2
4542,66.56,-139.99,18.0,1
4543,66.57,-133.69,16.79,1
4544,66.58,-112.07,9.95,1
4545,66.6,-84.44,10.31,1
4546,66.61,-67.3,14.19,1
4547,66.62,-55.84,16.0,1
4548,66.64,-41.46,21.72,1
4549,66.65,-28.72,31.18,1
4550,66.66,-24.57,35.4,1
4551,66.68,-25.29,33.58,1
4552,66.69,-20.03,33.22,1
4553,66.7,-4.25,36.98,1
4554,66.72,13.59,39.56,1
4555,66.73,24.39,38.37,1
4556,66.75,27.06,34.9,1
4557,66.76,22.11,34.39,1
4558,66.77,14.74,43.15,1
4559,66.79,17.85,55.07,1
4560,66.8,32.05,58.45,1
4561,66.81,44.04,54.37,1
4562,66.82,48.0,50.98,1
4563,66.84,45.56,49.75,1
4564,66.85,44.52,50.47,1
4565,66.86,53.5,55.16,1
4566,66.88,66.36,58.3,1
4567,66.89,73.8,55.5,1
4568,66.9,72.46,50.7,1
4569,66.92,56.96,47.07,1
4570,66.93,38.9,51.1,1
4571,66.94,43.32,62.46,1
4572,66.96,63.72,67.09,1
4573,66.97,70.8,67.0,1
4574,66.98,66.09,73.78,1
4575,67.0,67.41,77.83,1
4576,67.01,71.64,69.52,1
4577,67.02,76.2,57.98,1
4578,67.04,85.65,48.49,1
4579,67.05,91.44,42.33,1
4580,67.06,83.99,49.33,1
4581,67.08,72.55,63.82,1
4582,67.09,72.06,65.12,1
4583,67.1,74.28,54.25,1
4584,67.12,60.79,48.13,1
4585,67.13,42.23,49.71,1
4586,67.14,40.74,50.36,1
4587,67.16,48.31,46.73,1
4588,67.17,49.38,45.49,1
4589,67.18,49.01,51.08,1
4590,67.2,51.36,57.36,1
4591,67.21,50.76,59.68,1
4592,67.22,47.62,55.67,1
4593,67.24,45.43,42.54,1
4594,67.25,44.36,34.21,1
4595,67.26,42.24,44.6,1
4596,67.28,36.99,54.66,1
4597,67.29,35.01,46.65,1
4598,67.3,40.79,37.86,1
4599,67.32,40.33,40.32,1
4600,67.33,24.8,43.3,1
4601,67.34,13.52,46.32,1
4602,67.36,23.63,50.85,1
4603,67.37,39.2,50.49,1
4604,67.38,36.53,48.02,1
4605,67.4,18.88,44.39,1
4606,67.41,9.21,36.7,1
4607,67.43,15.19,26.99,1
4608,67.44,23.75,12.66,1
4609,67.45,24.56,3.71,1
4610,67.46,15.24,15.85,1
4611,67.48,2.62,26.93,1
4612,67.49,3.85,19.6,1
4613,67.5,18.54,16.61,1
4614,67.52,20.93,20.85,1
4615,67.53,2.15,19.33,1
4616,67.54,-13.71,17.56,1
4617,67.56,-11.16,15.96,1
4618,67.57,-3.29,11.26,1
4619,67.58,-0.79,7.64,1
4620,67.6,3.05,5.54,1
4621,67.61,4.49,5.36,1
4622,67.62,-8.98,7.91,1
4623,67.64,-29.57,8.91,1
4624,67.65,-38.98,5.94,1
4625,67.66,-35.1,2.13,1
4626,67.68,-29.37,-1.67,1
4627,67.69,-24.86,-5.29,1
4628,67.7,-14.63,-6.58,1
4629,67.72,-6.78,-7.47,1
4630,67.73,-16.6,-8.28,1
4631,67.74,-32.75,-6.51,1
4632,67.76,-36.96,-7.55,1
4633,67.77,-34.52,-12.34,1
4634,67.78,-29.59,-9.83,1
4635,67.8,-16.07,-3.7,1
4636,67.81,-2.78,-9.73,1
4637,67.82,-4.99,-21.1,1
4638,67.84,-19.0,-21.26,1
4639,67.85,-28.98,-11.87,1
4640,67.86,-29.26,-4.41,1
4641,67.88,-26.89,-7.77,1
4642,67.89,-25.82,-18.31,1
4643,67.9,-23.49,-22.03,1
4644,67.92,-24.07,-16.15,1
4645,67.93,-33.59,-8.98,1
4646,67.94,-42.98,-7.24,1
4647,67.96,-39.09,-14.96,1
4648,67.97,-23.82,-21.14,1
4649,67.98,-12.67,-11.27,1
4650,68.0,-19.21,-4.5,1
4651,68.01,-32.76,-19.44,1
4652,68.02,-30.16,-31.75,1
4653,68.04,-18.02,-26.28,1
4654,68.05,-18.28,-18.73,1
4655,68.06,-24.28,-13.64,1
4656,68.08,-23.69,-10.84,1
4657,68.09,-26.82,-16.03,1
4658,68.11,-33.65,-17.23,1
4659,68.12,-26.68,-7.38,1
4660,68.13,-13.75,-3.64,1
4661,68.14,-15.51,-12.35,1
4662,68.16,-24.84,-22.61,0
4663,68.17,-24.94,-26.92,0
4664,68.18,-14.65,-22.2,0
4665,68.2,-7.9,-14.87,0
4666,68.21,-15.46,-16.92,0
4667,68.22,-23.11,-23.17,0
4668,68.24,-19.99,-18.08,0
4669,68.25,-20.86,-5.13,0
4670,68.26,-23.24,-4.79,0
4671,68.28,-17.65,-18.25,0
4672,68.29,-42.49,-19.99,0
4673,68.3,-127.36,-4.26,0
4674,68.32,-224.04,0.25,0
4675,68.33,-277.74,-15.16,0
4676,68.34,-298.05,-22.69,0
4677,68.36,-314.72,-15.95,0
4678,68.37,-320.41,-15.83,0
4679,68.38,-293.66,-23.18,0
4680,68.4,-245.44,-26.17,0
4681,68.41,-202.25,-24.74,0
4682,68.42,-163.58,-22.52,0
4683,68.44,-101.72,-18.98,0
4684,68.45,5.88,-15.62,0
4685,68.46,140.62,-15.33,0
4686,68.48,251.2,-16.41,0
4687,68.49,306.55,-13.6,0
4688,68.5,316.47,-4.15,0
4689,68.52,308.57,3.82,0
4690,68.53,305.32,5.22,0
4691,68.54,304.89,10.04,0
4692,68.56,289.49,13.29,1
4693,68.57,257.44,0.95,1
4694,68.58,212.57,-11.05,1
4695,68.6,159.09,-7.84,1
4696,68.61,131.59,-4.81,1
4697,68.62,146.99,-8.53,1
4698,68.64,163.97,-9.17,1
4699,68.65,156.94,-8.42,1
4700,68.66,142.46,-9.98,1
4701,68.68,132.09,-10.29,1
4702,68.69,125.58,-11.23,1
4703,68.7,117.19,-14.9,1
4704,68.72,99.65,-14.56,1
4705,68.73,81.17,-3.31,1
4706,68.75,72.81,13.71,1
4707,68.76,64.83,23.65,1
4708,68.77,45.81,18.79,1
4709,68.79,29.51,3.1,1
4710,68.8,28.76,-11.96,1
4711,68.81,28.21,-16.51,1
4712,68.82,15.25,-11.14,1
4713,68.84,2.17,-5.85,1
4714,68.85,0.22,-3.22,1
4715,68.86,2.26,1.08,1
4716,68.88,-4.51,6.05,1
4717,68.89,-16.88,8.52,1
4718,68.9,-24.32,9.36,1
4719,68.92,-29.28,8.3,1
4720,68.93,-35.63,1.41,1
4721,68.94,-39.13,-3.69,1
4722,68.96,-41.82,0.31,1
4723,68.97,-48.85,3.18,1
4724,68.98,-54.2,4.66,1
4725,69.0,-53.51,9.45,1
4726,69.01,-58.52,7.49,1
4727,69.02,-70.81,1.7,1
4728,69.04,-72.31,5.28,1
4729,69.05,-62.48,11.67,1
4730,69.06,-59.03,11.8,1
4731,69.08,-65.3,8.47,1
4732,69.09,-68.78,4.41,1
