,Timestamp,Data1,Data2,Label
0,6.0,13.28,-3.87,1
1,6.01,2.95,9.81,1
2,6.03,-19.29,7.49,1
3,6.04,-24.31,-1.71,1
4,6.05,-5.54,-3.19,1
5,6.07,6.42,-2.77,1
6,6.08,1.55,-6.05,1
7,6.09,-5.94,-2.59,1
8,6.11,-12.54,6.89,1
9,6.12,-2.11,9.86,1
10,6.13,68.42,5.33,1
11,6.15,204.91,-2.69,2
12,6.16,329.37,-2.45,2
13,6.17,371.43,20.12,2
14,6.19,350.7,46.5,2
15,6.2,301.41,51.92,2
16,6.21,228.26,42.15,2
17,6.23,159.48,17.48,2
18,6.24,111.79,-18.18,2
19,6.25,45.92,-38.03,2
20,6.265,-41.6,-41.89,2
21,6.28,-96.05,-46.18,2
22,6.29,-117.54,-39.89,2
23,6.31,-144.47,-23.85,2
24,6.32,-169.52,-26.69,2
25,6.33,-188.19,-44.02,2
26,6.35,-213.18,-41.75,2
27,6.36,-226.28,-18.53,2
28,6.37,-219.39,-2.16,2
29,6.39,-217.21,-3.84,2
30,6.4,-223.24,-7.28,2
31,6.41,-224.92,3.22,2
32,6.43,-222.5,14.73,2
33,6.44,-216.45,11.8,2
34,6.45,-203.46,6.41,2
35,6.47,-182.2,9.85,2
36,6.48,-157.03,15.37,2
37,6.49,-140.26,17.44,2
38,6.51,-128.79,15.85,2
39,6.52,-107.25,12.72,2
40,6.53,-83.32,13.32,2
41,6.55,-68.76,14.06,2
42,6.56,-53.93,7.45,1
43,6.57,-32.61,5.59,1
44,6.59,-13.96,14.05,1
45,6.6,-9.82,12.45,1
46,6.61,-21.23,1.19,1
47,6.63,-29.97,-1.03,1
48,6.64,-17.82,2.87,1
49,6.65,1.07,5.56,1
50,6.67,3.95,5.74,1
51,6.68,-1.9,-0.96,1
52,6.69,-1.34,-5.39,1
53,6.71,10.45,-2.43,1
54,6.72,32.27,-6.71,1
55,6.73,45.68,-10.66,1
56,6.75,37.91,0.62,1
57,6.76,31.12,6.62,1
58,6.77,41.14,-1.23,1
59,6.79,50.28,-2.97,1
60,6.8,48.18,1.67,1
61,6.81,47.28,2.62,1
62,6.82,52.83,2.36,1
63,6.84,56.55,0.35,1
64,6.85,57.52,-0.31,1
65,6.86,60.3,8.14,1
66,6.88,61.68,20.12,1
67,6.89,59.71,23.3,1
68,6.91,57.52,12.16,1
69,6.92,57.22,-1.92,1
70,6.93,60.97,-3.31,1
71,6.95,63.24,2.13,1
72,6.96,58.27,6.36,1
73,6.97,55.13,12.55,1
74,6.99,65.8,13.09,1
75,7.0,82.75,2.91,1
76,7.01,85.48,-1.72,1
77,7.03,73.06,2.45,1
78,7.04,65.9,-4.45,1
79,7.05,67.93,-17.6,1
80,7.07,65.19,-13.97,1
81,7.08,57.92,-0.42,1
82,7.09,52.69,2.52,1
83,7.11,42.57,-3.42,1
84,7.12,34.23,-5.79,1
85,7.13,41.02,-4.76,1
86,7.15,49.56,-5.76,1
87,7.16,48.16,-1.13,1
88,7.17,46.94,10.43,1
89,7.19,48.42,8.3,1
90,7.2,47.05,-12.59,1
91,7.21,46.74,-28.35,1
92,7.23,51.04,-24.73,1
93,7.24,50.88,-14.24,1
94,7.25,38.72,-10.92,1
95,7.27,25.09,-7.63,1
96,7.28,25.08,0.74,1
97,7.29,34.71,-0.03,1
98,7.31,37.71,-7.9,1
99,7.32,30.42,-4.83,1
100,7.33,25.34,5.79,1
101,7.35,24.87,5.56,1
102,7.36,19.3,-6.23,1
103,7.37,13.62,-9.71,1
104,7.39,19.63,-1.4,1
105,7.4,26.82,3.61,1
106,7.41,16.75,5.16,1
107,7.43,0.17,4.9,1
108,7.44,-1.02,-3.27,1
109,7.45,7.73,-11.15,1
110,7.47,10.35,-7.52,1
111,7.48,4.91,5.36,1
112,7.49,-1.63,15.14,1
113,7.51,-2.02,11.69,1
114,7.52,-0.74,1.58,1
115,7.53,-9.18,-3.38,1
116,7.55,-16.67,-2.37,1
117,7.56,-8.33,-0.3,1
118,7.57,3.2,0.53,1
119,7.59,3.1,1.36,1
120,7.6,-4.83,2.53,1
121,7.61,-12.75,2.17,1
122,7.63,-14.46,-2.06,1
123,7.64,-11.57,-7.32,1
124,7.65,-13.19,-4.93,1
125,7.67,-19.39,5.09,1
126,7.68,-22.61,12.41,1
127,7.69,-22.2,13.61,1
128,7.71,-22.69,12.09,1
129,7.72,-24.17,7.6,1
130,7.73,-23.02,1.54,1
131,7.75,-18.43,-1.39,1
132,7.76,-17.3,-4.77,1
133,7.77,-25.04,-8.03,1
134,7.79,-32.79,-0.36,1
135,7.8,-29.33,6.94,1
136,7.81,-21.4,1.48,1
137,7.83,-24.11,1.68,1
138,7.84,-32.29,11.97,1
139,7.85,-25.85,14.61,1
140,7.87,-11.81,9.02,1
141,7.88,-15.49,0.46,1
142,7.89,-28.6,-7.06,1
143,7.91,-28.47,-5.4,1
144,7.92,-26.67,-1.87,1
145,7.93,-35.1,-5.7,1
146,7.95,-36.12,-7.15,1
147,7.96,-24.85,-0.08,1
148,7.97,-24.14,10.62,1
149,7.99,-38.25,16.7,1
150,8.0,-41.61,8.18,1
151,8.01,-29.23,-8.5,1
152,8.03,-26.72,-12.65,1
153,8.04,-38.23,-4.49,1
154,8.05,-38.48,3.3,1
155,8.07,-19.59,9.78,1
156,8.08,-6.0,7.42,1
157,8.09,-15.46,-3.32,1
158,8.1,-28.77,-3.03,1
159,8.12,-22.75,2.25,1
160,8.13,-7.18,-2.51,1
161,8.15,-3.42,-4.9,0
162,8.16,-11.71,-0.46,0
163,8.17,-15.66,1.81,0
164,8.19,-10.49,4.83,0
165,8.2,-7.28,8.84,0
166,8.21,-13.34,4.7,0
167,8.23,-36.63,-8.15,0
168,8.24,-96.79,-16.35,0
169,8.25,-189.95,-7.49,0
170,8.27,-268.19,9.06,0
171,8.28,-302.22,10.58,0
172,8.29,-316.65,0.4,0
173,8.31,-326.78,-3.08,0
174,8.32,-310.16,-10.33,0
175,8.33,-261.84,-28.24,0
176,8.35,-212.04,-34.06,0
177,8.36,-177.7,-27.38,0
178,8.37,-140.94,-28.93,0
179,8.39,-66.53,-33.53,0
180,8.4,70.25,-25.75,0
181,8.41,232.02,-6.91,0
182,8.43,333.61,7.3,0
183,8.44,346.81,8.25,0
184,8.45,323.35,9.34,0
185,8.47,314.65,17.73,0
186,8.48,323.22,27.02,0
187,8.49,316.21,36.66,0
188,8.51,277.3,38.13,0
189,8.52,237.81,23.11,0
190,8.53,218.05,8.67,0
191,8.55,178.2,9.63,1
192,8.56,109.93,17.04,1
193,8.57,86.54,19.04,1
194,8.59,125.72,7.31,1
195,8.6,148.69,-12.53,1
196,8.61,129.59,-20.0,1
197,8.63,117.62,-12.73,1
198,8.64,120.24,-4.82,1
199,8.65,105.55,1.89,1
200,8.67,81.5,9.64,1
201,8.68,74.26,13.51,1
202,8.69,73.02,12.58,1
203,8.71,58.81,8.85,1
204,8.72,40.64,1.06,1
205,8.73,31.02,-3.56,1
206,8.75,29.24,1.44,1
207,8.76,28.73,0.32,1
208,8.77,19.71,-11.68,1
209,8.78,3.31,-13.54,1
210,8.8,-9.75,-4.38,1
211,8.81,-19.36,-0.84,1
212,8.82,-24.11,1.16,1
213,8.84,-20.5,8.84,1
214,8.85,-24.01,11.71,1
215,8.864999999999998,-41.26,3.94,1
216,8.88,-50.34,-6.91,1
217,8.89,-47.39,-9.44,1
218,8.91,-52.31,-0.14,1
219,8.92,-58.11,6.95,1
220,8.93,-52.52,2.62,1
221,8.95,-52.78,-1.99,1
222,8.96,-64.72,-0.83,1
223,8.97,-72.34,0.61,1
224,8.99,-72.17,-2.69,1
225,9.0,-72.37,-11.57,1
226,9.01,-74.81,-16.09,1
227,9.03,-72.22,-7.38,1
228,9.04,-64.58,2.42,1
229,9.05,-67.25,2.6,1
230,9.07,-79.17,1.89,1
231,9.08,-76.34,3.4,1
232,9.09,-60.06,0.03,1
233,9.11,-59.15,-8.38,1
234,9.12,-75.98,-12.22,1
235,9.13,-80.56,-3.69,1
236,9.15,-64.92,5.61,1
237,9.16,-59.21,3.15,1
238,9.17,-72.22,0.76,1
239,9.19,-75.82,4.85,1
240,9.2,-61.99,2.05,1
241,9.21,-49.44,-5.35,1
242,9.23,-47.19,-3.55,1
243,9.24,-50.15,-2.11,1
244,9.25,-50.87,-9.39,1
245,9.27,-46.67,-6.41,1
246,9.28,-42.02,9.09,1
247,9.29,-42.05,12.53,1
248,9.31,-44.28,1.22,1
249,9.32,-43.33,-8.05,1
250,9.33,-41.77,-7.66,1
251,9.35,-42.31,-0.29,1
252,9.36,-42.51,1.48,1
253,9.37,-39.17,-8.59,1
254,9.39,-29.76,-14.96,1
255,9.4,-18.38,-5.62,1
256,9.41,-15.63,6.43,1
257,9.43,-22.84,5.06,1
258,9.44,-26.89,-2.09,1
259,9.45,-21.3,-2.9,1
260,9.47,-14.45,-5.08,1
261,9.48,-11.32,-8.74,1
262,9.49,-12.93,-2.59,1
263,9.51,-16.46,3.03,1
264,9.52,-12.04,-4.46,1
265,9.53,-1.41,-9.16,1
266,9.55,-0.21,0.31,1
267,9.56,-11.29,4.96,1
268,9.57,-16.86,-3.36,1
269,9.59,-5.98,-5.51,1
270,9.6,7.92,2.66,1
271,9.61,9.32,5.14,1
272,9.63,5.37,2.22,1
273,9.64,8.88,2.58,1
274,9.65,13.57,0.3,1
275,9.67,13.21,-7.82,1
276,9.68,13.62,-10.12,1
277,9.69,15.0,-1.14,1
278,9.71,16.2,7.13,1
279,9.72,20.09,5.04,1
280,9.73,24.87,1.88,1
281,9.75,25.86,5.12,1
282,9.76,23.22,4.98,1
283,9.77,23.6,-1.39,1
284,9.79,29.25,-5.21,1
285,9.8,32.35,-5.29,1
286,9.81,28.76,-0.07,1
287,9.83,26.22,9.71,1
288,9.84,29.97,9.7,1
289,9.85,28.73,1.62,1
290,9.87,17.33,3.77,1
291,9.88,11.18,9.64,1
292,9.89,17.16,4.5,1
293,9.91,24.58,-5.46,1
294,9.92,29.02,-12.49,1
295,9.93,32.94,-12.49,1
296,9.95,32.82,-0.03,1
297,9.96,27.72,14.38,1
298,9.97,26.16,15.37,1
299,9.99,30.75,10.01,1
300,10.0,32.39,7.46,1
301,10.01,25.71,3.0,1
302,10.02,12.12,2.08,1
303,10.04,0.57,7.81,1
304,10.05,8.57,7.35,1
305,10.06,31.0,1.46,1
306,10.08,40.83,-0.51,1
307,10.09,34.74,-0.35,1
308,10.1,28.65,0.99,1
309,10.12,27.84,2.94,1
310,10.13,28.33,1.3,1
311,10.15,28.69,-0.11,0
312,10.16,29.87,2.72,0
313,10.17,26.51,1.07,0
314,10.19,8.53,-7.58,0
315,10.2,-47.2,-12.77,0
316,10.21,-161.13,-10.5,0
317,10.23,-286.73,-0.87,0
318,10.24,-349.1,18.08,0
319,10.25,-346.01,33.12,0
320,10.27,-313.45,19.94,0
321,10.28,-253.85,-21.77,0
322,10.29,-164.68,-59.57,0
323,10.31,-68.94,-71.23,0
324,10.32,9.65,-73.16,0
325,10.33,69.99,-73.9,0
326,10.35,117.9,-56.12,0
327,10.36,145.75,-28.59,0
328,10.37,156.87,-12.99,0
329,10.39,174.18,-0.21,0
330,10.4,200.53,14.73,0
331,10.41,219.88,13.48,0
332,10.43,226.77,2.7,0
333,10.44,222.03,9.63,0
334,10.45,208.52,24.17,0
335,10.47,196.25,26.16,0
336,10.48,192.63,29.83,0
337,10.49,188.73,41.14,0
338,10.51,176.93,43.48,0
339,10.52,170.61,33.38,0
340,10.53,175.85,25.07,0
341,10.55,174.71,30.87,1
342,10.56,157.4,40.97,1
343,10.57,133.74,33.96,1
344,10.59,112.4,20.2,1
345,10.6,96.43,26.35,1
346,10.61,86.54,40.44,1
347,10.63,77.87,39.11,1
348,10.64,65.22,28.44,1
349,10.65,49.85,16.12,1
350,10.67,36.74,3.58,1
351,10.68,28.73,3.33,1
352,10.69,22.85,18.13,1
353,10.71,10.69,28.3,1
354,10.72,-11.36,19.67,1
355,10.73,-32.58,3.7,1
356,10.75,-36.78,0.16,1
357,10.76,-23.79,7.42,1
358,10.77,-15.1,7.91,1
359,10.78,-24.13,-0.49,1
360,10.8,-36.48,-6.64,1
361,10.81,-40.56,-8.51,1
362,10.83,-43.74,-8.0,1
363,10.84,-43.71,-5.41,1
364,10.85,-40.14,-4.95,1
365,10.87,-51.54,-5.64,1
366,10.88,-71.98,-7.94,1
367,10.89,-73.86,-17.84,1
368,10.91,-62.83,-20.22,1
369,10.92,-64.53,-5.08,1
370,10.93,-77.98,-0.65,1
371,10.95,-82.09,-14.9,1
372,10.96,-72.5,-16.0,1
373,10.97,-70.95,0.25,1
374,10.99,-84.5,4.73,1
375,11.0,-87.8,-8.48,1
376,11.01,-75.29,-17.08,1
377,11.03,-68.81,-14.97,1
378,11.04,-69.49,-18.02,1
379,11.05,-65.07,-26.86,1
380,11.07,-60.11,-25.25,1
381,11.08,-63.26,-13.15,1
382,11.09,-67.19,-8.59,1
383,11.11,-62.36,-13.93,1
384,11.12,-57.26,-13.46,1
385,11.13,-61.62,-10.41,1
386,11.15,-70.45,-12.82,1
387,11.16,-76.1,-9.88,1
388,11.17,-72.49,-5.83,1
389,11.19,-63.43,-11.88,1
390,11.2,-62.69,-14.71,1
391,11.21,-67.16,-7.23,1
392,11.23,-62.79,-0.66,1
393,11.24,-50.53,-1.38,1
394,11.25,-40.21,-8.35,1
395,11.27,-35.44,-14.54,1
396,11.28,-33.89,-13.01,1
397,11.29,-36.57,-6.97,1
398,11.31,-42.53,-0.83,1
399,11.32,-42.48,1.38,1
400,11.33,-36.38,-5.8,1
401,11.35,-35.72,-9.12,1
402,11.36,-39.91,5.77,1
403,11.37,-38.13,18.32,1
404,11.39,-30.13,8.14,1
405,11.4,-21.69,-7.77,1
406,11.41,-12.75,-10.06,1
407,11.43,-9.3,-3.91,1
408,11.44,-19.09,0.3,1
409,11.45,-29.84,-0.15,1
410,11.47,-25.34,-4.64,1
411,11.48,-12.29,-9.81,1
412,11.49,-8.85,-12.1,1
413,11.51,-16.04,-9.13,1
414,11.52,-17.35,-0.47,1
415,11.53,-6.92,1.32,1
416,11.55,2.15,-12.69,1
417,11.56,1.67,-21.65,1
418,11.57,0.57,-6.96,1
419,11.59,4.6,15.94,1
420,11.6,7.13,22.59,1
421,11.61,4.84,10.12,1
422,11.63,0.7,1.29,1
423,11.64,-1.28,6.86,1
424,11.65,2.09,6.65,1
425,11.67,6.36,-3.47,1
426,11.68,8.41,-5.02,1
427,11.69,14.43,0.39,1
428,11.71,23.76,-0.56,1
429,11.72,24.37,-8.72,1
430,11.73,12.79,-15.53,1
431,11.75,4.67,-7.1,1
432,11.76,12.92,11.27,1
433,11.77,25.48,13.06,1
434,11.79,26.24,0.27,1
435,11.8,20.43,-3.5,1
436,11.81,18.2,-1.34,1
437,11.83,20.32,0.26,1
438,11.84,23.84,6.75,1
439,11.85,22.05,5.46,1
440,11.87,16.53,-3.55,1
441,11.88,18.22,4.23,1
442,11.89,26.03,14.85,1
443,11.91,29.6,2.62,1
444,11.92,27.41,-8.61,1
445,11.93,25.24,0.64,1
446,11.94,26.59,9.67,1
447,11.96,33.1,6.15,1
448,11.97,45.45,0.17,1
449,11.98,52.47,2.88,1
450,12.0,38.67,16.37,1
451,12.01,14.83,27.29,1
452,12.02,4.2,22.08,1
453,12.04,6.32,7.11,1
454,12.05,10.11,-3.62,1
455,12.06,14.99,-6.55,1
456,12.08,23.63,-1.38,1
457,12.09,32.75,6.35,1
458,12.105,36.03,5.49,1
459,12.12,35.02,0.71,1
460,12.13,32.6,1.2,1
461,12.15,27.67,5.58,2
462,12.16,38.72,17.75,2
463,12.17,105.52,33.08,2
464,12.19,230.68,34.48,2
465,12.2,346.04,27.21,2
466,12.21,389.78,26.99,2
467,12.23,373.85,30.64,2
468,12.24,335.1,24.09,2
469,12.25,289.29,3.07,2
470,12.27,244.57,-13.24,2
471,12.28,205.92,-10.41,2
472,12.29,170.41,-11.52,2
473,12.31,130.47,-32.38,2
474,12.32,58.75,-46.06,2
475,12.33,-77.47,-36.23,2
476,12.35,-237.16,-23.01,2
477,12.36,-325.01,-16.32,2
478,12.37,-331.78,-12.3,2
479,12.39,-327.77,-7.98,2
480,12.4,-333.77,2.97,2
481,12.41,-322.29,7.68,2
482,12.43,-296.07,-8.93,2
483,12.44,-278.04,-22.67,2
484,12.45,-265.79,-11.95,2
485,12.47,-244.56,4.53,2
486,12.48,-213.58,8.27,2
487,12.49,-182.79,7.51,2
488,12.51,-159.39,18.14,2
489,12.52,-143.36,38.53,2
490,12.53,-134.54,44.54,2
491,12.55,-127.41,23.86,1
492,12.56,-110.88,0.54,1
493,12.57,-87.37,-3.43,1
494,12.59,-69.37,-0.4,1
495,12.6,-57.15,-4.75,1
496,12.61,-46.32,-10.79,1
497,12.63,-36.62,-14.61,1
498,12.64,-25.66,-13.46,1
499,12.65,-15.74,-4.86,1
500,12.67,-11.0,-1.58,1
501,12.68,-8.1,-8.24,1
502,12.69,-5.0,-12.93,1
503,12.71,-2.39,-11.33,1
504,12.72,3.71,-7.85,1
505,12.73,15.58,-10.15,1
506,12.75,26.94,-16.43,1
507,12.76,32.77,-11.67,1
508,12.77,37.68,0.96,1
509,12.79,41.88,4.45,1
510,12.8,39.81,1.58,1
511,12.81,37.17,3.73,1
512,12.83,42.64,7.34,1
513,12.84,52.44,4.7,1
514,12.85,57.58,-0.96,1
515,12.87,57.73,-3.26,1
516,12.88,62.58,-1.67,1
517,12.89,71.92,-0.46,1
518,12.91,72.41,-3.77,1
519,12.92,64.29,-7.28,1
520,12.93,60.68,-7.35,1
521,12.95,63.24,-11.19,1
522,12.96,65.85,-14.08,1
523,12.97,65.65,-5.55,1
524,12.99,62.34,5.05,1
525,13.0,60.36,8.31,1
526,13.01,63.74,7.42,1
527,13.03,70.66,1.62,1
528,13.04,75.12,-6.39,1
529,13.05,73.19,-5.52,1
530,13.07,67.25,1.37,1
531,13.08,63.19,3.67,1
532,13.09,62.11,3.02,1
533,13.11,62.7,2.19,1
534,13.12,64.6,-0.64,1
535,13.13,62.15,0.05,1
536,13.15,52.23,7.72,1
537,13.16,44.36,12.2,1
538,13.17,43.88,5.56,1
539,13.19,44.61,-4.52,1
540,13.2,48.46,-3.53,1
541,13.21,54.86,7.5,1
542,13.23,48.94,12.3,1
543,13.24,34.86,6.69,1
544,13.25,33.4,1.7,1
545,13.27,41.59,0.12,1
546,13.28,44.58,-2.36,1
547,13.29,42.58,-4.53,1
548,13.31,42.07,-3.64,1
549,13.32,46.04,1.49,1
550,13.33,48.14,9.65,1
551,13.35,37.26,8.88,1
552,13.36,19.52,-2.85,1
553,13.37,9.85,-7.34,1
554,13.39,6.77,-2.27,1
555,13.4,5.25,-2.86,1
556,13.41,8.73,-5.54,1
557,13.43,14.06,0.92,1
558,13.44,16.67,10.04,1
559,13.45,19.91,13.16,1
560,13.47,18.5,9.45,1
561,13.48,6.34,3.78,1
562,13.49,-5.51,4.18,1
563,13.51,-9.12,5.56,1
564,13.52,-12.54,-0.77,1
565,13.53,-14.65,-6.88,1
566,13.55,-7.32,-0.5,1
567,13.56,-0.95,13.28,1
568,13.57,-5.4,16.3,1
569,13.59,-10.52,2.57,1
570,13.6,-12.46,-13.74,1
571,13.61,-19.57,-16.43,1
572,13.63,-25.06,-5.86,1
573,13.64,-20.39,2.24,1
574,13.65,-18.71,-0.4,1
575,13.67,-25.33,-4.59,1
576,13.68,-25.38,-1.81,1
577,13.69,-19.58,3.46,1
578,13.71,-21.24,3.25,1
579,13.72,-29.99,-7.8,1
580,13.73,-36.3,-21.85,1
581,13.75,-33.98,-16.05,1
582,13.76,-25.33,5.79,1
583,13.77,-19.39,8.66,1
584,13.79,-23.36,-6.03,1
585,13.8,-29.97,-6.02,1
586,13.81,-29.49,1.94,1
587,13.83,-28.34,-5.47,1
588,13.84,-31.37,-16.08,1
589,13.85,-30.53,-14.8,1
590,13.86,-27.98,-10.98,1
591,13.88,-31.67,-6.13,1
592,13.89,-32.6,3.39,1
593,13.9,-24.73,2.18,1
594,13.92,-23.24,-8.81,1
595,13.93,-29.67,-6.91,1
596,13.94,-29.69,2.68,1
597,13.96,-25.09,4.76,1
598,13.97,-19.34,3.46,1
599,13.98,-13.11,0.41,1
600,14.0,-17.05,-5.43,1
601,14.01,-30.08,-7.2,1
602,14.02,-38.42,-2.4,1
603,14.04,-36.09,5.5,1
604,14.05,-22.02,13.96,1
605,14.07,-10.15,16.24,1
606,14.08,-17.75,9.22,1
607,14.09,-28.28,2.41,1
608,14.11,-24.71,-0.95,1
609,14.12,-22.96,-2.67,1
610,14.13,-24.85,4.85,1
611,14.15,-17.27,36.17,1
612,14.16,-40.51,132.08,1
613,14.17,-131.97,311.36,1
614,14.19,-164.02,456.4,1
615,14.2,-15.08,429.8,1
616,14.21,158.42,300.54,1
617,14.23,193.47,237.35,1
618,14.24,88.01,253.08,1
619,14.25,-152.05,242.65,1
620,14.27,-350.08,182.92,1
621,14.28,-313.45,133.79,1
622,14.29,-244.31,111.1,1
623,14.31,-341.27,85.9,1
624,14.32,-390.91,51.96,1
625,14.33,-251.34,22.18,1
626,14.35,-145.3,-1.1,1
627,14.36,-169.98,-22.81,1
628,14.37,-128.68,-43.42,1
629,14.39,17.04,-61.85,1
630,14.4,123.62,-78.95,1
631,14.41,167.9,-94.76,1
632,14.43,186.25,-108.55,1
633,14.44,175.55,-120.85,1
634,14.45,200.9,-132.69,1
635,14.47,359.04,-143.49,1
636,14.48,526.63,-152.49,1
637,14.49,469.03,-159.55,1
638,14.51,210.96,-165.26,1
639,14.52,-17.88,-169.93,1
640,14.53,-23.03,-174.08,1
641,14.55,119.15,-177.68,1
642,14.56,136.06,-180.42,1
643,14.57,108.25,-181.7,1
644,14.59,215.96,-181.88,1
645,14.6,260.15,-181.38,1
646,14.61,190.5,-180.12,1
647,14.63,183.47,-178.24,1
648,14.64,184.8,-175.86,1
649,14.65,116.19,-172.89,1
650,14.67,124.3,-169.56,1
651,14.68,223.2,-165.88,1
652,14.69,88.42,-161.62,1
653,14.71,-312.51,-157.07,1
654,14.72,-434.49,-152.49,1
655,14.73,-35.77,-147.32,1
656,14.75,362.07,-141.22,1
657,14.76,277.54,-134.17,1
658,14.77,-105.58,-127.38,1
659,14.79,-296.23,-121.45,1
660,14.8,-92.9,-115.27,1
661,14.81,188.34,-107.52,1
662,14.83,168.29,-103.82,1
663,14.84,-32.18,-108.64,1
664,14.85,-83.52,-105.32,1
665,14.87,-1.03,-120.03,1
666,14.88,20.95,-237.52,1
667,14.89,23.19,-350.62,1
668,14.91,90.62,-244.07,1
669,14.92,101.04,-104.72,1
670,14.93,-32.93,-227.17,1
671,14.95,-151.9,-383.35,1
672,14.96,-66.47,-259.47,1
673,14.97,8.8,-59.5,1
674,14.99,-266.31,-181.43,1
675,15.0,-565.3,-512.96,1
676,15.01,-333.42,-479.9,1
677,15.03,97.83,-76.46,1
678,15.04,40.11,8.53,1
679,15.05,-316.73,-297.1,1
680,15.07,-391.67,-333.99,1
681,15.08,-205.0,-55.12,1
682,15.09,-22.24,-37.41,1
683,15.11,168.71,-290.12,1
684,15.12,385.44,-343.38,1
685,15.13,464.4,-163.29,1
686,15.15,341.04,-27.4,1
687,15.16,156.19,20.14,1
688,15.17,21.72,50.66,1
689,15.19,-79.95,56.17,1
690,15.2,-163.76,63.0,1
691,15.21,-190.19,113.16,1
692,15.23,-161.71,171.23,1
693,15.24,-139.78,202.73,1
694,15.25,-149.31,227.92,1
695,15.27,-155.97,269.5,1
696,15.28,-139.65,328.36,1
697,15.29,-124.6,394.48,1
698,15.31,-125.84,451.02,1
699,15.32,-120.49,489.8,1
700,15.33,-100.77,521.63,1
701,15.35,-90.31,552.31,1
702,15.36,-84.9,575.47,1
703,15.37,-64.55,588.19,1
704,15.39,-48.14,585.33,1
705,15.4,-54.35,567.77,1
706,15.41,-61.36,551.33,1
707,15.43,-53.64,539.34,1
708,15.44,-45.63,517.88,1
709,15.45,-42.38,483.58,1
710,15.47,-31.5,451.92,1
711,15.48,-18.92,437.58,1
712,15.49,-18.7,426.52,1
713,15.51,-16.89,393.02,1
714,15.52,0.51,343.88,1
715,15.53,15.26,307.52,1
716,15.55,15.03,292.72,1
717,15.56,9.38,284.61,1
718,15.57,2.84,274.14,1
719,15.59,-2.05,266.2,1
720,15.6,-0.8,256.58,1
721,15.61,4.52,233.8,1
722,15.63,9.25,206.96,1
723,15.64,14.26,190.76,1
724,15.65,22.38,175.59,1
725,15.67,27.17,149.64,1
726,15.68,20.59,125.62,1
727,15.69,13.07,113.93,1
728,15.71,15.3,99.55,1
729,15.72,24.08,70.52,1
730,15.73,36.49,40.59,1
731,15.75,44.43,21.08,1
732,15.76,39.48,2.39,1
733,15.77,32.24,-16.98,1
734,15.78,30.2,-26.45,1
735,15.8,27.48,-31.11,1
736,15.81,29.01,-45.12,1
737,15.82,39.48,-68.7,1
738,15.84,46.87,-88.27,1
739,15.85,43.08,-96.21,1
740,15.86,33.95,-103.2,1
741,15.88,31.04,-113.36,1
742,15.89,41.2,-116.63,1
743,15.9,52.2,-120.38,1
744,15.92,50.08,-138.62,1
745,15.93,44.12,-159.11,1
746,15.94,41.8,-166.59,1
747,15.96,36.67,-168.76,1
748,15.97,30.44,-172.97,1
749,15.98,29.51,-175.43,1
750,16.0,35.3,-181.8,1
751,16.01,44.89,-196.55,1
752,16.03,47.42,-207.52,1
753,16.04,36.4,-206.19,1
754,16.05,24.38,-199.06,1
755,16.07,28.17,-196.42,1
756,16.08,45.09,-197.52,1
757,16.09,54.48,-196.28,1
758,16.11,47.71,-201.47,1
759,16.12,42.12,-214.46,1
760,16.13,45.54,-213.72,1
761,16.15,50.64,-198.43,1
762,16.16,85.1,-193.2,2
763,16.17,190.26,-198.67,2
764,16.19,337.67,-192.91,2
765,16.2,430.66,-177.38,2
766,16.21,414.23,-174.71,2
767,16.23,340.5,-187.41,2
768,16.24,285.39,-198.0,2
769,16.25,244.23,-198.43,2
770,16.27,166.21,-193.28,2
771,16.28,60.18,-189.05,2
772,16.29,-18.12,-190.19,2
773,16.31,-64.02,-197.09,2
774,16.32,-114.61,-199.1,2
775,16.33,-170.08,-186.64,2
776,16.35,-199.92,-173.91,2
777,16.36,-206.82,-171.48,2
778,16.37,-217.04,-166.7,2
779,16.39,-229.92,-158.28,2
780,16.4,-232.01,-156.55,2
781,16.41,-227.99,-150.5,2
782,16.42,-222.93,-133.31,2
783,16.44,-212.9,-124.24,2
784,16.45,-197.16,-123.18,2
785,16.46,-184.22,-111.98,2
786,16.48,-182.06,-99.29,2
787,16.49,-184.88,-96.44,2
788,16.5,-176.94,-95.62,2
789,16.52,-158.12,-88.85,2
790,16.53,-141.04,-73.36,2
791,16.54,-124.55,-55.05,2
792,16.56,-103.82,-42.77,1
793,16.57,-86.61,-35.75,1
794,16.58,-77.55,-38.66,1
795,16.6,-70.33,-45.91,1
796,16.61,-57.95,-31.5,1
797,16.62,-44.44,-9.23,1
798,16.64,-39.58,-13.41,1
799,16.65,-36.15,-25.55,1
800,16.67,-22.29,-20.49,1
801,16.68,-8.6,-9.87,1
802,16.69,-6.37,-3.25,1
803,16.71,-3.23,4.41,1
804,16.72,9.41,13.54,1
805,16.73,21.02,14.3,1
806,16.75,25.96,7.12,1
807,16.76,27.6,8.95,1
808,16.77,26.18,21.05,1
809,16.79,24.04,28.48,1
810,16.8,28.36,32.59,1
811,16.81,37.75,43.1,1
812,16.83,45.72,51.0,1
813,16.84,53.46,45.15,1
814,16.85,58.43,37.36,1
815,16.87,53.62,39.13,1
816,16.88,42.51,43.85,1
817,16.89,37.96,48.25,1
818,16.91,43.73,57.0,1
819,16.92,53.3,64.35,1
820,16.93,60.31,64.22,1
821,16.95,58.4,62.64,1
822,16.96,51.72,63.07,1
823,16.97,55.95,63.12,1
824,16.99,65.91,68.57,1
825,17.0,62.8,79.86,1
826,17.01,56.83,80.93,1
827,17.03,61.1,67.87,1
828,17.04,60.5,60.78,1
829,17.05,52.48,69.59,1
830,17.06,48.86,78.86,1
831,17.08,45.14,77.88,1
832,17.09,42.39,75.89,1
833,17.1,49.12,75.03,1
834,17.12,55.5,65.92,1
835,17.13,52.77,58.46,1
836,17.14,46.79,72.59,1
837,17.16,44.81,94.36,1
838,17.17,48.04,93.29,1
839,17.18,48.89,72.69,1
840,17.2,39.97,59.48,1
841,17.21,29.32,67.0,1
842,17.22,29.2,76.95,1
843,17.24,34.03,64.91,1
844,17.25,32.37,48.73,1
845,17.26,28.71,55.28,1
846,17.28,33.6,67.0,1
847,17.29,41.95,64.21,1
848,17.3,37.43,57.35,1
849,17.32,18.21,52.85,1
850,17.33,3.92,50.45,1
851,17.35,4.53,55.07,1
852,17.36,6.36,61.51,1
853,17.37,2.75,59.08,1
854,17.39,2.78,45.98,1
855,17.4,5.77,35.97,1
856,17.41,4.19,46.09,1
857,17.43,3.49,58.25,1
858,17.44,7.69,42.72,1
859,17.45,8.52,25.62,1
860,17.47,2.66,39.96,1
861,17.48,-2.15,52.12,1
862,17.49,-1.94,35.81,1
863,17.51,-3.04,26.63,1
864,17.52,-7.01,38.05,1
865,17.53,-5.41,40.94,1
866,17.55,1.78,29.03,1
867,17.56,0.24,17.62,1
868,17.57,-7.93,15.65,1
869,17.59,-7.03,22.96,1
870,17.6,-3.52,24.59,1
871,17.61,-9.05,16.52,1
872,17.63,-11.36,18.62,1
873,17.64,-2.71,30.15,1
874,17.65,0.93,27.72,1
875,17.67,-12.22,11.41,1
876,17.68,-26.99,-1.77,1
877,17.69,-22.94,-4.35,1
878,17.7,-13.94,1.34,1
879,17.72,-23.64,5.07,1
880,17.73,-36.96,4.76,1
881,17.75,-31.06,8.89,1
882,17.76,-19.13,12.27,1
883,17.77,-18.91,6.8,1
884,17.78,-23.17,-0.14,1
885,17.8,-19.43,-4.02,1
886,17.81,-12.19,-9.37,1
887,17.82,-13.3,-13.52,1
888,17.84,-18.39,-12.69,1
889,17.85,-18.1,-11.46,1
890,17.86,-20.1,-13.18,1
891,17.88,-27.23,-13.74,1
892,17.89,-28.77,-9.68,1
893,17.9,-29.15,-5.83,1
894,17.92,-34.13,-8.14,1
895,17.93,-29.84,-10.16,1
896,17.94,-17.4,-7.88,1
897,17.96,-17.63,-16.55,1
898,17.97,-27.57,-35.7,1
899,17.99,-25.87,-37.33,1
900,18.0,-13.84,-18.05,1
901,18.01,-10.19,-5.23,1
902,18.03,-20.69,-10.6,1
903,18.04,-34.46,-18.98,1
904,18.05,-38.74,-16.5,1
905,18.07,-30.36,-8.95,1
906,18.08,-18.71,-10.15,1
907,18.09,-12.74,-20.04,1
908,18.11,-9.23,-23.33,1
909,18.12,-7.38,-18.56,1
910,18.13,-13.92,-19.01,1
911,18.15,-24.73,-20.57,1
912,18.16,-24.98,-16.18,0
913,18.17,-9.8,-13.09,0
914,18.19,1.17,-14.62,0
915,18.2,-8.56,-19.88,0
916,18.21,-18.92,-20.97,0
917,18.23,-9.49,-11.44,0
918,18.24,-4.83,-11.39,0
919,18.25,-58.16,-24.59,0
920,18.27,-181.02,-16.62,0
921,18.28,-302.4,7.45,0
922,18.29,-359.4,7.01,0
923,18.31,-368.43,-12.22,0
924,18.32,-352.7,-23.98,0
925,18.33,-308.55,-32.69,0
926,18.34,-253.04,-43.12,0
927,18.36,-211.28,-52.74,0
928,18.37,-178.8,-65.9,0
929,18.38,-137.95,-72.5,0
930,18.4,-63.44,-64.14,0
931,18.41,72.58,-52.13,0
932,18.42,231.76,-39.76,0
933,18.44,324.11,-24.21,0
934,18.45,337.55,-10.87,0
935,18.46,335.12,-5.04,0
936,18.48,340.58,-6.18,0
937,18.49,333.65,-5.11,0
938,18.5,313.0,2.14,0
939,18.52,294.66,4.58,0
940,18.53,276.25,1.49,0
941,18.54,245.55,4.24,0
942,18.56,211.18,7.81,1
943,18.57,194.62,4.52,1
944,18.58,192.77,7.11,1
945,18.6,179.38,24.54,1
946,18.61,149.38,40.58,1
947,18.63,124.31,32.67,1
948,18.64,114.31,3.1,1
949,18.65,109.37,-17.1,1
950,18.67,99.37,-11.55,1
951,18.68,83.16,-5.9,1
952,18.69,63.73,-15.08,1
953,18.71,46.04,-16.1,1
954,18.72,33.93,-3.55,1
955,18.73,24.87,2.51,1
956,18.75,14.05,-1.86,1
957,18.76,0.62,-5.05,1
958,18.77,-12.02,-2.45,1
959,18.79,-19.09,-2.19,1
960,18.8,-18.95,-7.42,1
961,18.81,-19.6,-7.99,1
962,18.83,-29.1,-3.34,1
963,18.84,-39.67,-4.88,1
964,18.85,-41.18,-8.89,1
965,18.87,-41.17,-2.39,1
966,18.88,-46.99,6.4,1
967,18.89,-48.55,4.32,1
968,18.91,-42.22,0.04,1
969,18.92,-43.87,-1.23,1
970,18.93,-56.85,-3.57,1
971,18.95,-64.56,-0.71,1
972,18.96,-63.28,6.11,1
973,18.97,-62.26,3.59,1
974,18.98,-65.74,-5.34,1
975,19.0,-72.45,-5.65,1
976,19.01,-75.86,2.49,1
977,19.02,-71.5,7.26,1
978,19.04,-66.6,6.41,1
979,19.05,-71.31,4.34,1
980,19.06,-81.32,2.58,1
981,19.08,-79.52,-2.83,1
982,19.09,-65.07,-6.32,1
983,19.1,-60.67,7.06,1
984,19.12,-70.79,19.58,1
985,19.13,-71.42,8.64,1
986,19.14,-61.04,1.45,1
987,19.16,-63.01,11.11,1
988,19.17,-74.63,9.21,1
989,19.18,-73.71,0.91,1
990,19.2,-64.13,8.73,1
991,19.21,-61.43,14.91,1
992,19.22,-58.81,6.42,1
993,19.24,-47.52,1.24,1
994,19.25,-35.92,1.84,1
995,19.27,-33.67,-1.68,1
996,19.28,-38.2,-5.06,1
997,19.29,-39.72,-3.95,1
998,19.31,-39.94,-0.81,1
999,19.32,-48.93,-1.5,1
1000,19.33,-57.32,-8.5,1
1001,19.35,-49.63,-11.38,1
1002,19.36,-34.03,-2.13,1
1003,19.37,-24.65,11.44,1
1004,19.39,-24.34,17.24,1
1005,19.4,-29.96,10.36,1
1006,19.41,-32.28,-4.38,1
1007,19.43,-25.03,-13.37,1
1008,19.44,-16.45,-9.74,1
1009,19.45,-14.74,-4.5,1
1010,19.47,-17.21,-3.85,1
1011,19.48,-19.58,1.28,1
1012,19.49,-16.8,8.68,1
1013,19.51,-8.27,8.83,1
1014,19.52,-3.82,5.04,1
1015,19.53,-2.12,3.02,1
1016,19.55,2.56,1.35,1
1017,19.56,0.96,0.92,1
1018,19.57,-3.27,4.92,1
1019,19.59,2.79,7.83,1
1020,19.6,8.61,4.93,1
1021,19.61,6.3,4.07,1
1022,19.62,5.64,9.42,1
1023,19.64,6.9,11.83,1
1024,19.65,5.95,7.27,1
1025,19.67,6.05,6.62,1
1026,19.68,3.91,10.66,1
1027,19.69,-3.8,4.68,1
1028,19.7,-3.1,-4.15,1
1029,19.72,12.74,1.58,1
1030,19.73,25.55,8.78,1
1031,19.75,23.16,4.24,1
1032,19.76,16.13,3.18,1
1033,19.77,17.03,9.65,1
1034,19.78,25.02,7.97,1
1035,19.8,29.55,0.25,1
1036,19.81,27.03,-1.69,1
1037,19.82,25.11,-1.56,1
1038,19.84,27.55,-1.63,1
1039,19.85,31.06,1.25,1
1040,19.86,30.87,0.21,1
1041,19.88,22.94,-5.13,1
1042,19.89,16.16,-2.32,1
1043,19.9,22.9,9.07,1
1044,19.92,29.27,14.51,1
1045,19.93,20.54,8.28,1
1046,19.95,13.64,2.62,1
1047,19.96,19.34,4.24,1
1048,19.97,23.39,3.38,1
1049,19.99,18.87,1.82,1
1050,20.0,16.24,7.26,1
1051,20.01,23.85,8.1,1
1052,20.03,28.4,-0.44,1
1053,20.04,15.44,-4.15,1
1054,20.05,7.46,-3.88,1
1055,20.07,24.73,-8.02,1
1056,20.08,39.65,-8.26,1
1057,20.09,31.52,-0.07,1
1058,20.11,21.01,8.07,1
1059,20.12,24.33,8.1,1
1060,20.13,35.05,-0.46,1
1061,20.15,27.33,-7.9,1
1062,20.16,-37.76,-13.36,0
1063,20.17,-165.64,-25.85,0
1064,20.19,-301.25,-40.66,0
1065,20.2,-371.45,-50.56,0
1066,20.21,-351.53,-51.75,0
1067,20.23,-286.71,-37.36,0
1068,20.24,-225.13,-24.13,0
1069,20.25,-157.52,-31.37,0
1070,20.26,-66.95,-32.54,0
1071,20.28,18.45,-7.43,0
1072,20.29,72.66,17.3,0
1073,20.3,112.5,30.43,0
1074,20.32,152.25,45.31,0
1075,20.33,182.63,49.82,0
1076,20.34,200.47,31.65,0
1077,20.36,209.15,10.79,0
1078,20.37,215.08,4.87,0
1079,20.38,223.07,7.39,0
1080,20.4,224.76,5.8,0
1081,20.41,220.32,-1.23,0
1082,20.42,220.38,-0.7,0
1083,20.44,220.93,13.34,0
1084,20.45,212.16,26.6,0
1085,20.46,195.46,31.54,0
1086,20.48,179.73,33.11,0
1087,20.49,166.02,28.42,0
1088,20.5,149.28,20.33,0
1089,20.52,135.78,22.32,0
1090,20.53,132.99,29.59,0
1091,20.54,132.44,25.18,0
1092,20.56,124.31,13.14,1
1093,20.57,109.93,10.71,1
1094,20.59,91.62,17.48,1
1095,20.6,73.18,21.88,1
1096,20.61,63.37,22.82,1
1097,20.63,59.45,22.66,1
1098,20.64,48.22,18.75,1
1099,20.65,30.19,10.06,1
1100,20.67,10.78,4.73,1
1101,20.68,-11.78,10.8,1
1102,20.69,-29.59,17.11,1
1103,20.71,-30.73,9.65,1
1104,20.72,-24.09,-2.86,1
1105,20.73,-24.12,-5.21,1
1106,20.75,-27.82,0.84,1
1107,20.76,-32.34,1.2,1
1108,20.77,-40.03,-6.22,1
1109,20.79,-45.17,-8.9,1
1110,20.8,-45.8,-6.93,1
1111,20.81,-49.4,-9.79,1
1112,20.83,-56.16,-13.49,1
1113,20.84,-60.93,-11.27,1
1114,20.85,-65.37,-9.07,1
1115,20.87,-71.09,-12.81,1
1116,20.88,-74.21,-16.42,1
1117,20.89,-74.62,-13.54,1
1118,20.9,-75.59,-11.21,1
1119,20.92,-76.4,-19.77,1
1120,20.93,-78.13,-36.42,1
1121,20.94,-88.19,-41.14,1
1122,20.96,-100.37,-22.26,1
1123,20.97,-96.37,-4.29,1
1124,20.98,-80.02,-9.39,1
1125,21.0,-73.44,-18.02,1
1126,21.01,-77.91,-11.52,1
1127,21.02,-76.32,-4.42,1
1128,21.04,-70.55,-8.23,1
1129,21.05,-74.55,-10.66,1
1130,21.06,-83.02,-8.62,1
1131,21.08,-85.02,-11.25,1
1132,21.09,-81.51,-12.8,1
1133,21.1,-72.63,-8.93,1
1134,21.12,-62.83,-9.9,1
1135,21.13,-64.75,-12.83,1
1136,21.14,-71.32,-4.8,1
1137,21.16,-63.86,1.79,1
1138,21.17,-55.31,-6.96,1
1139,21.18,-66.91,-12.95,1
1140,21.2,-80.28,-8.22,1
1141,21.21,-71.83,-7.58,1
1142,21.23,-55.2,-6.61,1
1143,21.24,-51.01,1.91,1
1144,21.25,-54.04,3.9,1
1145,21.27,-47.87,-6.38,1
1146,21.28,-35.96,-13.86,1
1147,21.29,-34.59,-10.68,1
1148,21.31,-37.25,-10.51,1
1149,21.32,-25.52,-18.46,1
1150,21.33,-9.4,-18.05,1
1151,21.35,-13.77,-5.03,1
1152,21.36,-31.11,3.59,1
1153,21.37,-34.83,0.03,1
1154,21.39,-28.57,-4.93,1
1155,21.4,-29.79,-4.22,1
1156,21.41,-34.56,-1.56,1
1157,21.43,-33.91,1.09,1
1158,21.44,-25.42,0.97,1
1159,21.45,-8.94,-4.36,1
1160,21.47,3.31,-8.26,1
1161,21.48,-0.74,-4.46,1
1162,21.49,-10.94,2.88,1
1163,21.51,-13.16,8.01,1
1164,21.52,-10.38,9.8,1
1165,21.53,-11.78,6.67,1
1166,21.54,-13.32,-3.13,1
1167,21.56,-3.66,-10.62,1
1168,21.57,11.48,-3.06,1
1169,21.58,18.17,11.33,1
1170,21.6,16.54,11.54,1
1171,21.61,14.86,-2.14,1
1172,21.62,18.9,-8.6,1
1173,21.64,21.78,0.47,1
1174,21.65,12.94,7.04,1
1175,21.67,3.65,1.79,1
1176,21.68,12.48,-0.76,1
1177,21.69,31.23,2.19,1
1178,21.7,33.86,0.97,1
1179,21.72,18.77,-3.01,1
1180,21.73,14.43,-8.86,1
1181,21.75,30.8,-11.71,1
1182,21.76,45.86,2.05,1
1183,21.77,44.47,18.83,1
1184,21.78,33.8,12.43,1
1185,21.8,27.15,-4.98,1
1186,21.81,28.59,-7.54,1
1187,21.82,30.25,0.99,1
1188,21.84,31.3,8.39,1
1189,21.85,39.67,13.26,1
1190,21.865,45.32,10.47,1
1191,21.88,33.02,2.11,1
1192,21.89,18.88,1.44,1
1193,21.91,21.87,7.7,1
1194,21.92,27.41,9.13,1
1195,21.93,23.24,3.12,1
1196,21.95,17.06,-1.39,1
1197,21.96,11.03,-0.02,1
1198,21.97,11.77,1.66,1
1199,21.99,26.46,3.81,1
1200,22.0,36.41,9.45,1
1201,22.01,30.93,9.03,1
1202,22.03,26.62,-2.48,1
1203,22.04,24.15,-10.27,1
1204,22.05,12.4,-4.24,1
1205,22.07,4.11,7.25,1
1206,22.08,14.57,17.08,1
1207,22.09,29.53,20.24,1
1208,22.11,29.73,10.83,1
1209,22.12,24.99,-2.5,1
1210,22.13,30.55,-4.63,1
1211,22.15,38.88,4.06,1
1212,22.16,35.82,8.07,2
1213,22.17,19.33,-0.24,2
1214,22.18,16.24,-3.11,2
1215,22.2,73.57,15.55,2
1216,22.21,193.54,40.11,2
1217,22.22,313.12,51.16,2
1218,22.24,381.3,55.65,2
1219,22.25,394.0,57.35,2
1220,22.26,361.59,44.59,2
1221,22.28,306.11,24.57,2
1222,22.29,257.3,12.97,2
1223,22.3,221.25,3.89,2
1224,22.32,185.8,-7.32,2
1225,22.33,148.32,-14.43,2
1226,22.34,97.87,-23.39,2
1227,22.36,-9.34,-36.09,2
1228,22.37,-177.52,-41.28,2
1229,22.38,-315.9,-41.24,2
1230,22.4,-357.72,-37.88,2
1231,22.41,-346.8,-24.24,2
1232,22.42,-338.98,-9.67,2
1233,22.44,-332.97,-3.08,2
1234,22.45,-316.18,-1.29,2
1235,22.46,-295.67,-6.59,2
1236,22.48,-275.83,-12.08,2
1237,22.49,-250.87,-6.45,2
1238,22.5,-219.74,-0.22,2
1239,22.52,-191.93,-1.16,2
1240,22.53,-175.63,-1.66,2
1241,22.55,-168.41,-5.21,1
1242,22.56,-156.14,-13.85,1
1243,22.57,-127.67,-16.27,1
1244,22.59,-100.56,-10.3,1
1245,22.6,-95.17,-3.69,1
1246,22.61,-91.94,0.41,1
1247,22.63,-73.45,2.83,1
1248,22.64,-58.57,1.41,1
1249,22.65,-53.34,-8.37,1
1250,22.67,-41.63,-17.02,1
1251,22.68,-27.92,-9.47,1
1252,22.69,-18.33,3.05,1
1253,22.71,-4.81,1.71,1
1254,22.72,2.36,-4.33,1
1255,22.73,-5.72,-4.35,1
1256,22.75,-5.92,-6.32,1
1257,22.76,10.64,-12.13,1
1258,22.77,22.65,-10.42,1
1259,22.79,25.22,2.84,1
1260,22.8,31.91,13.04,1
1261,22.81,43.0,6.43,1
1262,22.82,45.27,-6.67,1
1263,22.84,34.58,-6.15,1
1264,22.85,26.04,2.63,1
1265,22.86,32.7,1.06,1
1266,22.88,45.04,-4.67,1
1267,22.89,51.53,-1.97,1
1268,22.9,58.5,4.43,1
1269,22.92,70.22,12.62,1
1270,22.93,78.8,19.76,1
1271,22.94,78.86,13.59,1
1272,22.96,71.14,0.92,1
1273,22.97,62.54,0.14,1
1274,22.98,62.23,5.14,1
1275,23.0,66.31,6.47,1
1276,23.01,67.63,12.28,1
1277,23.02,69.53,14.83,1
1278,23.04,71.87,1.87,1
1279,23.05,68.78,-8.29,1
1280,23.06,61.43,-5.68,1
1281,23.08,58.39,-8.09,1
1282,23.09,62.29,-16.69,1
1283,23.1,67.98,-14.4,1
1284,23.12,71.47,-0.96,1
1285,23.13,70.71,8.87,1
1286,23.14,63.71,10.29,1
1287,23.16,55.51,10.53,1
1288,23.17,52.09,10.46,1
1289,23.19,52.21,4.37,1
1290,23.2,53.24,-2.57,1
1291,23.21,52.2,0.71,1
1292,23.23,50.2,6.36,1
1293,23.24,49.68,0.76,1
1294,23.25,46.42,-8.49,1
1295,23.27,44.72,-10.84,1
1296,23.28,50.11,-6.32,1
1297,23.29,49.5,4.79,1
1298,23.31,38.14,15.31,1
1299,23.32,31.5,18.57,1
1300,23.33,28.69,17.44,1
1301,23.35,20.67,10.04,1
1302,23.36,19.01,-2.59,1
1303,23.37,30.03,-5.77,1
1304,23.39,35.01,5.1,1
1305,23.4,25.73,12.19,1
1306,23.41,18.61,3.17,1
1307,23.43,19.16,-9.02,1
1308,23.44,13.3,-6.64,1
1309,23.45,0.34,4.69,1
1310,23.46,-1.1,7.63,1
1311,23.48,9.95,2.77,1
1312,23.49,13.73,-0.93,1
1313,23.5,8.56,-3.31,1
1314,23.52,4.81,-3.17,1
1315,23.53,-0.54,1.32,1
1316,23.54,-8.98,6.67,1
1317,23.56,-10.37,8.49,1
1318,23.57,-2.17,3.63,1
1319,23.58,1.76,-3.94,1
1320,23.6,-9.25,-1.59,1
1321,23.61,-21.56,9.7,1
1322,23.62,-19.52,7.94,1
1323,23.64,-10.69,-8.03,1
1324,23.65,-8.96,-12.63,1
1325,23.67,-15.21,0.75,1
1326,23.68,-23.17,12.35,1
1327,23.69,-29.89,10.03,1
1328,23.7,-33.59,4.84,1
1329,23.72,-30.15,6.51,1
1330,23.73,-15.55,5.62,1
1331,23.75,0.85,-2.76,1
1332,23.76,-1.69,-3.8,1
1333,23.77,-18.8,5.65,1
1334,23.78,-22.71,5.06,1
1335,23.8,-13.45,-9.36,1
1336,23.81,-13.98,-16.89,1
1337,23.83,-24.73,-10.54,1
1338,23.84,-32.1,-0.73,1
1339,23.85,-38.68,3.93,1
1340,23.87,-43.44,2.32,1
1341,23.88,-34.29,-3.5,1
1342,23.89,-18.67,-11.51,1
1343,23.91,-15.56,-17.91,1
1344,23.92,-23.86,-19.52,1
1345,23.93,-29.68,-14.05,1
1346,23.95,-27.92,-2.5,1
1347,23.96,-25.14,5.8,1
1348,23.97,-26.31,4.14,1
1349,23.99,-27.08,-7.1,1
1350,24.0,-23.49,-23.92,1
1351,24.01,-20.95,-30.34,1
1352,24.03,-28.07,-15.51,1
1353,24.04,-43.46,1.68,1
1354,24.05,-50.55,3.89,1
1355,24.07,-38.96,2.44,1
1356,24.08,-23.4,9.41,1
1357,24.09,-15.29,19.73,1
1358,24.1,-11.01,21.9,1
1359,24.12,-15.67,20.53,1
1360,24.13,-24.65,45.01,1
1361,24.14,-20.35,113.02,1
1362,24.16,-15.51,193.93,1
1363,24.17,-12.93,243.06,1
1364,24.18,25.41,241.7,1
1365,24.2,76.19,210.12,1
1366,24.21,75.03,230.17,1
1367,24.22,-11.76,315.26,1
1368,24.24,-195.08,332.54,1
1369,24.25,-336.26,247.02,1
1370,24.26,-327.71,178.91,1
1371,24.28,-336.38,163.45,1
1372,24.29,-408.16,140.03,1
1373,24.3,-379.25,97.01,1
1374,24.32,-276.65,63.02,1
1375,24.33,-228.6,40.78,1
1376,24.34,-215.83,16.58,1
1377,24.36,-178.6,-10.38,1
1378,24.37,-131.01,-33.27,1
1379,24.38,-99.07,-51.83,1
1380,24.4,-74.08,-69.96,1
1381,24.41,-45.42,-87.68,1
1382,24.42,-17.3,-102.78,1
1383,24.44,6.7,-115.58,1
1384,24.45,28.04,-127.69,1
1385,24.46,59.93,-138.39,1
1386,24.48,140.32,-147.24,1
1387,24.49,310.54,-155.22,1
1388,24.51,542.52,-162.65,1
1389,24.52,677.7,-168.23,1
1390,24.53,621.39,-172.09,1
1391,24.55,526.67,-175.69,1
1392,24.56,474.53,-178.74,1
1393,24.57,371.05,-180.14,1
1394,24.59,295.64,-180.46,1
1395,24.6,401.18,-180.55,1
1396,24.61,578.03,-179.96,1
1397,24.63,520.97,-178.84,1
1398,24.64,172.36,-177.52,1
1399,24.65,-89.83,-181.72,1
1400,24.67,-53.63,-196.07,1
1401,24.68,-21.18,-196.75,1
1402,24.69,-130.96,-165.47,1
1403,24.71,-98.36,-138.88,1
1404,24.72,17.74,-142.87,1
1405,24.73,-132.35,-148.77,1
1406,24.75,-308.87,-180.19,1
1407,24.76,-103.16,-367.75,1
1408,24.77,170.79,-661.46,1
1409,24.78,39.24,-648.12,1
1410,24.8,-271.36,-198.58,1
1411,24.81,-250.75,64.02,1
1412,24.82,41.89,-238.7,1
1413,24.84,163.63,-453.72,1
1414,24.85,2.09,-93.8,1
1415,24.86,-213.77,248.0,1
1416,24.88,-257.05,93.39,1
1417,24.89,-49.79,-162.33,1
1418,24.9,266.63,-226.64,1
1419,24.92,366.03,-262.43,1
1420,24.93,57.58,-208.82,1
1421,24.94,-311.98,22.17,1
1422,24.96,-232.04,115.25,1
1423,24.97,162.76,-79.57,1
1424,24.98,321.0,-247.77,1
1425,25.0,116.98,-199.95,1
1426,25.01,-142.58,-98.61,1
1427,25.02,-292.05,-72.59,1
1428,25.04,-303.88,-92.02,1
1429,25.05,-82.7,-4.25,1
1430,25.06,220.45,242.42,1
1431,25.08,229.89,360.01,1
1432,25.09,-82.79,221.37,1
1433,25.1,-275.74,53.78,1
1434,25.12,-83.75,-36.14,1
1435,25.13,142.87,-101.43,1
1436,25.15,86.51,-185.88,1
1437,25.16,-5.88,-248.82,1
1438,25.17,130.71,-204.73,1
1439,25.19,341.08,-102.16,1
1440,25.2,384.08,-43.54,1
1441,25.21,285.15,-16.9,1
1442,25.23,205.45,25.56,1
1443,25.24,169.07,75.91,1
1444,25.25,79.27,113.49,1
1445,25.27,-75.04,143.47,1
1446,25.28,-198.62,174.41,1
1447,25.29,-256.02,203.28,1
1448,25.31,-284.88,227.64,1
1449,25.32,-295.7,250.0,1
1450,25.33,-287.9,270.47,1
1451,25.35,-279.83,301.92,1
1452,25.36,-278.59,376.59,1
1453,25.37,-271.43,480.81,1
1454,25.38,-254.37,541.08,1
1455,25.4,-245.34,539.45,1
1456,25.41,-246.05,529.98,1
1457,25.42,-231.07,533.52,1
1458,25.44,-201.48,529.41,1
1459,25.45,-184.36,514.84,1
1460,25.46,-179.53,500.61,1
1461,25.48,-171.87,481.86,1
1462,25.49,-163.6,451.39,1
1463,25.5,-154.88,418.66,1
1464,25.52,-136.65,392.91,1
1465,25.53,-117.31,375.83,1
1466,25.54,-111.77,364.03,1
1467,25.56,-109.73,344.45,1
1468,25.57,-95.12,314.88,1
1469,25.58,-79.68,287.7,1
1470,25.6,-77.53,265.23,1
1471,25.61,-75.76,240.9,1
1472,25.62,-62.12,217.44,1
1473,25.64,-49.33,202.47,1
1474,25.65,-46.21,191.84,1
1475,25.67,-40.3,171.18,1
1476,25.68,-22.53,139.4,1
1477,25.69,-4.33,111.34,1
1478,25.7,0.1,90.3,1
1479,25.72,-1.6,68.54,1
1480,25.73,3.53,46.45,1
1481,25.75,7.59,24.8,1
1482,25.76,7.05,6.6,1
1483,25.77,17.17,-1.29,1
1484,25.79,38.54,-7.35,1
1485,25.8,50.53,-25.16,1
1486,25.81,43.56,-48.09,1
1487,25.83,32.83,-63.16,1
1488,25.84,33.9,-73.69,1
1489,25.85,42.19,-87.46,1
1490,25.87,46.59,-101.63,1
1491,25.88,48.87,-113.8,1
1492,25.89,58.39,-126.44,1
1493,25.91,71.44,-140.15,1
1494,25.92,73.82,-153.16,1
1495,25.93,68.92,-159.48,1
1496,25.95,72.64,-156.93,1
1497,25.96,82.37,-159.52,1
1498,25.97,87.4,-174.05,1
1499,25.99,94.51,-185.96,1
1500,26.0,104.13,-189.34,1
1501,26.01,99.28,-188.74,1
1502,26.02,83.94,-182.6,1
1503,26.04,77.6,-179.62,1
1504,26.05,73.28,-189.71,1
1505,26.06,62.38,-198.54,1
1506,26.08,65.71,-195.73,1
1507,26.09,84.38,-196.73,1
1508,26.1,88.84,-209.91,1
1509,26.12,77.29,-220.73,1
1510,26.13,74.77,-219.17,1
1511,26.14,86.13,-212.59,1
1512,26.16,93.3,-209.91,2
1513,26.17,86.54,-210.93,2
1514,26.18,88.14,-207.32,2
1515,26.2,129.48,-193.91,2
1516,26.21,217.88,-179.64,2
1517,26.22,338.06,-171.09,2
1518,26.24,440.7,-167.24,2
1519,26.25,461.12,-175.91,2
1520,26.26,402.97,-193.07,2
1521,26.28,336.24,-198.44,2
1522,26.29,284.18,-193.05,2
1523,26.3,203.98,-188.39,2
1524,26.32,93.81,-182.97,2
1525,26.33,8.83,-177.5,2
1526,26.34,-31.28,-174.54,2
1527,26.36,-60.98,-169.2,2
1528,26.37,-106.47,-160.05,2
1529,26.38,-151.42,-156.17,2
1530,26.4,-173.09,-158.88,2
1531,26.41,-178.99,-152.82,2
1532,26.43,-184.15,-139.04,2
1533,26.44,-193.85,-134.75,2
1534,26.45,-203.71,-128.69,2
1535,26.47,-204.99,-104.78,2
1536,26.48,-199.63,-84.59,2
1537,26.49,-189.68,-81.74,2
1538,26.51,-171.3,-77.09,2
1539,26.52,-151.62,-68.23,2
1540,26.53,-138.77,-67.35,2
1541,26.55,-125.83,-63.62,1
1542,26.56,-106.16,-49.55,1
1543,26.57,-89.32,-40.65,1
1544,26.59,-87.52,-37.01,1
1545,26.6,-92.62,-23.28,1
1546,26.61,-84.82,-6.92,1
1547,26.63,-61.76,-6.52,1
1548,26.64,-42.67,-17.26,1
1549,26.65,-39.47,-17.33,1
1550,26.67,-35.33,-5.77,1
1551,26.68,-11.57,-1.27,1
1552,26.69,19.36,1.12,1
1553,26.7,32.15,15.11,1
1554,26.72,19.52,23.77,1
1555,26.73,-6.44,14.42,1
1556,26.75,-22.0,8.04,1
1557,26.76,-15.02,20.02,1
1558,26.77,-3.22,34.85,1
1559,26.78,-1.21,37.43,1
1560,26.8,4.55,33.34,1
1561,26.81,22.37,33.86,1
1562,26.82,33.92,38.54,1
1563,26.84,25.4,39.36,1
1564,26.85,13.82,39.63,1
1565,26.86,16.5,45.26,1
1566,26.88,22.82,48.52,1
1567,26.89,20.44,48.19,1
1568,26.9,17.04,54.22,1
1569,26.92,24.77,63.13,1
1570,26.93,35.19,66.03,1
1571,26.94,31.92,64.72,1
1572,26.96,25.73,63.58,1
1573,26.97,34.21,62.37,1
1574,26.98,45.49,59.07,1
1575,27.0,43.38,57.16,1
1576,27.01,36.82,59.53,1
1577,27.02,37.84,64.64,1
1578,27.04,37.2,71.97,1
1579,27.05,28.29,74.48,1
1580,27.065,23.61,66.37,1
1581,27.08,26.96,58.5,1
1582,27.09,29.7,59.71,1
1583,27.11,33.12,65.76,1
1584,27.12,36.93,73.85,1
1585,27.13,28.81,77.11,1
1586,27.15,16.61,65.65,1
1587,27.16,21.54,50.43,1
1588,27.17,35.15,55.81,1
1589,27.19,33.63,75.45,1
1590,27.2,20.5,77.13,1
1591,27.21,16.4,61.81,1
1592,27.23,21.2,59.16,1
1593,27.24,21.11,70.13,1
1594,27.25,21.16,73.46,1
1595,27.27,27.96,67.82,1
1596,27.28,28.44,64.3,1
1597,27.29,20.16,64.54,1
1598,27.3,15.2,65.94,1
1599,27.32,15.21,61.83,1
1600,27.33,16.85,50.19,1
1601,27.34,13.41,46.26,1
1602,27.36,0.89,55.05,1
1603,27.37,-6.28,60.29,1
1604,27.38,0.29,55.64,1
1605,27.4,2.9,47.71,1
1606,27.41,-2.1,41.21,1
1607,27.42,5.65,39.99,1
1608,27.44,16.55,42.67,1
1609,27.45,0.47,42.34,1
1610,27.46,-25.02,37.97,1
1611,27.48,-20.6,35.27,1
1612,27.49,-0.56,35.36,1
1613,27.5,-2.69,32.34,1
1614,27.52,-15.5,26.2,1
1615,27.53,-9.52,23.52,1
1616,27.54,0.82,22.51,1
1617,27.56,-5.43,20.32,1
1618,27.57,-8.54,22.75,1
1619,27.58,2.2,27.86,1
1620,27.6,0.55,26.17,1
1621,27.61,-16.11,19.78,1
1622,27.62,-18.92,17.74,1
1623,27.64,-10.59,19.96,1
1624,27.65,-14.23,19.34,1
1625,27.67,-20.56,14.54,1
1626,27.68,-13.97,12.1,1
1627,27.69,-10.14,13.54,1
1628,27.7,-17.05,8.85,1
1629,27.72,-15.52,-2.93,1
1630,27.73,-4.95,-6.32,1
1631,27.75,-6.32,-1.33,1
1632,27.76,-17.52,-4.14,1
1633,27.77,-18.59,-12.77,1
1634,27.79,-12.71,-13.94,1
1635,27.8,-12.75,-8.29,1
1636,27.81,-15.64,-2.66,1
1637,27.83,-19.54,-0.5,1
1638,27.84,-23.47,-8.55,1
1639,27.85,-20.18,-24.58,1
1640,27.87,-17.51,-27.7,1
1641,27.88,-21.75,-15.24,1
1642,27.89,-17.06,-9.15,1
1643,27.91,-5.24,-10.84,1
1644,27.92,-9.7,-7.17,1
1645,27.93,-24.49,-3.49,1
1646,27.94,-27.05,-7.08,1
1647,27.96,-21.0,-11.73,1
1648,27.97,-19.93,-9.03,1
1649,27.98,-23.18,-2.91,1
1650,28.0,-25.22,-6.87,1
1651,28.01,-23.84,-20.76,1
1652,28.02,-19.81,-25.58,1
1653,28.04,-20.05,-18.52,1
1654,28.05,-28.85,-14.28,1
1655,28.06,-34.23,-12.4,1
1656,28.08,-23.54,-10.14,1
1657,28.09,-6.14,-13.01,1
1658,28.1,0.58,-17.97,1
1659,28.12,-5.94,-21.57,1
1660,28.13,-15.09,-22.7,1
1661,28.14,-15.37,-16.37,1
1662,28.16,-11.96,-7.23,0
1663,28.17,-17.35,-8.83,0
1664,28.18,-21.3,-20.61,0
1665,28.2,-12.15,-25.4,0
1666,28.21,-4.26,-16.68,0
1667,28.22,-9.89,-12.02,0
1668,28.24,-28.57,-21.3,0
1669,28.25,-78.67,-21.98,0
1670,28.26,-174.96,-3.35,0
1671,28.28,-279.87,4.41,0
1672,28.29,-343.24,-10.74,0
1673,28.3,-360.31,-19.06,0
1674,28.32,-343.23,-17.94,0
1675,28.33,-297.29,-35.47,0
1676,28.34,-243.55,-60.98,0
1677,28.36,-203.0,-64.52,0
1678,28.37,-170.04,-51.97,0
1679,28.39,-118.92,-43.47,0
1680,28.4,-12.4,-39.28,0
1681,28.41,149.2,-29.17,0
1682,28.43,285.31,-11.76,0
1683,28.44,329.96,3.75,0
1684,28.45,322.66,6.71,0
1685,28.47,324.23,-2.86,0
1686,28.48,326.7,-11.26,0
1687,28.49,310.0,-9.23,0
1688,28.51,292.89,-4.29,0
1689,28.52,282.45,-5.64,0
1690,28.53,258.16,-5.73,0
1691,28.55,223.69,2.71,1
1692,28.56,201.39,6.13,1
1693,28.57,184.23,-3.54,1
1694,28.58,159.23,-9.94,1
1695,28.6,137.07,2.79,1
1696,28.61,116.6,22.59,1
1697,28.62,92.02,22.22,1
1698,28.64,81.29,2.03,1
1699,28.65,85.37,-11.77,1
1700,28.67,81.21,-8.56,1
1701,28.68,66.56,-1.26,1
1702,28.69,57.3,0.55,1
1703,28.7,57.46,0.62,1
1704,28.72,56.17,-0.66,1
1705,28.73,45.91,-5.66,1
1706,28.75,32.33,-6.96,1
1707,28.76,22.87,-3.45,1
1708,28.77,20.01,-5.75,1
1709,28.78,19.06,-9.63,1
1710,28.8,8.52,-6.79,1
1711,28.81,-7.95,-5.75,1
1712,28.82,-16.32,-10.8,1
1713,28.84,-18.83,-16.52,1
1714,28.85,-24.24,-17.6,1
1715,28.86,-32.33,-8.34,1
1716,28.88,-37.11,3.31,1
1717,28.89,-38.64,3.15,1
1718,28.9,-47.21,-1.33,1
1719,28.92,-59.67,3.35,1
1720,28.93,-59.62,9.06,1
1721,28.94,-54.1,4.29,1
1722,28.96,-62.47,-2.58,1
1723,28.97,-75.19,1.22,1
1724,28.98,-72.01,12.79,1
1725,29.0,-60.21,15.5,1
1726,29.01,-59.34,4.4,1
1727,29.03,-66.23,-3.12,1
1728,29.04,-67.27,1.3,1
1729,29.05,-64.99,7.11,1
1730,29.07,-64.98,6.58,1
1731,29.08,-63.54,-0.72,1
1732,29.09,-64.07,-6.13,1
1733,29.11,-70.86,0.38,1
1734,29.12,-73.18,6.15,1
1735,29.13,-67.27,-3.65,1
1736,29.15,-64.7,-9.14,1
1737,29.16,-66.29,4.7,1
1738,29.17,-65.43,16.13,1
1739,29.19,-61.95,12.53,1
1740,29.2,-56.66,6.23,1
1741,29.21,-55.66,2.76,1
1742,29.22,-60.15,-0.69,1
1743,29.24,-56.42,-3.37,1
1744,29.25,-50.26,-2.55,1
1745,29.26,-59.84,2.84,1
1746,29.28,-66.14,8.94,1
1747,29.29,-50.52,11.58,1
1748,29.3,-39.97,11.55,1
1749,29.32,-50.25,8.94,1
1750,29.33,-60.41,2.5,1
1751,29.34,-59.57,-1.82,1
1752,29.36,-52.83,1.74,1
1753,29.37,-43.56,7.21,1
1754,29.38,-35.85,6.62,1
1755,29.4,-33.32,0.17,1
1756,29.41,-31.1,-3.48,1
1757,29.42,-22.3,3.3,1
1758,29.44,-17.39,12.32,1
1759,29.45,-27.81,13.37,1
1760,29.46,-33.14,7.27,1
1761,29.48,-17.35,-3.5,1
1762,29.49,-4.68,-11.02,1
1763,29.5,-9.77,-7.14,1
1764,29.52,-11.31,-2.34,1
1765,29.53,-3.12,-2.11,1
1766,29.54,-0.45,8.2,1
1767,29.56,-4.7,22.87,1
1768,29.57,-7.07,19.46,1
1769,29.58,-4.84,3.68,1
1770,29.6,-1.65,-4.81,1
1771,29.61,0.88,-2.99,1
1772,29.62,5.03,1.95,1
1773,29.64,8.83,3.37,1
1774,29.65,9.71,1.68,1
1775,29.67,6.37,4.53,1
1776,29.68,-0.86,8.92,1
1777,29.69,0.16,7.4,1
1778,29.71,14.41,7.24,1
1779,29.72,21.71,10.28,1
1780,29.73,12.47,6.46,1
1781,29.75,7.16,0.75,1
1782,29.76,16.15,2.11,1
1783,29.77,21.0,5.03,1
1784,29.79,11.58,3.66,1
1785,29.8,7.09,0.45,1
1786,29.81,19.69,-4.63,1
1787,29.83,31.71,-8.21,1
1788,29.84,29.74,-2.59,1
1789,29.85,26.28,3.1,1
1790,29.86,28.01,0.31,1
1791,29.88,25.8,0.09,1
1792,29.89,21.23,3.58,1
1793,29.9,22.35,1.6,1
1794,29.92,23.59,1.75,1
1795,29.93,20.63,5.38,1
1796,29.94,22.72,-2.54,1
1797,29.96,30.52,-15.07,1
1798,29.97,28.34,-13.27,1
1799,29.98,18.59,-1.44,1
1800,30.0,22.16,7.02,1
1801,30.01,35.21,9.32,1
1802,30.02,36.74,10.9,1
1803,30.04,29.62,11.65,1
1804,30.05,25.05,2.87,1
1805,30.06,20.38,-7.36,1
1806,30.08,15.2,-5.16,1
1807,30.09,16.68,0.81,1
1808,30.1,25.15,2.47,1
1809,30.12,29.93,5.34,1
1810,30.13,27.5,7.05,1
1811,30.14,28.46,5.5,1
1812,30.16,33.62,3.65,0
1813,30.17,19.44,-2.96,0
1814,30.18,-45.06,-13.3,0
1815,30.2,-163.87,-19.93,0
1816,30.21,-291.6,-22.43,0
1817,30.22,-364.75,-20.56,0
1818,30.24,-353.89,-20.36,0
1819,30.25,-278.12,-32.31,0
1820,30.26,-181.55,-39.74,0
1821,30.28,-104.52,-26.27,0
1822,30.29,-56.54,-17.07,0
1823,30.3,-6.65,-22.74,0
1824,30.32,63.15,-15.17,0
1825,30.33,118.3,-0.25,0
1826,30.35,139.2,-0.93,0
1827,30.36,161.27,5.67,0
1828,30.37,202.09,27.16,0
1829,30.39,228.4,28.38,0
1830,30.4,221.14,11.99,0
1831,30.41,207.64,8.2,0
1832,30.43,209.2,12.71,0
1833,30.44,213.72,11.82,0
1834,30.45,210.16,7.25,0
1835,30.47,202.15,4.16,0
1836,30.48,193.62,9.69,0
1837,30.49,184.88,20.92,0
1838,30.5,172.59,24.5,0
1839,30.52,154.19,17.47,0
1840,30.53,136.33,7.58,0
1841,30.54,127.48,10.32,0
1842,30.56,122.51,29.95,1
1843,30.57,110.3,40.08,1
1844,30.58,94.51,29.19,1
1845,30.6,89.23,21.8,1
1846,30.61,92.48,23.72,1
1847,30.62,87.0,20.87,1
1848,30.64,68.56,18.12,1
1849,30.65,48.8,20.55,1
1850,30.67,37.5,19.55,1
1851,30.68,36.34,14.22,1
1852,30.69,33.7,10.77,1
1853,30.7,9.45,12.09,1
1854,30.72,-32.55,15.31,1
1855,30.73,-57.61,13.68,1
1856,30.75,-48.84,6.1,1
1857,30.76,-27.33,-2.12,1
1858,30.77,-13.07,-9.33,1
1859,30.78,-8.24,-15.69,1
1860,30.8,-15.45,-16.18,1
1861,30.81,-32.69,-9.63,1
1862,30.82,-45.9,-4.96,1
1863,30.84,-49.57,-1.51,1
1864,30.85,-51.4,0.61,1
1865,30.86,-54.18,-12.3,1
1866,30.88,-58.32,-29.73,1
1867,30.89,-65.08,-27.01,1
1868,30.9,-69.21,-17.05,1
1869,30.92,-67.42,-17.57,1
1870,30.93,-65.17,-13.05,1
1871,30.94,-66.35,-2.42,1
1872,30.96,-67.51,-2.2,1
1873,30.97,-69.88,-3.73,1
1874,30.99,-81.96,-3.58,1
1875,31.0,-95.45,-15.56,1
1876,31.01,-96.19,-25.36,1
1877,31.03,-89.12,-11.21,1
1878,31.04,-82.72,8.2,1
1879,31.05,-82.94,5.21,1
1880,31.07,-87.89,-7.17,1
1881,31.08,-84.34,-4.43,1
1882,31.09,-76.13,1.86,1
1883,31.11,-76.95,-6.09,1
1884,31.12,-79.92,-18.2,1
1885,31.13,-81.36,-21.63,1
1886,31.14,-91.0,-17.33,1
1887,31.16,-95.84,-12.73,1
1888,31.17,-81.53,-13.46,1
1889,31.18,-67.49,-16.44,1
1890,31.2,-62.49,-18.02,1
1891,31.21,-50.58,-18.46,1
1892,31.22,-39.93,-20.04,1
1893,31.24,-45.65,-21.38,1
1894,31.25,-54.32,-17.44,1
1895,31.26,-52.55,-8.61,1
1896,31.28,-48.08,2.53,1
1897,31.29,-46.68,7.17,1
1898,31.3,-40.22,-1.36,1
1899,31.32,-26.12,-10.5,1
1900,31.33,-17.14,-12.04,1
1901,31.34,-19.92,-10.13,1
1902,31.36,-26.44,-7.6,1
1903,31.37,-31.12,-10.32,1
1904,31.38,-30.56,-16.04,1
1905,31.4,-22.33,-10.74,1
1906,31.41,-19.6,3.88,1
1907,31.42,-30.53,10.93,1
1908,31.44,-39.8,4.55,1
1909,31.45,-35.18,-7.3,1
1910,31.46,-20.12,-15.99,1
1911,31.48,-5.45,-14.29,1
1912,31.49,-3.99,-3.84,1
1913,31.5,-11.51,1.95,1
1914,31.52,-9.47,0.22,1
1915,31.53,2.39,-1.77,1
1916,31.54,14.23,-4.01,1
1917,31.56,25.07,-3.61,1
1918,31.57,23.05,3.35,1
1919,31.58,4.97,8.02,1
1920,31.6,-1.19,1.01,1
1921,31.61,9.61,-11.42,1
1922,31.63,11.58,-10.63,1
1923,31.64,7.44,6.9,1
1924,31.65,16.17,15.82,1
1925,31.67,25.19,4.88,1
1926,31.68,14.64,-0.14,1
1927,31.69,-0.46,8.93,1
1928,31.71,1.58,8.7,1
1929,31.72,13.18,-0.47,1
1930,31.73,20.69,-1.39,1
1931,31.75,23.08,2.66,1
1932,31.76,23.62,4.33,1
1933,31.77,26.59,7.44,1
1934,31.78,27.87,13.5,1
1935,31.8,22.32,14.86,1
1936,31.81,21.99,8.3,1
1937,31.82,30.32,6.93,1
1938,31.84,32.44,12.94,1
1939,31.85,29.91,9.05,1
1940,31.86,32.07,-1.46,1
1941,31.88,29.77,4.3,1
1942,31.89,17.88,20.72,1
1943,31.9,12.59,17.59,1
1944,31.92,22.49,-3.56,1
1945,31.93,34.44,-11.93,1
1946,31.94,38.41,0.1,1
1947,31.96,40.56,14.29,1
1948,31.97,43.66,14.28,1
1949,31.98,38.03,3.33,1
1950,32.0,28.08,1.65,1
1951,32.01,29.65,13.36,1
1952,32.03,33.32,18.53,1
1953,32.04,23.69,13.2,1
1954,32.05,12.75,10.73,1
1955,32.06,15.63,6.47,1
1956,32.08,26.64,-3.1,1
1957,32.09,29.58,-3.63,1
1958,32.11,21.75,-0.35,1
1959,32.12,17.75,-5.93,1
1960,32.13,22.9,-4.44,1
1961,32.15,23.79,9.75,1
1962,32.16,16.86,14.81,2
1963,32.17,13.68,6.15,2
1964,32.19,14.7,0.87,2
1965,32.2,20.38,5.69,2
1966,32.21,55.35,18.36,2
1967,32.22,144.37,33.38,2
1968,32.24,268.5,39.2,2
1969,32.25,371.35,37.36,2
1970,32.27,409.06,39.77,2
1971,32.28,380.25,42.0,2
1972,32.29,320.71,34.15,2
1973,32.31,269.75,19.55,2
1974,32.32,233.29,5.79,2
1975,32.33,196.76,-5.49,2
1976,32.35,157.42,-18.44,2
1977,32.36,115.66,-30.59,2
1978,32.37,39.98,-37.07,2
1979,32.39,-106.73,-39.06,2
1980,32.4,-273.92,-34.45,2
1981,32.41,-354.81,-26.49,2
1982,32.43,-350.75,-24.76,2
1983,32.44,-351.24,-26.01,2
1984,32.45,-366.19,-24.98,2
1985,32.47,-348.8,-20.44,2
1986,32.48,-310.89,-11.48,2
1987,32.49,-286.14,-6.64,2
1988,32.51,-266.36,-8.07,2
1989,32.52,-235.97,-4.59,2
1990,32.53,-206.36,0.0,2
1991,32.54,-193.82,-7.14,2
1992,32.56,-184.48,-16.42,1
1993,32.57,-155.89,-9.01,1
1994,32.59,-123.87,4.02,1
1995,32.6,-112.78,-0.28,1
1996,32.61,-110.64,-13.05,1
1997,32.63,-98.65,-10.94,1
1998,32.64,-77.9,1.35,1
1999,32.65,-60.01,3.11,1
2000,32.67,-52.29,-1.51,1
2001,32.68,-46.09,6.07,1
2002,32.69,-25.62,20.48,1
2003,32.71,13.85,18.22,1
2004,32.72,55.19,-2.96,1
2005,32.73,64.6,-18.69,1
2006,32.75,34.2,-17.86,1
2007,32.76,1.52,-11.44,1
2008,32.77,-5.35,-2.16,1
2009,32.79,0.25,7.46,1
2010,32.8,5.8,5.03,1
2011,32.81,13.21,-4.69,1
2012,32.83,15.92,-6.22,1
2013,32.84,16.22,-2.23,1
2014,32.85,24.5,-2.29,1
2015,32.87,30.74,-1.59,1
2016,32.88,31.46,5.93,1
2017,32.89,44.16,8.49,1
2018,32.9,62.89,-1.61,1
2019,32.92,67.22,-4.89,1
2020,32.93,60.74,8.15,1
2021,32.95,51.75,15.03,1
2022,32.96,43.98,6.77,1
2023,32.97,50.0,1.93,1
2024,32.99,67.75,2.27,1
2025,33.0,73.74,-4.46,1
2026,33.01,65.89,-13.17,1
2027,33.03,64.32,-12.15,1
2028,33.04,69.96,1.92,1
2029,33.05,68.22,15.49,1
2030,33.06,56.66,10.41,1
2031,33.08,51.45,-1.11,1
2032,33.09,65.0,1.61,1
2033,33.11,77.95,6.24,1
2034,33.12,71.69,3.53,1
2035,33.13,63.12,5.71,1
2036,33.15,66.54,7.19,1
2037,33.16,70.06,-3.45,1
2038,33.17,62.22,-11.01,1
2039,33.19,50.67,-3.82,1
2040,33.2,49.66,5.78,1
2041,33.21,55.26,10.21,1
2042,33.22,50.36,10.16,1
2043,33.24,40.91,5.73,1
2044,33.25,47.99,4.23,1
2045,33.27,63.86,5.28,1
2046,33.28,66.22,2.97,1
2047,33.29,57.87,5.53,1
2048,33.31,52.11,11.98,1
2049,33.32,47.34,9.9,1
2050,33.33,37.91,2.42,1
2051,33.35,28.15,-1.95,1
2052,33.36,32.13,-4.03,1
2053,33.37,46.88,-5.48,1
2054,33.38,43.71,-5.06,1
2055,33.4,21.88,0.1,1
2056,33.41,12.68,10.11,1
2057,33.43,17.71,13.67,1
2058,33.44,21.18,4.53,1
2059,33.45,22.01,-2.96,1
2060,33.47,16.77,1.09,1
2061,33.48,5.82,6.46,1
2062,33.49,1.63,4.09,1
2063,33.51,8.07,-1.5,1
2064,33.52,15.14,-1.57,1
2065,33.53,12.9,5.53,1
2066,33.54,7.9,11.89,1
2067,33.56,11.07,10.88,1
2068,33.57,12.78,7.67,1
2069,33.59,-1.46,7.51,1
2070,33.6,-18.14,3.62,1
2071,33.61,-16.43,-3.46,1
2072,33.63,-8.62,-3.89,1
2073,33.64,-12.28,-4.36,1
2074,33.65,-14.37,-10.9,1
2075,33.67,-7.0,-8.59,1
2076,33.68,-8.5,6.97,1
2077,33.69,-20.44,11.66,1
2078,33.71,-24.1,-4.68,1
2079,33.72,-19.35,-12.76,1
2080,33.73,-22.56,1.17,1
2081,33.75,-30.14,7.06,1
2082,33.76,-22.49,-4.13,1
2083,33.77,-7.03,-4.59,1
2084,33.79,-7.32,6.19,1
2085,33.8,-18.37,3.38,1
2086,33.81,-23.68,-5.6,1
2087,33.83,-28.09,-4.54,1
2088,33.84,-38.47,-10.39,1
2089,33.85,-42.34,-24.44,1
2090,33.87,-31.83,-18.96,1
2091,33.88,-22.87,-3.14,1
2092,33.89,-25.59,-6.84,1
2093,33.9,-27.96,-17.91,1
2094,33.92,-27.26,-10.29,1
2095,33.93,-31.07,5.61,1
2096,33.95,-34.28,4.63,1
2097,33.96,-29.95,-9.47,1
2098,33.97,-20.7,-13.73,1
2099,33.99,-18.04,-2.8,1
2100,34.0,-30.15,6.84,1
2101,34.01,-41.96,4.48,1
2102,34.03,-37.93,-3.76,1
2103,34.04,-33.62,-10.26,1
2104,34.05,-42.72,-12.15,1
2105,34.06,-46.09,-7.76,1
2106,34.08,-32.06,3.56,1
2107,34.09,-21.84,14.0,1
2108,34.11,-22.21,8.16,1
2109,34.12,-17.16,-6.39,1
2110,34.13,-11.85,-4.11,1
2111,34.15,-19.22,10.11,1
2112,34.16,-24.26,14.22,1
2113,34.17,-16.17,34.89,1
2114,34.19,-3.06,130.97,1
2115,34.2,-16.93,287.84,1
2116,34.21,-81.03,403.05,1
2117,34.23,-90.28,409.59,1
2118,34.24,5.54,344.59,1
2119,34.25,21.73,282.63,1
2120,34.27,-144.12,247.24,1
2121,34.28,-349.17,214.03,1
2122,34.29,-414.47,172.5,1
2123,34.31,-345.98,134.25,1
2124,34.32,-299.74,103.32,1
2125,34.33,-301.56,74.15,1
2126,34.35,-264.1,45.31,1
2127,34.36,-189.75,18.66,1
2128,34.37,-94.11,-5.37,1
2129,34.38,55.97,-27.34,1
2130,34.4,206.87,-47.34,1
2131,34.41,284.38,-65.96,1
2132,34.43,342.92,-83.55,1
2133,34.44,327.47,-99.41,1
2134,34.45,108.52,-113.34,1
2135,34.47,-54.74,-125.49,1
2136,34.48,118.72,-135.98,1
2137,34.49,350.39,-144.79,1
2138,34.51,259.97,-153.04,1
2139,34.52,-16.94,-160.9,1
2140,34.53,-8.95,-167.08,1
2141,34.54,312.97,-171.56,1
2142,34.56,406.53,-175.42,1
2143,34.57,93.29,-178.48,1
2144,34.59,-145.8,-194.97,1
2145,34.6,17.31,-277.75,1
2146,34.61,289.16,-423.44,1
2147,34.63,293.47,-450.82,1
2148,34.64,172.37,-251.83,1
2149,34.65,175.67,-58.76,1
2150,34.67,212.12,-69.09,1
2151,34.68,200.86,-135.99,1
2152,34.69,147.33,-155.9,1
2153,34.71,-0.96,-264.25,1
2154,34.72,-101.98,-415.04,1
2155,34.73,1.64,-363.41,1
2156,34.75,108.5,-233.11,1
2157,34.76,94.64,-327.46,1
2158,34.77,108.67,-523.12,1
2159,34.79,118.54,-577.81,1
2160,34.8,30.53,-471.34,1
2161,34.81,-9.71,-258.54,1
2162,34.83,83.25,-43.87,1
2163,34.84,155.84,54.26,1
2164,34.85,91.88,1.54,1
2165,34.87,-60.41,-91.63,1
2166,34.88,-156.05,-136.75,1
2167,34.89,-148.37,-143.06,1
2168,34.91,-145.98,-16.09,1
2169,34.92,-103.49,222.49,1
2170,34.93,-16.98,279.49,1
2171,34.95,-114.2,114.09,1
2172,34.96,-282.02,20.73,1
2173,34.97,-228.94,18.88,1
2174,34.99,-108.76,-25.54,1
2175,35.0,-118.68,0.23,1
2176,35.01,-198.92,82.45,1
2177,35.03,-290.07,24.05,1
2178,35.04,-256.84,-154.02,1
2179,35.05,-55.97,-290.2,1
2180,35.06,95.41,-315.57,1
2181,35.08,171.57,-260.2,1
2182,35.09,308.07,-186.43,1
2183,35.11,390.6,-129.66,1
2184,35.12,279.3,-84.01,1
2185,35.13,97.59,-36.48,1
2186,35.15,-3.94,10.71,1
2187,35.16,-54.56,51.86,1
2188,35.17,-110.86,88.4,1
2189,35.19,-148.14,122.84,1
2190,35.2,-150.93,155.3,1
2191,35.21,-144.21,184.7,1
2192,35.22,-139.45,214.49,1
2193,35.24,-132.17,262.15,1
2194,35.25,-131.68,340.99,1
2195,35.27,-145.3,423.66,1
2196,35.28,-150.39,472.98,1
2197,35.29,-129.21,493.84,1
2198,35.31,-103.26,499.71,1
2199,35.32,-94.67,485.91,1
2200,35.33,-97.22,465.53,1
2201,35.35,-100.7,465.23,1
2202,35.36,-100.71,477.83,1
2203,35.37,-95.23,472.02,1
2204,35.38,-87.26,448.78,1
2205,35.4,-75.53,433.16,1
2206,35.41,-60.22,424.28,1
2207,35.43,-56.84,404.47,1
2208,35.44,-69.99,375.5,1
2209,35.45,-78.59,351.68,1
2210,35.47,-70.9,333.68,1
2211,35.48,-56.59,311.95,1
2212,35.49,-39.42,286.2,1
2213,35.51,-19.4,265.36,1
2214,35.52,-6.42,251.71,1
2215,35.53,-6.71,238.3,1
2216,35.55,-11.11,222.05,1
2217,35.56,-11.22,198.84,1
2218,35.57,-10.47,167.95,1
2219,35.59,-6.32,142.13,1
2220,35.6,5.53,126.78,1
2221,35.61,12.64,113.96,1
2222,35.63,8.88,98.71,1
2223,35.64,9.43,82.07,1
2224,35.65,16.2,66.59,1
2225,35.67,18.08,51.59,1
2226,35.68,22.16,33.88,1
2227,35.69,29.22,17.11,1
2228,35.71,22.83,6.5,1
2229,35.72,12.56,-5.41,1
2230,35.73,19.9,-25.13,1
2231,35.75,37.01,-45.42,1
2232,35.76,43.23,-61.18,1
2233,35.77,38.01,-72.62,1
2234,35.79,35.83,-82.15,1
2235,35.8,39.78,-96.38,1
2236,35.81,42.41,-112.84,1
2237,35.83,42.17,-120.5,1
2238,35.84,41.33,-120.61,1
2239,35.85,40.26,-121.81,1
2240,35.87,38.4,-124.77,1
2241,35.88,36.12,-131.01,1
2242,35.89,38.73,-144.04,1
2243,35.9,50.68,-159.63,1
2244,35.92,61.75,-169.68,1
2245,35.93,59.52,-167.89,1
2246,35.95,51.07,-160.28,1
2247,35.96,47.92,-162.89,1
2248,35.97,46.34,-175.49,1
2249,35.99,43.11,-180.38,1
2250,36.0,44.33,-173.73,1
2251,36.01,49.07,-170.92,1
2252,36.03,48.67,-179.52,1
2253,36.04,40.57,-187.95,1
2254,36.05,32.49,-186.48,1
2255,36.06,30.04,-183.69,1
2256,36.08,33.58,-187.73,1
2257,36.09,42.96,-189.46,1
2258,36.11,49.15,-183.27,1
2259,36.12,46.7,-178.72,1
2260,36.13,48.62,-178.39,1
2261,36.15,51.89,-177.18,1
2262,36.16,39.57,-180.21,2
2263,36.17,26.74,-185.63,2
2264,36.19,42.38,-171.23,2
2265,36.2,110.22,-139.4,2
2266,36.21,242.04,-124.39,2
2267,36.23,379.4,-131.27,2
2268,36.24,430.62,-140.98,2
2269,36.25,390.59,-149.63,2
2270,36.27,325.29,-152.96,2
2271,36.28,268.24,-149.27,2
2272,36.29,200.41,-147.84,2
2273,36.31,109.71,-146.3,2
2274,36.32,22.76,-138.3,2
2275,36.33,-32.72,-130.45,2
2276,36.35,-73.01,-130.52,2
2277,36.36,-121.12,-134.44,2
2278,36.37,-157.98,-130.33,2
2279,36.38,-169.9,-118.59,2
2280,36.4,-183.35,-116.27,2
2281,36.41,-205.69,-121.84,2
2282,36.43,-216.8,-112.56,2
2283,36.44,-213.31,-93.36,2
2284,36.45,-204.12,-86.13,2
2285,36.47,-191.49,-81.84,2
2286,36.48,-183.27,-67.93,2
2287,36.49,-185.0,-54.21,2
2288,36.51,-186.94,-41.2,2
2289,36.52,-183.46,-26.86,2
2290,36.53,-176.3,-21.2,2
2291,36.54,-163.3,-18.99,2
2292,36.56,-149.16,-13.19,1
2293,36.57,-139.45,-15.79,1
2294,36.59,-128.86,-23.16,1
2295,36.6,-116.83,-15.8,1
2296,36.61,-106.59,4.33,1
2297,36.63,-94.99,21.08,1
2298,36.64,-81.5,25.58,1
2299,36.65,-68.42,21.12,1
2300,36.67,-53.93,21.97,1
2301,36.68,-40.32,30.46,1
2302,36.69,-28.46,30.04,1
2303,36.71,-13.17,21.66,1
2304,36.72,-2.79,24.0,1
2305,36.73,-5.26,34.78,1
2306,36.75,-8.14,39.13,1
2307,36.76,-5.01,36.41,1
2308,36.77,3.81,38.32,1
2309,36.79,20.13,47.37,1
2310,36.8,30.45,46.33,1
2311,36.81,25.34,34.58,1
2312,36.83,21.34,36.04,1
2313,36.84,30.24,49.12,1
2314,36.85,42.47,55.07,1
2315,36.87,43.94,57.3,1
2316,36.88,34.75,57.18,1
2317,36.89,27.41,47.19,1
2318,36.9,30.81,42.12,1
2319,36.92,44.4,54.18,1
2320,36.93,58.06,64.22,1
2321,36.95,56.03,61.62,1
2322,36.96,42.97,59.17,1
2323,36.97,42.43,58.23,1
2324,36.99,53.86,53.98,1
2325,37.0,57.16,53.81,1
2326,37.01,54.81,60.94,1
2327,37.03,56.48,69.26,1
2328,37.04,52.21,68.71,1
2329,37.05,43.18,58.01,1
2330,37.06,47.0,56.68,1
2331,37.08,57.49,73.33,1
2332,37.09,58.57,81.33,1
2333,37.11,54.85,64.8,1
2334,37.12,51.12,48.5,1
2335,37.13,47.07,51.29,1
2336,37.15,49.21,59.21,1
2337,37.16,54.9,59.33,1
2338,37.17,54.16,56.39,1
2339,37.19,49.28,54.63,1
2340,37.2,47.03,49.73,1
2341,37.21,47.77,44.55,1
2342,37.22,44.9,49.67,1
2343,37.24,30.6,59.44,1
2344,37.25,16.22,59.98,1
2345,37.27,23.16,54.38,1
2346,37.28,38.69,52.21,1
2347,37.29,33.08,51.78,1
2348,37.31,19.58,45.86,1
2349,37.32,28.03,35.08,1
2350,37.33,45.14,29.92,1
2351,37.35,42.33,36.68,1
2352,37.36,25.85,44.04,1
2353,37.37,20.01,41.48,1
2354,37.38,23.72,39.42,1
2355,37.4,17.63,44.65,1
2356,37.41,4.19,43.81,1
2357,37.43,-0.5,32.22,1
2358,37.44,3.51,24.73,1
2359,37.45,6.77,27.08,1
2360,37.47,0.86,28.56,1
2361,37.48,-7.72,22.96,1
2362,37.49,-3.08,15.07,1
2363,37.51,7.79,8.7,1
2364,37.52,8.2,8.35,1
2365,37.53,2.88,18.52,1
2366,37.54,3.92,26.75,1
2367,37.56,9.19,18.74,1
2368,37.57,8.11,7.47,1
2369,37.59,-0.68,10.98,1
2370,37.6,-7.48,16.54,1
2371,37.61,-6.12,9.81,1
2372,37.63,-2.6,5.71,1
2373,37.64,-4.44,10.27,1
2374,37.65,-10.09,9.65,1
2375,37.67,-14.11,6.38,1
2376,37.68,-13.42,5.75,1
2377,37.69,-12.19,-0.15,1
2378,37.71,-17.73,-7.37,1
2379,37.72,-26.45,-4.55,1
2380,37.73,-28.22,4.39,1
2381,37.75,-20.77,5.33,1
2382,37.76,-15.67,-4.71,1
2383,37.77,-19.63,-8.72,1
2384,37.79,-18.88,-0.22,1
2385,37.8,-11.18,1.61,1
2386,37.81,-11.88,-6.94,1
2387,37.83,-16.41,-6.3,1
2388,37.84,-11.41,2.6,1
2389,37.85,-6.63,-0.29,1
2390,37.87,-15.11,-15.19,1
2391,37.88,-26.49,-23.34,1
2392,37.89,-23.03,-18.1,1
2393,37.9,-11.93,-9.63,1
2394,37.92,-13.83,-7.36,1
2395,37.93,-23.77,-11.6,1
2396,37.95,-22.47,-15.21,1
2397,37.96,-16.97,-11.33,1
2398,37.97,-18.08,-5.63,1
2399,37.99,-13.66,-11.08,1
2400,38.0,-3.26,-25.24,1
2401,38.01,-6.54,-28.35,1
2402,38.03,-25.4,-15.08,1
2403,38.04,-38.58,-6.15,1
2404,38.05,-36.28,-14.84,1
2405,38.06,-34.8,-25.74,1
2406,38.08,-39.5,-23.82,1
2407,38.09,-34.58,-16.3,1
2408,38.11,-24.49,-16.6,1
2409,38.12,-27.36,-24.41,1
2410,38.13,-34.16,-26.23,1
2411,38.15,-26.31,-18.88,1
2412,38.16,-12.63,-16.51,0
2413,38.17,-14.28,-20.03,0
2414,38.19,-25.89,-17.83,0
2415,38.2,-27.13,-17.39,0
2416,38.21,-17.75,-25.43,0
2417,38.22,-13.0,-28.64,0
2418,38.24,-14.85,-24.42,0
2419,38.25,-14.92,-18.8,0
2420,38.27,-35.56,-6.6,0
2421,38.28,-111.01,5.26,0
2422,38.29,-214.32,6.68,0
2423,38.31,-289.62,5.07,0
2424,38.32,-330.67,-3.45,0
2425,38.33,-349.95,-22.55,0
2426,38.35,-335.3,-30.38,0
2427,38.36,-287.02,-28.88,0
2428,38.37,-235.06,-43.39,0
2429,38.38,-197.04,-57.13,0
2430,38.4,-163.8,-38.72,0
2431,38.41,-120.02,-13.16,0
2432,38.43,-40.07,-15.34,0
2433,38.44,96.14,-23.19,0
2434,38.45,246.93,-12.79,0
2435,38.47,333.54,-0.45,0
2436,38.48,341.84,2.49,0
2437,38.49,325.23,3.9,0
2438,38.51,318.54,7.49,0
2439,38.52,311.93,8.76,0
2440,38.53,295.52,4.48,0
2441,38.54,280.0,3.38,0
2442,38.56,265.02,10.04,1
2443,38.57,239.48,13.7,1
2444,38.59,213.79,15.04,1
2445,38.6,200.19,19.51,1
2446,38.61,188.14,14.21,1
2447,38.63,168.49,1.75,1
2448,38.64,147.89,0.92,1
2449,38.65,134.8,3.19,1
2450,38.67,127.1,-2.78,1
2451,38.68,111.22,-6.13,1
2452,38.69,85.5,-6.59,1
2453,38.71,70.0,-13.0,1
2454,38.72,66.54,-19.81,1
2455,38.73,54.05,-21.18,1
2456,38.75,36.47,-18.39,1
2457,38.76,32.28,-12.13,1
2458,38.77,32.07,-8.27,1
2459,38.79,19.56,-9.59,1
2460,38.8,5.44,-6.11,1
2461,38.81,5.23,4.62,1
2462,38.83,8.68,9.99,1
2463,38.84,-5.22,6.32,1
2464,38.85,-31.76,2.01,1
2465,38.87,-46.36,-2.18,1
2466,38.88,-43.54,-6.84,1
2467,38.89,-40.43,-7.07,1
2468,38.9,-44.01,-3.44,1
2469,38.92,-47.21,0.47,1
2470,38.93,-50.41,3.28,1
2471,38.95,-57.59,4.09,1
2472,38.96,-64.28,3.12,1
2473,38.97,-65.98,2.66,1
2474,38.99,-66.31,5.13,1
2475,39.0,-72.89,10.24,1
2476,39.01,-80.74,12.5,1
2477,39.03,-77.63,7.06,1
2478,39.04,-70.06,-0.67,1
2479,39.05,-70.86,-1.22,1
2480,39.06,-75.75,7.82,1
2481,39.08,-76.1,18.24,1
2482,39.09,-76.44,14.26,1
2483,39.11,-81.51,-3.89,1
2484,39.12,-82.52,-13.55,1
2485,39.13,-76.16,-4.51,1
2486,39.15,-72.54,6.84,1
2487,39.16,-73.32,6.41,1
2488,39.17,-72.16,-0.24,1
2489,39.19,-69.61,-1.56,1
2490,39.2,-67.28,4.24,1
2491,39.21,-63.59,7.79,1
2492,39.22,-57.25,5.98,1
2493,39.24,-48.82,5.47,1
2494,39.25,-44.92,2.78,1
2495,39.27,-51.92,-2.8,1
2496,39.28,-63.29,0.14,1
2497,39.29,-65.56,6.28,1
2498,39.31,-55.8,3.6,1
2499,39.32,-43.03,1.67,1
2500,39.33,-35.68,4.3,1
2501,39.35,-37.72,2.35,1
2502,39.36,-46.0,2.07,1
2503,39.37,-47.02,7.98,1
2504,39.38,-34.52,10.78,1
2505,39.4,-26.39,8.85,1
2506,39.41,-36.82,4.24,1
2507,39.43,-46.63,-2.91,1
2508,39.44,-35.35,-9.07,1
2509,39.45,-20.18,-12.82,1
2510,39.47,-22.77,-10.97,1
2511,39.48,-28.08,1.13,1
2512,39.49,-19.12,11.7,1
2513,39.51,-9.71,6.97,1
2514,39.52,-11.22,-1.91,1
2515,39.53,-10.42,-1.48,1
2516,39.54,-2.02,4.95,1
2517,39.56,-0.84,13.62,1
2518,39.57,-6.69,17.67,1
2519,39.59,-3.04,9.47,1
2520,39.6,6.55,0.57,1
2521,39.61,7.32,4.61,1
2522,39.63,3.34,12.19,1
2523,39.64,3.48,8.06,1
2524,39.65,1.93,-2.36,1
2525,39.67,-5.31,-0.81,1
2526,39.68,-6.87,12.11,1
2527,39.69,2.63,16.45,1
2528,39.71,10.12,10.16,1
2529,39.72,8.39,11.58,1
2530,39.73,6.97,15.83,1
2531,39.75,13.83,2.53,1
2532,39.76,20.73,-16.73,1
2533,39.77,17.71,-18.25,1
2534,39.79,15.4,-6.28,1
2535,39.8,25.07,4.31,1
2536,39.81,31.88,6.58,1
2537,39.83,22.22,2.07,1
2538,39.84,11.42,-1.72,1
2539,39.85,18.04,-4.06,1
2540,39.87,32.34,-6.46,1
2541,39.88,35.79,-3.65,1
2542,39.89,31.38,2.97,1
2543,39.9,27.49,5.57,1
2544,39.92,21.58,6.99,1
2545,39.93,18.28,12.37,1
2546,39.95,27.3,13.45,1
2547,39.96,36.38,4.36,1
2548,39.97,29.23,-6.81,1
2549,39.99,21.41,-10.53,1
2550,40.0,28.98,-4.92,1
2551,40.01,33.73,1.73,1
2552,40.03,26.91,-0.25,1
2553,40.04,28.15,-6.12,1
2554,40.05,37.68,-6.68,1
2555,40.07,31.13,-4.02,1
2556,40.08,11.2,-1.38,1
2557,40.09,11.33,-1.36,1
2558,40.11,31.19,-8.32,1
2559,40.12,35.51,-13.44,1
2560,40.13,23.94,-6.91,1
2561,40.15,20.44,-0.26,1
2562,40.16,21.89,-3.26,0
2563,40.17,15.94,-7.84,0
2564,40.19,8.36,-6.45,0
2565,40.2,-3.37,0.44,0
2566,40.21,-60.74,3.0,0
2567,40.22,-192.02,-6.78,0
2568,40.24,-327.57,-26.56,0
2569,40.25,-366.89,-50.54,0
2570,40.27,-316.27,-61.5,0
2571,40.28,-252.81,-44.15,0
2572,40.29,-197.35,-12.87,0
2573,40.31,-123.47,12.09,0
2574,40.32,-43.06,25.38,0
2575,40.33,14.47,23.68,0
2576,40.35,59.3,11.4,0
2577,40.36,108.11,6.39,0
2578,40.37,152.71,13.76,0
2579,40.38,182.46,14.78,0
2580,40.4,200.66,3.97,0
2581,40.41,217.57,0.05,0
2582,40.43,229.66,3.32,0
2583,40.44,225.68,0.71,0
2584,40.45,212.7,-2.9,0
2585,40.47,206.15,-0.35,0
2586,40.48,203.96,5.63,0
2587,40.49,198.2,11.31,0
2588,40.51,193.89,14.43,0
2589,40.52,193.2,12.48,0
2590,40.53,182.75,4.37,0
2591,40.54,159.54,-4.61,0
2592,40.56,143.67,-7.13,1
2593,40.57,145.94,0.84,1
2594,40.59,148.74,15.46,1
2595,40.6,135.78,23.68,1
2596,40.61,116.28,19.42,1
2597,40.63,105.12,14.05,1
2598,40.64,95.99,16.17,1
2599,40.65,79.15,18.86,1
2600,40.67,64.04,14.15,1
2601,40.68,48.91,6.16,1
2602,40.69,18.45,2.62,1
2603,40.71,-5.95,4.71,1
2604,40.72,3.45,7.29,1
2605,40.73,19.57,1.53,1
2606,40.75,7.83,-13.99,1
2607,40.76,-22.47,-23.89,1
2608,40.77,-48.12,-16.53,1
2609,40.79,-59.52,-1.45,1
2610,40.8,-54.37,5.36,1
2611,40.81,-38.39,-0.38,1
2612,40.83,-29.26,-6.76,1
2613,40.84,-37.26,0.14,1
2614,40.85,-49.03,11.31,1
2615,40.87,-47.97,12.11,1
2616,40.88,-40.9,9.5,1
2617,40.89,-46.22,8.3,1
2618,40.9,-64.04,-0.1,1
2619,40.92,-76.32,-11.42,1
2620,40.93,-75.62,-12.23,1
2621,40.95,-69.15,-3.93,1
2622,40.96,-67.12,1.56,1
2623,40.97,-77.23,0.06,1
2624,40.99,-90.04,-2.83,1
2625,41.0,-88.46,-2.4,1
2626,41.01,-77.17,4.5,1
2627,41.03,-73.01,16.62,1
2628,41.04,-81.26,21.21,1
2629,41.05,-93.33,10.03,1
2630,41.06,-94.74,-1.32,1
2631,41.08,-83.1,2.63,1
2632,41.09,-74.11,6.34,1
2633,41.11,-76.75,-6.26,1
2634,41.12,-81.95,-16.99,1
2635,41.13,-82.95,-9.47,1
2636,41.15,-81.36,0.61,1
2637,41.16,-76.93,1.67,1
2638,41.17,-66.77,2.74,1
2639,41.19,-55.99,4.06,1
2640,41.2,-61.09,2.56,1
2641,41.21,-77.31,1.27,1
2642,41.22,-76.18,-8.27,1
2643,41.24,-58.41,-25.59,1
2644,41.25,-47.58,-29.37,1
2645,41.27,-45.71,-19.77,1
2646,41.28,-44.7,-13.06,1
2647,41.29,-46.69,-8.58,1
2648,41.31,-55.01,-6.86,1
2649,41.32,-62.8,-13.05,1
2650,41.33,-59.22,-20.26,1
2651,41.35,-46.81,-19.45,1
2652,41.36,-36.63,-9.09,1
2653,41.37,-29.95,1.37,1
2654,41.38,-24.72,3.05,1
2655,41.4,-24.19,0.38,1
2656,41.41,-25.06,-2.02,1
2657,41.43,-23.5,-6.15,1
2658,41.44,-24.61,-8.59,1
2659,41.45,-27.01,-4.31,1
2660,41.47,-22.89,-0.52,1
2661,41.48,-17.57,-1.86,1
2662,41.49,-16.33,-4.27,1
2663,41.51,-13.0,-8.82,1
2664,41.52,-8.96,-11.25,1
2665,41.53,-7.19,-2.21,1
2666,41.54,-0.26,11.37,1
2667,41.56,4.4,11.92,1
2668,41.57,-4.27,-0.91,1
2669,41.59,-6.24,-5.84,1
2670,41.6,10.92,3.13,1
2671,41.61,22.32,6.8,1
2672,41.63,16.75,-1.26,1
2673,41.64,14.17,-1.97,1
2674,41.65,21.23,9.85,1
2675,41.67,22.11,10.19,1
2676,41.68,13.74,-1.75,1
2677,41.69,14.74,-2.35,1
2678,41.71,28.63,-1.05,1
2679,41.72,31.85,-11.39,1
2680,41.73,21.83,-16.2,1
2681,41.75,21.39,-11.67,1
2682,41.76,26.54,-8.89,1
2683,41.77,19.27,-2.68,1
2684,41.79,10.9,9.59,1
2685,41.8,17.62,17.1,1
2686,41.81,24.99,14.15,1
2687,41.83,18.33,4.59,1
2688,41.84,13.5,-2.38,1
2689,41.85,23.6,-1.5,1
2690,41.87,36.11,-1.08,1
2691,41.88,38.34,-4.99,1
2692,41.89,34.04,-4.77,1
2693,41.9,28.72,-2.71,1
2694,41.92,21.64,-1.79,1
2695,41.93,17.24,2.94,1
2696,41.95,21.23,4.86,1
2697,41.96,26.22,1.85,1
2698,41.97,23.15,3.82,1
2699,41.99,18.41,9.24,1
2700,42.0,24.0,14.4,1
2701,42.01,37.0,19.64,1
2702,42.03,40.04,16.8,1
2703,42.04,29.85,8.18,1
2704,42.05,24.74,6.55,1
2705,42.06,28.99,7.22,1
2706,42.08,25.93,4.26,1
2707,42.09,13.17,7.22,1
2708,42.11,11.16,10.81,1
2709,42.12,26.41,2.2,1
2710,42.13,34.45,-1.25,1
2711,42.15,29.07,10.29,1
2712,42.16,38.17,10.58,2
2713,42.17,51.58,-5.46,2
2714,42.19,35.25,-6.2,2
2715,42.2,8.28,17.76,2
2716,42.21,12.7,39.51,2
2717,42.22,75.14,45.4,2
2718,42.24,191.48,45.54,2
2719,42.25,303.0,38.96,2
2720,42.27,364.3,22.23,2
2721,42.28,384.15,4.23,2
2722,42.29,366.4,-12.13,2
2723,42.31,314.21,-23.5,2
2724,42.32,259.51,-16.88,2
2725,42.33,221.54,-1.88,2
2726,42.35,187.78,-5.8,2
2727,42.36,149.88,-21.85,2
2728,42.37,112.67,-26.48,2
2729,42.38,55.65,-25.25,2
2730,42.4,-71.41,-26.5,2
2731,42.41,-247.13,-19.89,2
2732,42.43,-356.34,-6.89,2
2733,42.44,-365.12,-2.58,2
2734,42.45,-359.05,-9.65,2
2735,42.47,-369.42,-18.15,2
2736,42.48,-357.25,-18.66,2
2737,42.49,-324.28,-13.81,2
2738,42.51,-297.06,-12.62,2
2739,42.52,-278.54,-7.92,2
2740,42.53,-262.88,5.47,2
2741,42.54,-245.2,6.16,2
2742,42.56,-222.74,-12.71,1
2743,42.57,-198.26,-23.27,1
2744,42.59,-174.81,-15.34,1
2745,42.6,-153.18,-8.15,1
2746,42.61,-134.2,-5.79,1
2747,42.63,-118.63,0.09,1
2748,42.64,-103.76,4.67,1
2749,42.65,-87.17,3.86,1
2750,42.66,-69.25,2.06,1
2751,42.68,-52.85,2.03,1
2752,42.69,-41.3,4.87,1
2753,42.71,-30.75,4.74,1
2754,42.72,-16.16,-4.39,1
2755,42.73,-2.89,-7.95,1
2756,42.75,4.22,7.11,1
2757,42.76,12.36,26.19,1
2758,42.77,22.7,29.87,1
2759,42.79,16.09,14.75,1
2760,42.8,-7.1,-7.61,1
2761,42.81,-5.28,-17.12,1
2762,42.83,34.8,-5.59,1
2763,42.84,68.75,10.78,1
2764,42.85,71.32,10.63,1
2765,42.87,65.09,-5.5,1
2766,42.88,66.59,-13.44,1
2767,42.89,72.96,-2.73,1
2768,42.9,80.92,7.27,1
2769,42.92,82.59,8.33,1
2770,42.93,74.22,10.54,1
2771,42.95,69.69,7.53,1
2772,42.96,73.43,-4.09,1
2773,42.97,75.55,-1.47,1
2774,42.99,78.51,15.32,1
2775,43.0,82.58,15.45,1
2776,43.01,79.79,-3.02,1
2777,43.03,78.57,-17.82,1
2778,43.04,84.81,-21.14,1
2779,43.05,81.59,-15.35,1
2780,43.06,67.73,-9.56,1
2781,43.08,66.34,-11.76,1
2782,43.09,77.4,-13.32,1
2783,43.11,77.27,-7.15,1
2784,43.12,67.13,0.84,1
2785,43.13,66.66,8.58,1
2786,43.15,75.24,13.2,1
2787,43.16,77.39,6.91,1
2788,43.17,72.03,-4.87,1
2789,43.19,71.12,-10.14,1
2790,43.2,70.92,-7.21,1
2791,43.21,58.79,-1.38,1
2792,43.22,44.28,0.89,1
2793,43.24,43.54,-0.75,1
2794,43.25,50.18,1.63,1
2795,43.27,50.47,6.77,1
2796,43.28,46.22,7.25,1
2797,43.29,46.21,5.08,1
2798,43.3,46.25,2.96,1
2799,43.32,35.02,4.21,1
2800,43.33,21.07,12.05,1
2801,43.35,24.88,13.28,1
2802,43.36,37.97,-1.55,1
2803,43.37,37.45,-13.36,1
2804,43.38,24.93,-8.23,1
2805,43.4,14.97,-0.95,1
2806,43.41,10.16,-2.96,1
2807,43.43,7.36,-2.25,1
2808,43.44,7.48,7.79,1
2809,43.45,11.24,12.16,1
2810,43.47,12.52,4.45,1
2811,43.48,7.45,0.05,1
2812,43.49,3.69,5.26,1
2813,43.51,8.43,5.36,1
2814,43.52,15.18,-0.8,1
2815,43.53,11.5,3.6,1
2816,43.54,-0.83,12.33,1
2817,43.56,-8.91,7.06,1
2818,43.57,-8.56,-6.23,1
2819,43.59,-6.66,-13.47,1
2820,43.6,-7.48,-6.99,1
2821,43.61,-7.02,10.08,1
2822,43.63,-5.4,19.01,1
2823,43.64,-12.33,15.45,1
2824,43.65,-22.45,15.1,1
2825,43.67,-18.61,12.42,1
2826,43.68,-12.66,-4.89,1
2827,43.69,-23.3,-17.6,1
2828,43.71,-33.71,-11.26,1
2829,43.72,-27.11,-0.66,1
2830,43.73,-17.45,5.09,1
2831,43.75,-19.06,7.46,1
2832,43.76,-27.02,3.16,1
2833,43.77,-28.69,-3.96,1
2834,43.79,-23.22,-3.88,1
2835,43.8,-22.82,0.04,1
2836,43.81,-27.65,-2.31,1
2837,43.83,-28.99,-9.83,1
2838,43.84,-34.15,-12.36,1
2839,43.85,-44.47,-4.66,1
2840,43.87,-40.2,4.37,1
2841,43.88,-20.91,4.62,1
2842,43.89,-11.85,1.6,1
2843,43.9,-19.9,2.39,1
2844,43.92,-32.29,0.34,1
2845,43.93,-41.96,-3.53,1
2846,43.94,-41.33,2.67,1
2847,43.96,-28.48,9.74,1
2848,43.97,-18.67,0.26,1
2849,43.99,-20.37,-15.25,1
2850,44.0,-22.83,-13.4,1
2851,44.01,-17.87,1.85,1
2852,44.03,-14.93,4.78,1
2853,44.04,-24.52,-5.39,1
2854,44.05,-40.56,-7.89,1
2855,44.06,-46.72,-1.39,1
2856,44.08,-38.58,4.63,1
2857,44.09,-30.0,9.39,1
2858,44.11,-26.16,9.93,1
2859,44.12,-19.86,18.5,1
2860,44.13,-19.04,69.18,1
2861,44.15,-24.95,164.18,1
2862,44.16,-11.23,269.92,1
2863,44.17,9.4,361.85,1
2864,44.19,6.25,402.21,1
2865,44.2,20.38,359.19,1
2866,44.21,1.6,282.11,1
2867,44.22,-170.04,236.22,1
2868,44.24,-328.57,211.38,1
2869,44.25,-267.02,175.94,1
2870,44.27,-181.28,135.18,1
2871,44.28,-265.07,102.31,1
2872,44.29,-354.7,74.36,1
2873,44.31,-323.62,45.71,1
2874,44.32,-261.65,18.22,1
2875,44.33,-225.35,-5.98,1
2876,44.35,-165.37,-28.06,1
2877,44.36,-54.42,-48.91,1
2878,44.37,51.83,-67.6,1
2879,44.38,154.53,-84.03,1
2880,44.4,255.36,-99.16,1
2881,44.41,263.44,-113.9,1
2882,44.43,255.32,-127.02,1
2883,44.44,316.42,-136.98,1
2884,44.45,345.55,-145.54,1
2885,44.47,333.17,-154.38,1
2886,44.48,250.13,-162.27,1
2887,44.49,103.06,-168.2,1
2888,44.51,148.65,-172.78,1
2889,44.52,372.64,-176.26,1
2890,44.53,381.25,-180.55,1
2891,44.54,107.38,-187.11,1
2892,44.56,-39.67,-189.48,1
2893,44.57,97.83,-196.27,1
2894,44.58,181.89,-302.37,1
2895,44.6,138.63,-555.98,1
2896,44.61,155.17,-708.6,1
2897,44.625,98.73,-545.88,1
2898,44.64,-33.01,-272.77,1
2899,44.65,-2.68,-123.64,1
2900,44.67,94.36,-96.16,1
2901,44.68,72.91,-174.5,1
2902,44.69,-23.78,-267.58,1
2903,44.71,-91.23,-177.05,1
2904,44.72,-25.97,-57.09,1
2905,44.73,103.11,-241.8,1
2906,44.75,-10.86,-485.98,1
2907,44.76,-322.04,-374.24,1
2908,44.77,-327.32,-50.17,1
2909,44.79,-2.04,170.27,1
2910,44.8,161.93,229.99,1
2911,44.81,52.58,217.58,1
2912,44.83,-83.22,199.35,1
2913,44.84,-102.38,185.39,1
2914,44.85,-16.78,149.07,1
2915,44.87,15.7,1.51,1
2916,44.88,-113.32,-277.59,1
2917,44.89,-202.43,-408.3,1
2918,44.9,-103.28,-131.95,1
2919,44.92,-11.59,147.44,1
2920,44.93,29.96,-75.37,1
2921,44.95,83.58,-358.19,1
2922,44.96,-45.61,-161.77,1
2923,44.97,-259.42,59.6,1
2924,44.99,-220.49,-74.96,1
2925,45.0,-10.87,-174.94,1
2926,45.01,100.83,-112.62,1
2927,45.03,35.81,-185.89,1
2928,45.04,-44.35,-345.21,1
2929,45.05,63.01,-341.76,1
2930,45.06,271.15,-216.41,1
2931,45.08,376.36,-137.32,1
2932,45.09,351.58,-111.12,1
2933,45.11,263.6,-67.03,1
2934,45.12,164.26,-6.19,1
2935,45.13,85.32,39.16,1
2936,45.15,25.34,72.81,1
2937,45.16,-34.42,109.19,1
2938,45.17,-85.1,145.35,1
2939,45.19,-97.69,175.29,1
2940,45.2,-83.61,201.32,1
2941,45.21,-84.85,235.3,1
2942,45.22,-106.1,297.02,1
2943,45.24,-125.85,381.87,1
2944,45.25,-139.12,452.63,1
2945,45.26,-143.67,490.56,1
2946,45.28,-133.82,507.34,1
2947,45.29,-119.28,511.41,1
2948,45.31,-109.92,505.33,1
2949,45.32,-104.58,491.31,1
2950,45.33,-111.12,476.95,1
2951,45.35,-128.13,479.13,1
2952,45.36,-130.37,490.61,1
2953,45.37,-107.96,477.72,1
2954,45.38,-71.05,437.42,1
2955,45.4,-34.07,396.7,1
2956,45.41,-28.04,369.47,1
2957,45.43,-63.99,356.77,1
2958,45.44,-95.26,349.82,1
2959,45.45,-87.44,335.86,1
2960,45.47,-73.07,317.63,1
2961,45.48,-80.08,298.75,1
2962,45.49,-87.36,277.31,1
2963,45.51,-79.49,262.65,1
2964,45.52,-69.65,252.63,1
2965,45.53,-66.4,228.6,1
2966,45.54,-62.2,194.74,1
2967,45.56,-51.7,168.72,1
2968,45.57,-42.69,149.34,1
2969,45.59,-37.66,127.3,1
2970,45.6,-30.87,103.47,1
2971,45.61,-26.33,85.48,1
2972,45.63,-28.92,71.75,1
2973,45.64,-28.94,53.53,1
2974,45.65,-22.75,36.82,1
2975,45.67,-16.21,29.39,1
2976,45.68,-6.13,18.65,1
2977,45.69,4.1,-2.82,1
2978,45.71,4.78,-24.05,1
2979,45.72,6.69,-39.85,1
2980,45.73,17.52,-53.44,1
2981,45.75,21.09,-67.15,1
2982,45.76,16.41,-81.55,1
2983,45.77,23.1,-90.64,1
2984,45.79,34.24,-90.16,1
2985,45.8,30.03,-92.04,1
2986,45.81,21.84,-107.14,1
2987,45.83,26.36,-125.81,1
2988,45.84,35.95,-138.36,1
2989,45.85,40.8,-143.28,1
2990,45.86,40.56,-139.07,1
2991,45.88,36.07,-137.46,1
2992,45.89,28.53,-149.66,1
2993,45.9,25.04,-165.07,1
2994,45.92,35.53,-175.06,1
2995,45.93,50.25,-180.23,1
2996,45.95,50.0,-180.97,1
2997,45.96,47.67,-182.8,1
2998,45.97,58.8,-185.02,1
2999,45.99,64.35,-182.38,1
3000,46.0,54.69,-182.01,1
3001,46.01,49.6,-188.08,1
3002,46.03,57.05,-191.94,1
3003,46.04,62.99,-189.4,1
3004,46.05,52.57,-183.7,1
3005,46.06,30.25,-177.95,1
3006,46.08,19.91,-178.86,1
3007,46.09,32.85,-188.7,1
3008,46.11,49.84,-195.41,1
3009,46.12,52.78,-190.91,1
3010,46.13,46.6,-178.07,1
3011,46.15,40.16,-154.51,1
3012,46.16,53.09,-123.2,2
3013,46.17,128.1,-107.55,2
3014,46.19,268.04,-122.91,2
3015,46.2,393.86,-151.47,2
3016,46.21,432.13,-164.54,2
3017,46.22,393.85,-158.46,2
3018,46.24,326.27,-154.25,2
3019,46.25,255.85,-163.3,2
3020,46.27,195.83,-171.24,2
3021,46.28,141.19,-164.7,2
3022,46.29,67.41,-148.59,2
3023,46.31,-18.38,-133.94,2
3024,46.32,-77.01,-133.65,2
3025,46.33,-103.4,-146.2,2
3026,46.35,-130.13,-150.38,2
3027,46.36,-167.07,-142.84,2
3028,46.37,-190.12,-134.79,2
3029,46.38,-193.22,-121.62,2
3030,46.4,-196.36,-103.34,2
3031,46.41,-205.0,-92.2,2
3032,46.43,-206.95,-85.28,2
3033,46.44,-200.54,-77.88,2
3034,46.45,-194.35,-73.36,2
3035,46.47,-192.95,-64.06,2
3036,46.48,-192.89,-48.55,2
3037,46.49,-190.05,-39.34,2
3038,46.5,-182.24,-38.34,2
3039,46.52,-166.05,-39.39,2
3040,46.53,-145.15,-39.5,2
3041,46.54,-127.49,-34.7,2
3042,46.56,-113.83,-22.84,1
3043,46.57,-101.59,-6.79,1
3044,46.59,-85.53,10.06,1
3045,46.6,-64.08,21.43,1
3046,46.61,-47.57,18.0,1
3047,46.63,-44.8,7.35,1
3048,46.64,-48.54,7.34,1
3049,46.65,-48.07,12.65,1
3050,46.67,-38.01,13.76,1
3051,46.68,-18.75,16.98,1
3052,46.69,-4.08,20.59,1
3053,46.71,-6.41,23.53,1
3054,46.72,-14.95,35.46,1
3055,46.73,-11.94,47.56,1
3056,46.75,2.96,45.21,1
3057,46.76,19.9,38.86,1
3058,46.77,30.88,41.19,1
3059,46.79,36.31,49.67,1
3060,46.8,41.51,52.14,1
3061,46.81,42.04,42.9,1
3062,46.83,34.83,41.19,1
3063,46.84,36.15,56.54,1
3064,46.85,49.47,63.9,1
3065,46.87,55.19,53.45,1
3066,46.88,53.52,46.45,1
3067,46.89,58.96,52.77,1
3068,46.9,63.94,61.75,1
3069,46.92,57.72,64.72,1
3070,46.93,50.47,65.96,1
3071,46.95,51.88,70.71,1
3072,46.96,56.54,73.94,1
3073,46.97,60.26,72.04,1
3074,46.99,63.39,71.83,1
3075,47.0,63.03,73.79,1
3076,47.01,60.89,69.35,1
3077,47.03,59.95,61.16,1
3078,47.04,58.32,58.96,1
3079,47.05,57.29,62.14,1
3080,47.06,58.75,65.81,1
3081,47.08,59.31,66.39,1
3082,47.09,56.5,67.36,1
3083,47.11,48.94,74.93,1
3084,47.12,40.04,76.04,1
3085,47.13,37.04,63.18,1
3086,47.14,39.76,58.33,1
3087,47.16,42.1,68.99,1
3088,47.17,40.02,74.59,1
3089,47.18,37.21,64.11,1
3090,47.2,37.86,49.22,1
3091,47.21,31.24,48.32,1
3092,47.22,18.27,61.27,1
3093,47.24,20.81,67.47,1
3094,47.25,30.15,57.94,1
3095,47.27,19.46,47.99,1
3096,47.28,3.32,48.82,1
3097,47.29,7.57,51.61,1
3098,47.31,23.37,49.06,1
3099,47.32,31.98,46.72,1
3100,47.33,31.9,46.47,1
3101,47.35,26.27,43.16,1
3102,47.36,14.54,38.52,1
3103,47.37,2.68,35.62,1
3104,47.38,0.15,31.66,1
3105,47.4,7.45,29.67,1
3106,47.41,14.47,36.45,1
3107,47.43,11.88,41.43,1
3108,47.44,1.17,28.66,1
3109,47.45,-8.16,10.41,1
3110,47.47,-9.69,11.8,1
3111,47.48,-2.66,25.58,1
3112,47.49,7.11,23.5,1
3113,47.51,9.59,8.01,1
3114,47.52,3.07,2.76,1
3115,47.53,-5.94,11.18,1
3116,47.54,-11.88,20.54,1
3117,47.56,-10.09,18.46,1
3118,47.57,-0.27,6.29,1
3119,47.59,6.55,3.91,1
3120,47.6,0.82,12.05,1
3121,47.61,-13.65,5.59,1
3122,47.63,-24.71,-10.31,1
3123,47.64,-24.64,-6.73,1
3124,47.65,-22.19,9.55,1
3125,47.67,-24.61,11.31,1
3126,47.68,-18.67,-0.28,1
3127,47.69,-4.76,-5.52,1
3128,47.71,-6.85,-0.71,1
3129,47.72,-21.43,0.28,1
3130,47.73,-20.94,-8.25,1
3131,47.75,-8.92,-15.19,1
3132,47.76,-9.32,-11.9,1
3133,47.77,-23.62,-4.96,1
3134,47.78,-35.42,-3.12,1
3135,47.8,-33.04,-3.57,1
3136,47.81,-22.74,-1.51,1
3137,47.82,-20.78,-0.44,1
3138,47.84,-24.46,-4.58,1
3139,47.85,-21.43,-11.99,1
3140,47.86,-14.64,-17.02,1
3141,47.88,-13.35,-19.95,1
3142,47.89,-21.26,-25.6,1
3143,47.9,-28.64,-27.11,1
3144,47.92,-22.19,-15.87,1
3145,47.93,-12.7,-2.33,1
3146,47.95,-17.36,1.49,1
3147,47.96,-24.9,-2.75,1
3148,47.97,-22.71,-9.99,1
3149,47.99,-22.32,-12.62,1
3150,48.0,-28.72,-11.98,1
3151,48.01,-30.21,-17.09,1
3152,48.03,-25.26,-20.1,1
3153,48.04,-20.86,-17.47,1
3154,48.05,-19.93,-19.54,1
3155,48.06,-26.84,-19.03,1
3156,48.08,-36.87,-10.84,1
3157,48.09,-33.24,-11.29,1
3158,48.11,-17.92,-20.3,1
3159,48.12,-10.53,-19.98,1
3160,48.13,-12.16,-13.49,1
3161,48.15,-9.29,-12.98,1
3162,48.16,-2.17,-15.22,0
3163,48.17,-2.96,-15.28,0
3164,48.19,-10.16,-11.28,0
3165,48.2,-9.96,-3.51,0
3166,48.21,-11.06,-1.61,0
3167,48.22,-48.92,-6.67,0
3168,48.24,-137.57,-5.93,0
3169,48.25,-243.25,-0.8,0
3170,48.27,-320.03,-4.68,0
3171,48.28,-354.1,-20.18,0
3172,48.29,-356.17,-42.17,0
3173,48.31,-329.06,-60.53,0
3174,48.32,-278.45,-65.46,0
3175,48.33,-228.25,-60.24,0
3176,48.35,-191.51,-51.07,0
3177,48.36,-158.99,-39.4,0
3178,48.37,-115.9,-31.78,0
3179,48.38,-37.97,-31.33,0
3180,48.4,93.1,-29.37,0
3181,48.41,242.49,-24.23,0
3182,48.42,339.11,-22.74,0
3183,48.44,360.55,-22.79,0
3184,48.45,351.07,-18.83,0
3185,48.46,344.29,-10.55,0
3186,48.48,328.54,-0.59,0
3187,48.49,297.89,6.08,0
3188,48.5,275.0,7.59,0
3189,48.52,267.35,10.81,0
3190,48.53,255.54,20.24,0
3191,48.54,228.29,24.48,0
3192,48.56,198.9,14.85,1
3193,48.57,192.03,3.45,1
3194,48.59,203.13,1.92,1
3195,48.6,191.99,4.22,1
3196,48.61,150.83,-0.32,1
3197,48.63,116.39,-9.86,1
3198,48.64,100.58,-8.28,1
3199,48.65,85.54,5.35,1
3200,48.67,66.47,11.17,1
3201,48.68,49.63,4.02,1
3202,48.69,36.52,-6.22,1
3203,48.71,29.51,-14.81,1
3204,48.72,28.13,-21.73,1
3205,48.73,21.98,-24.74,1
3206,48.75,9.49,-13.7,1
3207,48.76,2.96,6.02,1
3208,48.77,-1.43,8.21,1
3209,48.79,-19.32,-4.8,1
3210,48.8,-40.66,-7.54,1
3211,48.81,-44.81,-1.11,1
3212,48.83,-38.63,0.93,1
3213,48.84,-40.77,0.03,1
3214,48.85,-49.66,1.98,1
3215,48.87,-53.44,6.94,1
3216,48.88,-52.97,9.98,1
3217,48.89,-55.45,9.12,1
3218,48.9,-61.44,12.22,1
3219,48.92,-70.28,18.08,1
3220,48.93,-81.02,11.1,1
3221,48.95,-84.9,-4.86,1
3222,48.96,-76.41,-8.08,1
3223,48.97,-67.0,4.51,1
3224,48.99,-70.53,17.87,1
3225,49.0,-81.3,20.63,1
3226,49.01,-82.16,14.02,1
3227,49.03,-72.37,8.4,1
3228,49.04,-67.59,8.12,1
3229,49.05,-71.29,6.84,1
3230,49.06,-73.45,2.4,1
3231,49.08,-69.6,-0.51,1
3232,49.09,-66.37,-1.76,1
3233,49.1,-72.43,-2.0,1
3234,49.12,-78.21,2.65,1
3235,49.13,-72.27,7.05,1
3236,49.14,-68.22,3.37,1
3237,49.16,-72.19,3.05,1
3238,49.17,-68.78,14.13,1
3239,49.19,-60.22,17.23,1
3240,49.2,-58.55,2.76,1
3241,49.21,-59.12,-6.64,1
3242,49.22,-58.18,0.51,1
3243,49.24,-57.29,6.63,1
3244,49.25,-53.42,5.04,1
3245,49.27,-48.27,6.19,1
3246,49.28,-45.55,5.47,1
3247,49.29,-44.58,-3.35,1
3248,49.31,-43.1,-3.72,1
3249,49.32,-38.99,10.25,1
3250,49.33,-36.66,14.37,1
3251,49.35,-40.27,0.27,1
3252,49.36,-41.86,-7.78,1
3253,49.37,-32.73,-0.09,1
3254,49.38,-21.72,5.68,1
3255,49.4,-21.24,2.57,1
3256,49.41,-22.44,-1.52,1
3257,49.43,-16.85,-1.69,1
3258,49.44,-15.16,3.3,1
3259,49.45,-18.61,7.45,1
3260,49.47,-14.92,3.45,1
3261,49.48,-5.87,-0.27,1
3262,49.49,-5.52,8.37,1
3263,49.51,-14.12,20.11,1
3264,49.52,-14.15,20.39,1
3265,49.53,-2.25,13.19,1
3266,49.54,6.12,5.72,1
3267,49.56,6.55,2.65,1
3268,49.57,4.39,3.55,1
3269,49.59,3.58,-1.87,1
3270,49.6,4.64,-7.93,1
3271,49.61,2.89,-2.38,1
3272,49.63,4.45,2.53,1
3273,49.64,17.87,-3.21,1
3274,49.65,25.4,-8.46,1
3275,49.67,13.6,-7.38,1
3276,49.68,8.54,-7.6,1
3277,49.69,25.19,-11.58,1
3278,49.7,34.09,-11.66,1
3279,49.72,19.47,-0.1,1
3280,49.73,6.74,13.63,1
3281,49.74,11.6,12.39,1
3282,49.76,16.6,4.67,1
3283,49.77,10.43,3.86,1
3284,49.78,7.64,0.17,1
3285,49.8,16.05,-4.35,1
3286,49.81,22.67,1.12,1
3287,49.83,24.12,5.67,1
3288,49.84,32.26,7.07,1
3289,49.85,40.69,9.79,1
3290,49.87,29.88,1.07,1
3291,49.88,14.78,-10.89,1
3292,49.89,23.82,-3.33,1
3293,49.9,39.16,11.74,1
3294,49.92,34.17,8.78,1
3295,49.93,20.72,-8.74,1
3296,49.95,14.93,-15.27,1
3297,49.96,17.76,-0.41,1
3298,49.97,25.19,11.86,1
3299,49.99,32.22,1.87,1
3300,50.0,38.48,-11.14,1
3301,50.01,36.88,-5.66,1
3302,50.03,23.34,5.28,1
3303,50.04,17.29,3.22,1
3304,50.05,24.49,-2.53,1
3305,50.06,24.93,0.52,1
3306,50.08,18.28,4.23,1
3307,50.09,18.21,-0.61,1
3308,50.11,21.52,-8.19,1
3309,50.12,21.25,-8.52,1
3310,50.13,18.95,-3.88,1
3311,50.15,20.03,-3.04,1
3312,50.16,28.6,-2.22,0
3313,50.17,35.24,5.34,0
3314,50.19,25.49,7.71,0
3315,50.2,13.93,-6.82,0
3316,50.21,8.82,-23.29,0
3317,50.22,-52.64,-28.25,0
3318,50.24,-203.5,-33.26,0
3319,50.25,-342.38,-44.81,0
3320,50.27,-376.09,-45.7,0
3321,50.28,-332.96,-27.02,0
3322,50.29,-268.94,-6.87,0
3323,50.31,-200.17,3.68,0
3324,50.32,-124.28,10.43,0
3325,50.33,-45.46,11.55,0
3326,50.34,21.44,4.36,0
3327,50.36,72.4,-3.58,0
3328,50.37,112.55,-8.05,0
3329,50.38,139.99,-7.97,0
3330,50.4,162.3,-3.81,0
3331,50.41,187.34,-4.12,0
3332,50.42,209.38,-10.91,0
3333,50.44,227.34,-10.69,0
3334,50.45,238.51,2.23,0
3335,50.46,237.2,16.29,0
3336,50.48,226.09,20.84,0
3337,50.49,209.08,17.16,0
3338,50.51,197.52,15.42,0
3339,50.52,197.0,21.69,0
3340,50.53,184.74,29.62,0
3341,50.54,154.81,30.67,0
3342,50.56,137.78,25.99,1
3343,50.57,142.55,20.61,1
3344,50.59,146.49,16.45,1
3345,50.6,139.78,19.59,1
3346,50.61,130.47,30.53,1
3347,50.63,120.76,32.15,1
3348,50.64,100.13,20.36,1
3349,50.65,69.9,16.85,1
3350,50.67,53.7,26.8,1
3351,50.68,55.07,29.01,1
3352,50.69,45.61,17.28,1
3353,50.71,19.29,7.73,1
3354,50.72,0.21,3.29,1
3355,50.73,-10.45,-7.53,1
3356,50.75,-25.95,-11.83,1
3357,50.76,-36.63,5.92,1
3358,50.77,-30.78,16.35,1
3359,50.79,-20.11,-2.1,1
3360,50.8,-19.87,-16.1,1
3361,50.81,-28.57,-4.83,1
3362,50.83,-35.76,6.08,1
3363,50.84,-36.58,3.48,1
3364,50.85,-34.95,-0.1,1
3365,50.87,-37.58,-2.72,1
3366,50.88,-43.47,-3.81,1
3367,50.89,-52.4,3.34,1
3368,50.9,-66.56,7.11,1
3369,50.92,-72.93,-1.58,1
3370,50.93,-67.45,-6.6,1
3371,50.95,-71.13,-2.81,1
3372,50.96,-86.04,-4.5,1
3373,50.97,-86.41,-12.23,1
3374,50.98,-69.94,-17.13,1
3375,51.0,-66.48,-17.33,1
3376,51.01,-82.12,-11.88,1
3377,51.02,-85.93,-2.91,1
3378,51.04,-71.88,-2.95,1
3379,51.05,-70.78,-16.29,1
3380,51.06,-83.4,-21.66,1
3381,51.08,-80.3,-4.14,1
3382,51.09,-69.22,12.85,1
3383,51.1,-76.79,4.73,1
3384,51.12,-88.69,-14.22,1
3385,51.13,-80.2,-21.12,1
3386,51.15,-64.73,-20.23,1
3387,51.16,-63.09,-20.22,1
3388,51.17,-69.71,-16.1,1
3389,51.19,-71.95,-10.43,1
3390,51.2,-68.09,-8.54,1
3391,51.21,-62.88,-9.25,1
3392,51.22,-59.99,-14.36,1
3393,51.24,-57.96,-16.67,1
3394,51.25,-54.39,-8.06,1
3395,51.27,-52.07,-5.08,1
3396,51.28,-52.33,-14.56,1
3397,51.29,-52.41,-11.72,1
3398,51.31,-50.25,4.99,1
3399,51.32,-41.41,5.99,1
3400,51.33,-26.85,-8.48,1
3401,51.35,-22.56,-14.88,1
3402,51.36,-36.12,-12.61,1
3403,51.37,-50.3,-11.73,1
3404,51.38,-46.87,-11.4,1
3405,51.4,-33.01,-4.52,1
3406,51.41,-29.72,6.91,1
3407,51.43,-34.45,5.94,1
3408,51.44,-26.26,-9.92,1
3409,51.45,-12.39,-15.95,1
3410,51.47,-11.34,-4.0,1
3411,51.48,-12.74,5.16,1
3412,51.49,-11.9,5.96,1
3413,51.51,-21.87,7.14,1
3414,51.52,-30.95,2.74,1
3415,51.53,-24.02,-5.78,1
3416,51.54,-16.19,0.15,1
3417,51.56,-15.44,16.69,1
3418,51.57,-9.01,17.84,1
3419,51.59,4.82,1.84,1
3420,51.6,9.53,-5.99,1
3421,51.61,-1.76,1.05,1
3422,51.62,-5.57,3.32,1
3423,51.64,14.61,-1.46,1
3424,51.65,28.87,0.07,1
3425,51.66,8.96,3.92,1
3426,51.68,-13.47,3.65,1
3427,51.69,1.26,8.54,1
3428,51.7,27.27,19.04,1
3429,51.72,25.65,14.88,1
3430,51.73,14.79,-8.12,1
3431,51.74,17.74,-17.37,1
3432,51.76,21.65,3.07,1
3433,51.77,21.46,16.16,1
3434,51.79,23.39,-0.71,1
3435,51.8,25.07,-11.78,1
3436,51.81,25.4,3.07,1
3437,51.83,23.83,11.24,1
3438,51.84,21.49,-2.05,1
3439,51.85,22.8,-10.33,1
3440,51.87,21.57,-4.15,1
3441,51.88,17.0,-2.59,1
3442,51.89,24.5,-6.27,1
3443,51.9,44.23,0.43,1
3444,51.92,54.34,10.09,1
3445,51.93,44.51,8.61,1
3446,51.95,26.69,0.73,1
3447,51.96,16.94,-3.79,1
3448,51.97,18.57,-1.0,1
3449,51.99,24.66,6.79,1
3450,52.0,33.54,13.96,1
3451,52.01,43.04,13.51,1
3452,52.03,40.88,-1.89,1
3453,52.04,29.79,-18.97,1
3454,52.05,31.91,-12.86,1
3455,52.06,39.8,5.48,1
3456,52.08,22.9,6.57,1
3457,52.09,-3.89,-1.58,1
3458,52.11,-1.11,2.96,1
3459,52.12,22.03,11.2,1
3460,52.13,31.1,11.33,1
3461,52.15,26.79,11.43,1
3462,52.16,31.49,14.14,2
3463,52.17,38.87,18.73,2
3464,52.19,37.15,29.88,2
3465,52.2,69.57,41.06,2
3466,52.21,174.68,41.86,2
3467,52.22,297.71,31.38,2
3468,52.24,361.5,13.1,2
3469,52.25,367.31,-3.89,2
3470,52.26,353.57,-14.13,2
3471,52.28,325.04,-22.91,2
3472,52.29,277.2,-23.04,2
3473,52.3,228.34,-6.44,2
3474,52.32,191.42,5.42,2
3475,52.33,158.64,-0.88,2
3476,52.34,108.78,-9.83,2
3477,52.36,1.82,-18.42,2
3478,52.37,-164.89,-26.44,2
3479,52.38,-309.05,-19.13,2
3480,52.4,-360.91,-7.14,2
3481,52.41,-351.47,-13.25,2
3482,52.43,-341.57,-25.75,2
3483,52.44,-337.67,-22.82,2
3484,52.45,-315.5,-6.31,2
3485,52.47,-280.52,8.85,2
3486,52.48,-257.62,14.01,2
3487,52.49,-247.91,11.17,2
3488,52.51,-236.01,4.71,2
3489,52.52,-207.21,-3.34,2
3490,52.53,-147.59,-10.36,2
3491,52.54,-82.51,-12.52,2
3492,52.56,-68.09,-9.93,1
3493,52.57,-100.53,-8.47,1
3494,52.59,-121.71,-10.92,1
3495,52.6,-113.36,-11.2,1
3496,52.61,-99.57,-6.06,1
3497,52.63,-91.72,-1.06,1
3498,52.64,-79.83,0.67,1
3499,52.65,-57.04,3.52,1
3500,52.67,-36.06,8.44,1
3501,52.68,-30.88,9.6,1
3502,52.69,-31.09,5.77,1
3503,52.71,-22.71,-3.42,1
3504,52.72,-16.83,-14.48,1
3505,52.73,-17.62,-12.2,1
3506,52.75,-8.15,-4.1,1
3507,52.76,10.21,-8.49,1
3508,52.77,19.55,-6.3,1
3509,52.79,20.28,10.34,1
3510,52.8,23.71,10.89,1
3511,52.81,34.83,-5.69,1
3512,52.83,46.06,-9.44,1
3513,52.84,41.23,-0.22,1
3514,52.85,26.51,2.73,1
3515,52.87,25.29,0.39,1
3516,52.88,40.31,1.99,1
3517,52.89,56.46,7.3,1
3518,52.9,61.58,11.24,1
3519,52.92,54.87,8.19,1
3520,52.93,49.99,-0.49,1
3521,52.94,55.29,-6.62,1
3522,52.96,63.0,-7.43,1
3523,52.97,65.01,-4.46,1
3524,52.98,65.57,-0.66,1
3525,53.0,72.02,-0.85,1
3526,53.01,79.19,0.16,1
3527,53.02,77.65,9.1,1
3528,53.04,74.02,14.32,1
3529,53.05,75.72,7.6,1
3530,53.06,73.42,1.19,1
3531,53.08,64.1,5.02,1
3532,53.09,57.07,13.71,1
3533,53.11,56.04,17.31,1
3534,53.12,63.19,11.29,1
3535,53.13,74.23,2.91,1
3536,53.15,72.42,1.84,1
3537,53.16,55.89,2.99,1
3538,53.17,45.39,1.01,1
3539,53.19,50.61,2.83,1
3540,53.2,56.07,7.38,1
3541,53.21,51.12,10.21,1
3542,53.22,47.76,14.31,1
3543,53.24,50.6,11.2,1
3544,53.25,51.08,-3.06,1
3545,53.27,52.96,-12.25,1
3546,53.28,57.25,-8.16,1
3547,53.29,52.37,4.5,1
3548,53.31,39.96,20.04,1
3549,53.32,33.1,25.58,1
3550,53.33,34.59,12.55,1
3551,53.35,36.1,-6.09,1
3552,53.36,28.56,-12.19,1
3553,53.37,16.88,-5.33,1
3554,53.38,13.76,3.09,1
3555,53.4,20.95,4.73,1
3556,53.41,31.71,1.89,1
3557,53.43,40.01,2.28,1
3558,53.44,42.14,4.65,1
3559,53.45,35.64,3.76,1
3560,53.47,20.09,3.27,1
3561,53.48,6.48,6.0,1
3562,53.49,6.34,5.6,1
3563,53.51,7.93,-4.54,1
3564,53.52,0.41,-17.24,1
3565,53.53,-6.63,-16.08,1
3566,53.54,-8.89,-3.67,1
3567,53.56,-12.31,-1.4,1
3568,53.57,-15.42,-8.37,1
3569,53.58,-11.59,-4.09,1
3570,53.6,-1.67,8.07,1
3571,53.61,2.82,10.53,1
3572,53.62,-5.17,3.33,1
3573,53.64,-18.25,-3.12,1
3574,53.65,-28.06,-2.37,1
3575,53.66,-31.58,-0.32,1
3576,53.68,-23.78,-2.53,1
3577,53.69,-10.15,-1.22,1
3578,53.7,-5.32,3.27,1
3579,53.72,-5.76,-1.76,1
3580,53.73,-4.17,-13.89,1
3581,53.75,-10.41,-14.24,1
3582,53.76,-23.4,-3.03,1
3583,53.77,-27.65,-1.59,1
3584,53.79,-23.71,-8.69,1
3585,53.8,-19.51,-3.0,1
3586,53.81,-18.81,10.55,1
3587,53.83,-27.73,8.58,1
3588,53.84,-40.45,-6.29,1
3589,53.85,-41.71,-10.94,1
3590,53.87,-33.85,-3.43,1
3591,53.88,-31.27,-2.23,1
3592,53.89,-31.91,-9.91,1
3593,53.9,-25.31,-11.37,1
3594,53.92,-22.12,-7.64,1
3595,53.93,-33.08,-8.08,1
3596,53.95,-41.87,-2.77,1
3597,53.96,-34.1,8.67,1
3598,53.97,-21.85,6.92,1
3599,53.99,-23.06,-7.06,1
3600,54.0,-33.54,-12.38,1
3601,54.01,-36.57,-0.68,1
3602,54.03,-30.39,12.98,1
3603,54.04,-21.84,8.42,1
3604,54.05,-17.17,-7.64,1
3605,54.06,-25.43,-10.1,1
3606,54.08,-43.43,-0.22,1
3607,54.09,-52.54,0.17,1
3608,54.11,-42.85,-7.05,1
3609,54.12,-24.81,-0.84,1
3610,54.13,-11.85,26.67,1
3611,54.15,-4.7,69.49,1
3612,54.16,-1.86,117.12,1
3613,54.17,-7.1,137.11,1
3614,54.18,-16.14,125.75,1
3615,54.2,-24.43,181.09,1
3616,54.21,-54.06,334.44,1
3617,54.22,-118.27,417.85,1
3618,54.24,-123.15,342.63,1
3619,54.25,-16.82,246.3,1
3620,54.26,-15.16,220.53,1
3621,54.28,-211.37,205.1,1
3622,54.29,-298.98,160.07,1
3623,54.3,-173.72,116.27,1
3624,54.32,-152.74,89.35,1
3625,54.33,-324.81,63.6,1
3626,54.34,-393.51,33.57,1
3627,54.36,-271.87,7.21,1
3628,54.37,-162.14,-14.2,1
3629,54.38,-36.7,-35.02,1
3630,54.4,220.04,-55.43,1
3631,54.41,308.07,-73.32,1
3632,54.43,96.52,-88.92,1
3633,54.44,108.31,-103.14,1
3634,54.45,491.81,-116.33,1
3635,54.47,605.8,-128.26,1
3636,54.48,230.22,-138.72,1
3637,54.49,35.83,-147.5,1
3638,54.51,302.63,-155.12,1
3639,54.52,415.75,-161.74,1
3640,54.53,161.37,-167.41,1
3641,54.54,-19.57,-171.82,1
3642,54.56,31.77,-175.59,1
3643,54.57,127.01,-223.68,1
3644,54.59,36.58,-408.59,1
3645,54.6,-142.13,-630.09,1
3646,54.61,-20.22,-555.69,1
3647,54.63,237.56,-225.36,1
3648,54.64,252.13,-146.7,1
3649,54.65,181.01,-349.2,1
3650,54.67,103.51,-346.25,1
3651,54.68,-67.95,-194.63,1
3652,54.69,-153.53,-262.11,1
3653,54.71,-46.46,-339.17,1
3654,54.72,41.61,-189.97,1
3655,54.73,-65.34,-117.27,1
3656,54.75,-171.86,-295.96,1
3657,54.76,-98.63,-395.13,1
3658,54.77,37.84,-151.66,1
3659,54.79,216.33,93.13,1
3660,54.8,355.06,-53.51,1
3661,54.81,176.51,-194.76,1
3662,54.82,-132.91,17.1,1
3663,54.84,-169.85,121.56,1
3664,54.85,-92.94,-32.77,1
3665,54.86,-175.8,-77.22,1
3666,54.88,-260.21,8.17,1
3667,54.89,-107.21,87.31,1
3668,54.9,117.74,90.9,1
3669,54.92,88.12,14.19,1
3670,54.93,-88.49,79.18,1
3671,54.94,-131.84,180.1,1
3672,54.96,-82.73,-43.67,1
3673,54.97,-63.76,-218.9,1
3674,54.98,-28.62,106.52,1
3675,55.0,9.03,386.59,1
3676,55.01,-58.75,126.4,1
3677,55.02,-176.33,-241.34,1
3678,55.04,-213.18,-309.58,1
3679,55.05,-143.63,-258.61,1
3680,55.06,-21.64,-295.48,1
3681,55.08,38.65,-328.93,1
3682,55.09,2.69,-255.89,1
3683,55.11,15.77,-157.65,1
3684,55.12,126.6,-111.99,1
3685,55.13,160.75,-81.46,1
3686,55.15,54.42,-31.34,1
3687,55.16,-37.74,18.69,1
3688,55.17,-32.08,54.41,1
3689,55.19,-10.9,86.45,1
3690,55.2,-26.67,120.95,1
3691,55.21,-43.26,160.65,1
3692,55.22,-48.78,223.23,1
3693,55.24,-56.07,311.36,1
3694,55.25,-56.91,385.88,1
3695,55.27,-50.54,420.65,1
3696,55.28,-48.29,437.7,1
3697,55.29,-50.86,457.59,1
3698,55.31,-49.23,472.66,1
3699,55.32,-40.19,467.65,1
3700,55.33,-35.99,446.69,1
3701,55.35,-43.19,430.39,1
3702,55.36,-44.94,419.75,1
3703,55.37,-31.28,408.18,1
3704,55.38,-18.35,405.35,1
3705,55.4,-16.95,399.8,1
3706,55.41,-17.94,370.31,1
3707,55.43,-19.77,337.69,1
3708,55.44,-29.07,323.68,1
3709,55.45,-34.88,316.51,1
3710,55.46,-26.82,310.24,1
3711,55.48,-20.47,299.38,1
3712,55.49,-18.46,273.0,1
3713,55.5,2.95,248.02,1
3714,55.52,32.17,235.74,1
3715,55.53,28.16,214.46,1
3716,55.54,2.04,184.57,1
3717,55.56,-7.76,170.48,1
3718,55.57,-1.27,166.23,1
3719,55.58,2.49,151.2,1
3720,55.6,-3.87,130.09,1
3721,55.61,-11.63,117.35,1
3722,55.62,-9.06,109.0,1
3723,55.64,-2.99,88.08,1
3724,55.65,-1.98,58.81,1
3725,55.66,-3.18,40.59,1
3726,55.68,-6.84,30.52,1
3727,55.69,-6.01,16.95,1
3728,55.71,9.44,2.63,1
3729,55.72,23.15,-10.43,1
3730,55.73,17.58,-25.12,1
3731,55.75,7.78,-39.26,1
3732,55.76,9.18,-50.95,1
3733,55.77,14.39,-59.06,1
3734,55.79,13.1,-62.43,1
3735,55.8,9.33,-71.1,1
3736,55.81,14.06,-90.45,1
3737,55.83,25.62,-107.34,1
3738,55.84,29.35,-116.09,1
3739,55.85,22.91,-122.46,1
3740,55.87,19.38,-127.07,1
3741,55.88,25.99,-131.1,1
3742,55.89,37.13,-134.85,1
3743,55.9,41.48,-135.32,1
3744,55.92,32.89,-139.92,1
3745,55.93,21.56,-153.52,1
3746,55.95,17.04,-158.09,1
3747,55.96,15.38,-148.83,1
3748,55.97,18.55,-151.55,1
3749,55.99,29.6,-171.94,1
3750,56.0,34.66,-185.53,1
3751,56.01,30.41,-183.7,1
3752,56.03,30.24,-177.96,1
3753,56.04,34.87,-173.07,1
3754,56.05,37.79,-170.88,1
3755,56.06,37.0,-173.05,1
3756,56.08,26.57,-176.82,1
3757,56.09,13.13,-182.43,1
3758,56.1,17.58,-184.77,1
3759,56.12,33.77,-174.35,1
3760,56.13,35.22,-154.2,1
3761,56.14,26.44,-135.49,1
3762,56.16,49.6,-129.6,2
3763,56.17,144.52,-140.16,2
3764,56.18,286.19,-156.06,2
3765,56.2,385.7,-166.16,2
3766,56.21,398.39,-169.15,2
3767,56.22,358.56,-165.92,2
3768,56.24,298.2,-161.26,2
3769,56.25,220.42,-161.98,2
3770,56.26,137.02,-165.09,2
3771,56.28,68.5,-160.59,2
3772,56.29,11.21,-143.98,2
3773,56.3,-50.5,-124.79,2
3774,56.32,-104.77,-118.51,2
3775,56.33,-135.37,-123.66,2
3776,56.35,-157.86,-123.02,2
3777,56.36,-191.42,-114.9,2
3778,56.37,-223.86,-112.98,2
3779,56.38,-231.29,-112.84,2
3780,56.4,-218.96,-103.73,2
3781,56.41,-212.95,-91.69,2
3782,56.43,-214.49,-78.13,2
3783,56.44,-206.05,-66.27,2
3784,56.45,-190.95,-69.39,2
3785,56.47,-182.51,-72.04,2
3786,56.48,-176.04,-53.89,2
3787,56.49,-166.8,-40.25,2
3788,56.51,-157.37,-49.24,2
3789,56.52,-146.67,-53.88,2
3790,56.53,-136.52,-40.11,2
3791,56.54,-129.78,-25.31,2
3792,56.56,-123.27,-19.77,1
3793,56.57,-110.84,-16.95,1
3794,56.59,-90.4,-11.45,1
3795,56.6,-71.19,-10.47,1
3796,56.61,-60.82,-14.47,1
3797,56.63,-52.81,-9.22,1
3798,56.64,-36.65,7.06,1
3799,56.65,-17.13,19.44,1
3800,56.67,-11.03,19.51,1
3801,56.68,-13.91,13.44,1
3802,56.69,-7.15,13.92,1
3803,56.71,5.92,24.18,1
3804,56.72,12.02,33.2,1
3805,56.73,10.47,37.06,1
3806,56.74,9.73,44.75,1
3807,56.76,14.97,49.26,1
3808,56.77,19.11,37.52,1
3809,56.78,21.82,29.39,1
3810,56.8,33.05,43.31,1
3811,56.81,45.01,54.03,1
3812,56.82,45.15,48.18,1
3813,56.84,43.17,49.7,1
3814,56.85,48.0,60.43,1
3815,56.86,51.53,62.65,1
3816,56.88,50.92,60.78,1
3817,56.89,53.4,61.13,1
3818,56.9,55.52,59.68,1
3819,56.92,53.07,60.74,1
3820,56.93,54.76,65.28,1
3821,56.94,62.09,64.97,1
3822,56.96,65.36,60.04,1
3823,56.97,62.83,55.48,1
3824,56.99,59.26,52.75,1
3825,57.0,56.67,53.82,1
3826,57.01,54.62,57.03,1
3827,57.03,53.38,60.03,1
3828,57.04,53.88,62.94,1
3829,57.05,58.41,58.35,1
3830,57.06,64.92,45.93,1
3831,57.08,64.66,44.8,1
3832,57.09,61.25,56.77,1
3833,57.11,63.44,63.18,1
3834,57.12,61.38,62.35,1
3835,57.13,48.16,59.97,1
3836,57.15,39.38,58.23,1
3837,57.16,41.25,60.5,1
3838,57.17,39.45,58.88,1
3839,57.19,33.73,52.89,1
3840,57.2,35.28,56.54,1
3841,57.21,37.91,62.94,1
3842,57.22,36.74,57.49,1
3843,57.24,39.33,47.32,1
3844,57.25,41.85,42.5,1
3845,57.27,34.82,42.49,1
3846,57.28,21.13,43.5,1
3847,57.29,12.83,40.09,1
3848,57.31,17.57,33.11,1
3849,57.32,24.48,33.55,1
3850,57.33,18.82,42.35,1
3851,57.35,9.18,47.93,1
3852,57.36,10.04,45.51,1
3853,57.37,13.66,40.37,1
3854,57.38,11.27,40.54,1
3855,57.4,12.25,43.0,1
3856,57.41,18.87,37.54,1
3857,57.42,17.06,30.39,1
3858,57.44,8.34,32.22,1
3859,57.45,9.69,35.76,1
3860,57.46,17.26,32.27,1
3861,57.48,10.66,24.21,1
3862,57.49,-3.69,20.02,1
3863,57.5,-2.1,23.65,1
3864,57.52,7.89,23.03,1
3865,57.53,2.24,10.67,1
3866,57.54,-12.42,5.58,1
3867,57.56,-14.12,16.82,1
3868,57.57,-7.64,20.85,1
3869,57.58,-8.47,9.76,1
3870,57.6,-9.55,9.28,1
3871,57.61,-3.57,21.59,1
3872,57.63,-4.52,18.79,1
3873,57.64,-16.56,6.13,1
3874,57.65,-20.05,9.71,1
3875,57.67,-9.27,15.15,1
3876,57.68,-6.05,4.2,1
3877,57.69,-21.01,-1.49,1
3878,57.71,-31.64,9.33,1
3879,57.72,-22.13,14.83,1
3880,57.73,-13.32,4.05,1
3881,57.75,-22.97,-6.72,1
3882,57.76,-36.19,-4.68,1
3883,57.77,-33.97,-3.71,1
3884,57.79,-22.36,-13.61,1
3885,57.8,-17.28,-19.37,1
3886,57.81,-16.14,-15.54,1
3887,57.83,-10.88,-11.44,1
3888,57.84,-13.55,-10.38,1
3889,57.85,-30.33,-13.84,1
3890,57.87,-40.22,-19.61,1
3891,57.88,-28.53,-18.38,1
3892,57.89,-10.46,-11.76,1
3893,57.9,-5.35,-8.74,1
3894,57.92,-10.87,-9.29,1
3895,57.93,-13.57,-10.71,1
3896,57.95,-14.33,-9.59,1
3897,57.96,-19.88,-5.91,1
3898,57.97,-19.94,-8.93,1
3899,57.99,-12.4,-18.0,1
3900,58.0,-17.29,-22.95,1
3901,58.01,-31.32,-26.4,1
3902,58.02,-30.76,-30.88,1
3903,58.04,-21.23,-26.07,1
3904,58.05,-22.4,-16.82,1
3905,58.06,-30.39,-17.1,1
3906,58.08,-33.46,-19.39,1
3907,58.09,-29.22,-18.53,1
3908,58.1,-18.07,-23.4,1
3909,58.12,-5.66,-27.18,1
3910,58.13,-3.46,-20.54,1
3911,58.14,-10.23,-13.68,1
3912,58.16,-11.47,-13.67,0
3913,58.17,-4.83,-12.69,0
3914,58.18,-2.51,-9.92,0
3915,58.2,-8.51,-11.4,0
3916,58.21,-16.6,-14.22,0
3917,58.22,-21.12,-10.08,0
3918,58.24,-22.78,2.62,0
3919,58.25,-43.64,12.7,0
3920,58.26,-113.02,9.12,0
3921,58.28,-215.49,-1.88,0
3922,58.29,-303.44,-12.01,0
3923,58.31,-353.47,-26.92,0
3924,58.32,-363.32,-49.65,0
3925,58.33,-333.46,-68.09,0
3926,58.35,-280.83,-67.92,0
3927,58.36,-232.3,-51.3,0
3928,58.37,-196.77,-38.76,0
3929,58.38,-158.19,-39.0,0
3930,58.4,-79.44,-34.25,0
3931,58.41,69.76,-16.55,0
3932,58.43,240.94,-4.89,0
3933,58.44,333.21,-8.52,0
3934,58.45,331.84,-13.47,0
3935,58.47,309.79,-9.69,0
3936,58.48,305.28,-1.15,0
3937,58.49,299.84,4.22,0
3938,58.51,279.48,3.06,0
3939,58.52,253.44,-1.6,0
3940,58.53,233.6,-5.23,0
3941,58.54,218.91,-5.86,0
3942,58.56,197.22,-4.85,1
3943,58.57,170.25,0.27,1
3944,58.59,154.76,8.92,1
3945,58.6,143.34,4.61,1
3946,58.61,104.57,-16.15,1
3947,58.63,50.11,-26.13,1
3948,58.64,41.56,-11.97,1
3949,58.65,86.07,1.85,1
3950,58.66,113.85,-3.3,1
3951,58.68,96.28,-12.36,1
3952,58.69,74.54,-9.57,1
3953,58.7,68.71,2.18,1
3954,58.72,60.33,11.04,1
3955,58.73,46.87,5.89,1
3956,58.74,40.2,-3.53,1
3957,58.76,33.89,-0.22,1
3958,58.77,19.84,4.48,1
3959,58.78,8.63,-1.7,1
3960,58.8,8.51,-5.09,1
3961,58.81,6.59,2.47,1
3962,58.82,-5.79,11.99,1
3963,58.84,-17.61,14.96,1
3964,58.85,-22.64,9.26,1
3965,58.86,-27.25,-0.71,1
3966,58.88,-32.36,-3.98,1
3967,58.89,-32.61,2.16,1
3968,58.9,-32.3,7.62,1
3969,58.92,-39.67,10.64,1
3970,58.93,-45.08,13.05,1
3971,58.95,-39.32,6.31,1
3972,58.96,-40.45,-3.28,1
3973,58.97,-58.88,-0.58,1
3974,58.99,-69.6,6.23,1
3975,59.0,-60.05,7.32,1
3976,59.01,-56.98,8.8,1
3977,59.03,-70.07,9.93,1
3978,59.04,-71.91,6.74,1
3979,59.05,-56.14,4.45,1
3980,59.06,-47.72,6.8,1
3981,59.08,-54.2,7.66,1
3982,59.09,-58.69,0.37,1
3983,59.11,-57.37,-6.25,1
3984,59.12,-64.72,2.96,1
3985,59.13,-78.04,19.16,1
3986,59.15,-77.11,18.61,1
3987,59.16,-62.36,7.26,1
3988,59.17,-55.96,6.43,1
3989,59.19,-63.09,8.9,1
3990,59.2,-67.02,2.98,1
3991,59.21,-66.1,-2.51,1
3992,59.22,-70.2,0.32,1
3993,59.24,-67.32,11.27,1
3994,59.25,-46.12,17.74,1
3995,59.27,-28.63,7.42,1
3996,59.28,-35.38,-4.94,1
3997,59.29,-50.6,-2.94,1
3998,59.3,-53.8,5.43,1
3999,59.32,-46.23,10.92,1
4000,59.33,-38.2,12.94,1
4001,59.34,-38.99,10.06,1
4002,59.36,-44.87,4.65,1
4003,59.37,-44.94,2.28,1
4004,59.38,-41.45,4.04,1
4005,59.4,-36.95,10.87,1
4006,59.41,-28.39,16.06,1
4007,59.42,-23.37,7.31,1
4008,59.44,-26.96,-5.21,1
4009,59.45,-30.87,-4.09,1
4010,59.46,-29.63,1.03,1
4011,59.48,-25.0,-1.44,1
4012,59.49,-14.83,-3.65,1
4013,59.5,-2.38,1.85,1
4014,59.52,-4.31,10.51,1
4015,59.53,-21.97,13.08,1
4016,59.54,-26.96,7.7,1
4017,59.56,-7.68,2.76,1
4018,59.57,4.11,1.15,1
4019,59.59,-8.34,-0.7,1
4020,59.6,-15.8,2.14,1
4021,59.61,-6.74,12.08,1
4022,59.63,-1.61,13.88,1
4023,59.64,2.4,2.44,1
4024,59.65,17.28,-6.69,1
4025,59.67,24.88,-6.89,1
4026,59.68,9.48,-3.96,1
4027,59.69,-8.36,-3.1,1
4028,59.71,-0.72,-5.4,1
4029,59.72,21.78,-7.01,1
4030,59.73,28.73,-4.57,1
4031,59.75,17.79,-1.88,1
4032,59.76,6.83,-1.62,1
4033,59.77,4.84,-2.07,1
4034,59.79,10.44,-2.77,1
4035,59.8,19.63,-1.31,1
4036,59.81,29.09,0.61,1
4037,59.83,34.67,-4.22,1
4038,59.84,30.11,-7.05,1
4039,59.85,19.02,1.28,1
4040,59.87,16.17,8.2,1
4041,59.88,23.06,4.27,1
4042,59.89,23.55,-4.24,1
4043,59.9,14.98,-4.67,1
4044,59.92,15.34,7.61,1
4045,59.93,28.47,17.32,1
4046,59.94,36.77,12.16,1
4047,59.96,33.64,4.08,1
4048,59.97,28.16,1.99,1
4049,59.98,22.99,-1.85,1
4050,60.0,18.18,-6.42,1
4051,60.01,21.0,-5.52,1
4052,60.02,28.56,-4.04,1
4053,60.04,31.91,-5.33,1
4054,60.05,32.22,-6.09,1
4055,60.06,26.4,-6.51,1
4056,60.08,12.28,-7.22,1
4057,60.09,6.38,-7.61,1
4058,60.1,18.84,-10.72,1
4059,60.12,33.23,-13.26,1
4060,60.13,33.63,-8.78,1
4061,60.14,28.69,-6.68,1
4062,60.16,29.08,-14.38,0
4063,60.17,28.94,-16.16,0
4064,60.18,15.91,-7.08,0
4065,60.2,-31.13,-7.73,0
4066,60.21,-129.89,-24.73,0
4067,60.22,-249.08,-45.25,0
4068,60.24,-325.02,-59.82,0
4069,60.25,-335.45,-60.4,0
4070,60.27,-302.65,-41.85,0
4071,60.28,-240.3,-13.4,0
4072,60.29,-160.32,5.62,0
4073,60.31,-89.98,7.82,0
4074,60.32,-35.04,10.13,0
4075,60.33,22.24,23.6,0
4076,60.35,83.39,37.28,0
4077,60.36,129.89,43.46,0
4078,60.37,153.68,43.0,0
4079,60.38,168.92,35.69,0
4080,60.4,186.48,26.03,0
4081,60.41,201.52,21.81,0
4082,60.43,207.68,25.91,0
4083,60.44,206.43,30.12,0
4084,60.45,205.05,20.99,0
4085,60.47,206.61,5.3,0
4086,60.48,208.11,4.77,0
4087,60.49,210.88,17.76,0
4088,60.51,215.42,19.89,0
4089,60.52,213.1,6.43,0
4090,60.53,197.98,-4.01,0
4091,60.54,174.0,-3.85,0
4092,60.56,148.49,-1.33,1
4093,60.57,122.77,-1.63,1
4094,60.58,94.53,-1.66,1
4095,60.6,78.42,1.67,1
4096,60.61,84.46,3.65,1
4097,60.62,88.57,0.6,1
4098,60.64,80.33,-1.04,1
4099,60.65,75.42,5.62,1
4100,60.66,68.41,17.05,1
4101,60.68,51.78,22.86,1
4102,60.69,37.88,16.27,1
4103,60.7,27.9,4.98,1
4104,60.72,12.94,5.25,1
4105,60.73,-1.34,13.5,1
4106,60.74,-3.67,8.44,1
4107,60.76,-3.61,-6.57,1
4108,60.77,-17.42,-10.29,1
4109,60.78,-33.04,-7.51,1
4110,60.8,-34.25,-8.81,1
4111,60.81,-32.26,-3.0,1
4112,60.82,-40.49,10.59,1
4113,60.84,-50.5,15.9,1
4114,60.85,-52.4,4.56,1
4115,60.86,-53.37,-18.93,1
4116,60.88,-60.52,-32.23,1
4117,60.89,-70.81,-19.46,1
4118,60.9,-84.44,-2.61,1
4119,60.92,-101.39,-3.13,1
4120,60.93,-112.17,-6.91,1
4121,60.95,-105.04,-2.66,1
4122,60.96,-82.34,-0.34,1
4123,60.97,-67.06,1.44,1
4124,60.99,-70.52,7.52,1
4125,61.0,-69.59,8.0,1
4126,61.01,-53.65,2.61,1
4127,61.03,-48.38,-0.06,1
4128,61.04,-58.57,0.16,1
4129,61.05,-62.21,1.59,1
4130,61.06,-62.08,-1.51,1
4131,61.08,-68.97,-9.34,1
4132,61.09,-72.83,-6.1,1
4133,61.11,-70.79,6.2,1
4134,61.12,-72.94,0.56,1
4135,61.13,-75.67,-22.02,1
4136,61.15,-71.92,-31.86,1
4137,61.16,-67.63,-23.57,1
4138,61.17,-67.79,-8.22,1
4139,61.19,-70.09,8.3,1
4140,61.2,-71.99,10.13,1
4141,61.21,-68.93,-3.37,1
4142,61.22,-61.36,-12.24,1
4143,61.24,-58.37,-17.59,1
4144,61.25,-60.3,-23.39,1
4145,61.26,-56.76,-20.18,1
4146,61.28,-46.4,-14.14,1
4147,61.29,-40.16,-11.37,1
4148,61.3,-41.32,-2.89,1
4149,61.32,-41.49,6.72,1
4150,61.33,-37.28,5.8,1
4151,61.34,-36.03,-0.21,1
4152,61.36,-39.67,-1.85,1
4153,61.37,-38.38,0.31,1
4154,61.38,-28.8,-1.68,1
4155,61.4,-21.32,-7.74,1
4156,61.41,-24.13,-3.72,1
4157,61.42,-26.7,2.99,1
4158,61.44,-16.71,-8.63,1
4159,61.45,-8.06,-20.88,1
4160,61.46,-14.84,-9.16,1
4161,61.48,-22.08,7.41,1
4162,61.49,-17.94,2.89,1
4163,61.5,-12.25,-11.15,1
4164,61.52,-9.56,-11.36,1
4165,61.53,-5.22,-2.24,1
4166,61.54,-2.31,-4.92,1
4167,61.56,-5.87,-14.11,1
4168,61.57,-10.88,-6.11,1
4169,61.59,-8.06,8.46,1
4170,61.6,1.4,7.83,1
4171,61.61,4.13,6.38,1
4172,61.63,-1.22,11.07,1
4173,61.64,-0.29,6.4,1
4174,61.65,6.49,0.08,1
4175,61.67,6.67,3.46,1
4176,61.68,3.97,4.32,1
4177,61.69,7.03,-3.23,1
4178,61.71,12.32,-9.89,1
4179,61.72,14.81,-8.41,1
4180,61.73,17.5,3.03,1
4181,61.75,24.05,15.08,1
4182,61.76,25.9,15.74,1
4183,61.77,17.01,12.01,1
4184,61.79,15.3,13.5,1
4185,61.8,27.22,13.16,1
4186,61.81,30.81,6.5,1
4187,61.83,20.8,-2.62,1
4188,61.84,17.07,-6.86,1
4189,61.85,23.41,-0.56,1
4190,61.86,22.56,5.09,1
4191,61.88,12.0,1.45,1
4192,61.89,10.37,2.27,1
4193,61.9,24.02,7.06,1
4194,61.92,37.78,0.48,1
4195,61.93,36.92,-6.91,1
4196,61.94,26.99,-0.37,1
4197,61.96,25.2,9.04,1
4198,61.97,31.1,9.76,1
4199,61.98,31.27,4.72,1
4200,62.0,28.78,0.12,1
4201,62.01,34.01,-2.1,1
4202,62.02,40.8,-3.55,1
4203,62.04,39.06,-1.74,1
4204,62.05,33.09,5.71,1
4205,62.06,30.49,8.29,1
4206,62.08,27.35,0.91,1
4207,62.09,17.52,-3.0,1
4208,62.1,9.86,-0.88,1
4209,62.12,16.48,0.62,1
4210,62.13,28.28,6.66,1
4211,62.14,32.04,11.13,1
4212,62.16,29.88,2.54,2
4213,62.17,23.04,-1.11,2
4214,62.19,16.31,13.77,2
4215,62.2,21.17,29.22,2
4216,62.21,33.4,36.75,2
4217,62.22,36.73,46.54,2
4218,62.24,35.9,53.17,2
4219,62.25,76.8,49.13,2
4220,62.27,187.7,41.94,2
4221,62.28,313.71,32.27,2
4222,62.29,385.56,17.13,2
4223,62.31,391.38,-2.52,2
4224,62.32,351.45,-24.94,2
4225,62.33,296.2,-37.0,2
4226,62.35,250.92,-32.5,2
4227,62.36,215.36,-28.15,2
4228,62.37,179.08,-33.44,2
4229,62.38,141.56,-43.54,2
4230,62.4,85.8,-53.2,2
4231,62.41,-36.44,-50.12,2
4232,62.43,-210.05,-32.18,2
4233,62.44,-323.91,-20.54,2
4234,62.45,-335.37,-21.56,2
4235,62.47,-322.23,-18.86,2
4236,62.48,-334.09,-10.71,2
4237,62.49,-343.95,-8.48,2
4238,62.5,-323.93,-12.9,2
4239,62.52,-288.33,-15.5,2
4240,62.53,-264.79,-11.34,2
4241,62.54,-250.76,-6.88,2
4242,62.56,-231.16,-8.2,1
4243,62.57,-209.57,-8.53,1
4244,62.58,-192.06,-2.52,1
4245,62.6,-175.22,4.0,1
4246,62.61,-154.96,7.03,1
4247,62.62,-131.46,7.54,1
4248,62.64,-111.04,6.72,1
4249,62.65,-99.56,2.44,1
4250,62.66,-87.94,-6.47,1
4251,62.68,-66.9,-10.24,1
4252,62.69,-50.73,-3.66,1
4253,62.7,-47.25,1.59,1
4254,62.72,-38.46,0.5,1
4255,62.73,-19.89,0.28,1
4256,62.74,-8.42,0.29,1
4257,62.76,-6.7,-2.52,1
4258,62.77,0.58,1.89,1
4259,62.78,17.04,12.41,1
4260,62.8,24.28,10.81,1
4261,62.81,15.53,1.08,1
4262,62.825,15.71,-1.54,1
4263,62.84,35.83,-2.36,1
4264,62.85,52.08,-6.56,1
4265,62.87,51.78,-4.62,1
4266,62.88,47.51,7.84,1
4267,62.89,48.24,18.8,1
4268,62.9,52.17,15.74,1
4269,62.92,55.23,6.81,1
4270,62.93,56.38,6.3,1
4271,62.95,58.3,7.73,1
4272,62.96,61.94,3.1,1
4273,62.97,63.77,5.92,1
4274,62.99,62.8,16.42,1
4275,63.0,63.0,14.89,1
4276,63.01,63.84,8.28,1
4277,63.03,61.35,12.77,1
4278,63.04,58.77,14.76,1
4279,63.05,62.76,5.28,1
4280,63.06,74.02,-2.26,1
4281,63.08,86.3,-3.09,1
4282,63.09,85.71,-2.12,1
4283,63.11,71.4,0.46,1
4284,63.12,60.62,5.39,1
4285,63.13,60.06,11.85,1
4286,63.14,62.04,11.97,1
4287,63.16,59.57,2.69,1
4288,63.17,53.17,3.43,1
4289,63.18,54.49,20.56,1
4290,63.2,65.71,24.31,1
4291,63.21,67.47,4.65,1
4292,63.22,53.25,-9.26,1
4293,63.24,42.28,-4.94,1
4294,63.25,45.1,1.57,1
4295,63.26,50.56,1.47,1
4296,63.28,52.96,-0.26,1
4297,63.29,58.51,4.32,1
4298,63.3,59.97,12.37,1
4299,63.32,48.25,12.56,1
4300,63.33,33.71,9.57,1
4301,63.34,26.12,10.53,1
4302,63.36,23.85,5.85,1
4303,63.37,24.63,-2.58,1
4304,63.38,24.91,0.16,1
4305,63.4,24.85,7.26,1
4306,63.41,23.5,4.22,1
4307,63.42,16.47,-4.76,1
4308,63.44,10.12,-10.37,1
4309,63.45,14.89,-6.98,1
4310,63.46,21.04,1.52,1
4311,63.48,12.73,-0.63,1
4312,63.49,0.08,-8.96,1
4313,63.51,1.45,-5.27,1
4314,63.52,7.7,0.88,1
4315,63.53,4.57,-0.79,1
4316,63.54,5.3,3.1,1
4317,63.56,13.69,4.02,1
4318,63.57,6.08,-8.66,1
4319,63.59,-12.49,-8.28,1
4320,63.6,-9.41,8.23,1
4321,63.61,8.09,8.31,1
4322,63.63,7.63,-3.25,1
4323,63.64,-7.57,-1.42,1
4324,63.65,-13.89,8.92,1
4325,63.67,-10.05,12.11,1
4326,63.68,-10.13,3.6,1
4327,63.69,-16.5,-6.79,1
4328,63.71,-18.33,-7.32,1
4329,63.72,-16.32,-1.32,1
4330,63.73,-19.91,2.1,1
4331,63.75,-18.51,-0.56,1
4332,63.76,-7.13,-9.14,1
4333,63.77,-10.32,-15.63,1
4334,63.78,-28.56,-11.02,1
4335,63.8,-30.91,-2.15,1
4336,63.81,-19.94,-1.34,1
4337,63.82,-21.03,-2.36,1
4338,63.84,-28.45,1.85,1
4339,63.85,-21.66,0.23,1
4340,63.86,-8.57,-5.9,1
4341,63.88,-14.49,-2.2,1
4342,63.89,-34.08,3.51,1
4343,63.9,-38.32,-1.4,1
4344,63.92,-29.71,-8.91,1
4345,63.93,-29.53,-10.92,1
4346,63.94,-30.67,-9.97,1
4347,63.96,-22.29,-8.95,1
4348,63.97,-19.2,-7.59,1
4349,63.98,-29.69,-6.33,1
4350,64.0,-35.31,-10.21,1
4351,64.01,-25.48,-18.22,1
4352,64.02,-17.62,-19.22,1
4353,64.04,-21.14,-10.22,1
4354,64.05,-22.25,-1.23,1
4355,64.06,-17.76,2.17,1
4356,64.08,-22.41,0.78,1
4357,64.09,-39.35,-0.95,1
4358,64.1,-46.79,3.88,1
4359,64.12,-29.99,11.99,1
4360,64.13,-11.36,20.7,1
4361,64.14,-12.04,58.12,1
4362,64.16,-18.64,144.47,1
4363,64.17,-19.48,242.17,1
4364,64.18,-18.23,326.58,1
4365,64.2,-16.05,390.58,1
4366,64.21,-21.78,378.62,1
4367,64.22,-57.17,295.33,1
4368,64.24,-106.12,233.59,1
4369,64.25,-50.27,213.33,1
4370,64.26,122.27,184.5,1
4371,64.28,91.84,139.68,1
4372,64.29,-252.0,103.54,1
4373,64.3,-455.99,78.09,1
4374,64.32,-288.67,51.19,1
4375,64.33,-100.11,22.61,1
4376,64.34,-143.18,-2.75,1
4377,64.36,-221.91,-24.7,1
4378,64.37,-155.77,-45.13,1
4379,64.38,-129.46,-64.14,1
4380,64.4,-187.97,-81.07,1
4381,64.41,-15.68,-96.05,1
4382,64.42,274.72,-109.95,1
4383,64.44,185.07,-122.95,1
4384,64.45,-78.44,-134.05,1
4385,64.46,72.87,-142.98,1
4386,64.48,429.97,-151.18,1
4387,64.49,461.08,-158.63,1
4388,64.5,302.16,-164.71,1
4389,64.52,321.61,-169.56,1
4390,64.53,383.88,-173.15,1
4391,64.54,174.13,-175.68,1
4392,64.56,-128.36,-185.75,1
4393,64.57,-89.09,-221.98,1
4394,64.58,188.63,-282.12,1
4395,64.6,245.39,-339.72,1
4396,64.61,63.09,-372.51,1
4397,64.62,-38.95,-400.57,1
4398,64.64,80.2,-441.67,1
4399,64.65,282.56,-392.55,1
4400,64.66,279.09,-263.25,1
4401,64.68,-12.57,-274.89,1
4402,64.69,-216.13,-414.35,1
4403,64.7,-41.64,-476.5,1
4404,64.72,144.68,-409.19,1
4405,64.73,68.65,-335.36,1
4406,64.74,89.11,-375.7,1
4407,64.76,252.29,-400.19,1
4408,64.77,154.41,-342.25,1
4409,64.79,-124.84,-367.71,1
4410,64.8,-217.59,-322.75,1
4411,64.81,-133.38,56.83,1
4412,64.82,9.3,399.77,1
4413,64.84,212.54,184.18,1
4414,64.85,330.59,-207.34,1
4415,64.86,241.43,-97.49,1
4416,64.88,10.85,226.85,1
4417,64.89,-294.39,236.1,1
4418,64.9,-467.79,191.87,1
4419,64.92,-328.72,292.44,1
4420,64.93,-93.31,225.58,1
4421,64.94,45.14,68.55,1
4422,64.96,104.07,106.85,1
4423,64.97,-45.41,197.97,1
4424,64.98,-345.58,275.27,1
4425,65.0,-393.01,391.16,1
4426,65.01,-189.63,286.8,1
4427,65.02,-150.51,-29.38,1
4428,65.04,-301.1,-152.91,1
4429,65.05,-345.65,-115.05,1
4430,65.06,-277.94,-192.17,1
4431,65.08,-273.6,-271.77,1
4432,65.09,-318.55,-203.41,1
4433,65.1,-292.25,-112.16,1
4434,65.12,-133.09,-86.39,1
4435,65.13,82.05,-62.61,1
4436,65.14,167.29,-11.27,1
4437,65.16,89.13,37.09,1
4438,65.17,21.8,81.91,1
4439,65.18,59.47,138.74,1
4440,65.2,110.43,201.65,1
4441,65.21,97.77,267.91,1
4442,65.22,67.02,333.19,1
4443,65.24,67.96,370.86,1
4444,65.25,76.17,378.55,1
4445,65.26,62.49,391.41,1
4446,65.28,44.74,417.41,1
4447,65.29,42.77,424.67,1
4448,65.3,38.45,400.41,1
4449,65.32,19.59,367.86,1
4450,65.33,9.35,354.54,1
4451,65.34,23.02,363.23,1
4452,65.36,37.36,367.01,1
4453,65.37,27.79,347.97,1
4454,65.38,11.41,325.86,1
4455,65.4,15.38,320.2,1
4456,65.41,26.92,319.85,1
4457,65.42,23.24,307.16,1
4458,65.44,17.14,280.09,1
4459,65.45,21.42,248.49,1
4460,65.46,26.71,223.73,1
4461,65.48,31.48,211.18,1
4462,65.49,37.27,203.85,1
4463,65.5,37.07,187.0,1
4464,65.52,31.28,157.82,1
4465,65.53,25.23,134.68,1
4466,65.54,22.98,127.28,1
4467,65.56,26.3,115.96,1
4468,65.57,29.84,91.96,1
4469,65.58,30.37,77.59,1
4470,65.6,31.15,79.9,1
4471,65.61,28.32,76.41,1
4472,65.62,21.44,56.68,1
4473,65.64,19.63,33.23,1
4474,65.65,22.47,17.35,1
4475,65.66,23.12,9.37,1
4476,65.68,25.93,1.18,1
4477,65.69,34.29,-16.46,1
4478,65.7,36.28,-36.07,1
4479,65.72,27.39,-41.89,1
4480,65.73,20.1,-41.45,1
4481,65.74,19.69,-51.15,1
4482,65.76,19.38,-68.72,1
4483,65.77,16.2,-88.07,1
4484,65.78,15.72,-104.64,1
4485,65.8,19.5,-108.59,1
4486,65.81,20.58,-103.56,1
4487,65.82,17.86,-105.22,1
4488,65.84,17.32,-113.19,1
4489,65.85,17.49,-120.43,1
4490,65.86,16.97,-131.13,1
4491,65.88,21.12,-142.84,1
4492,65.89,25.57,-144.71,1
4493,65.9,22.78,-141.18,1
4494,65.92,20.69,-144.57,1
4495,65.93,24.54,-154.09,1
4496,65.94,26.04,-162.07,1
4497,65.96,25.69,-165.93,1
4498,65.97,23.16,-166.45,1
4499,65.98,7.04,-161.92,1
4500,66.0,-7.7,-157.8,1
4501,66.01,1.25,-164.25,1
4502,66.02,14.8,-168.34,1
4503,66.04,15.25,-159.89,1
4504,66.05,17.6,-160.64,1
4505,66.06,23.16,-170.59,1
4506,66.08,14.42,-162.62,1
4507,66.09,-5.34,-148.7,1
4508,66.11,-14.79,-155.7,1
4509,66.12,-2.67,-170.88,1
4510,66.13,16.64,-172.78,1
4511,66.14,19.64,-160.94,1
4512,66.16,10.64,-144.5,2
4513,66.17,8.18,-130.45,2
4514,66.18,10.84,-117.07,2
4515,66.2,6.9,-106.48,2
4516,66.21,12.54,-102.68,2
4517,66.22,85.83,-98.55,2
4518,66.24,243.94,-99.46,2
4519,66.25,388.31,-117.87,2
4520,66.26,414.41,-132.8,2
4521,66.28,349.15,-126.69,2
4522,66.29,281.81,-117.91,2
4523,66.3,229.61,-116.66,2
4524,66.32,154.76,-118.0,2
4525,66.33,56.97,-121.29,2
4526,66.34,-25.8,-116.57,2
4527,66.36,-77.42,-101.63,2
4528,66.37,-117.17,-96.52,2
4529,66.38,-162.78,-101.99,2
4530,66.4,-203.23,-94.91,2
4531,66.41,-221.68,-75.81,2
4532,66.42,-227.12,-61.27,2
4533,66.44,-236.87,-51.59,2
4534,66.45,-245.25,-48.64,2
4535,66.46,-240.13,-55.16,2
4536,66.48,-226.31,-55.76,2
4537,66.49,-214.68,-40.03,2
4538,66.5,-208.09,-19.89,2
4539,66.52,-201.12,-11.8,2
4540,66.53,-192.02,-14.71,2
4541,66.54,-187.98,-13.76,2
4542,66.56,-185.64,-9.39,1
4543,66.57,-173.74,-11.74,1
4544,66.58,-156.18,-14.43,1
4545,66.6,-141.48,-6.02,1
4546,66.61,-124.08,8.72,1
4547,66.62,-101.59,18.81,1
4548,66.64,-87.18,20.24,1
4549,66.65,-83.99,14.87,1
4550,66.66,-71.72,14.81,1
4551,66.68,-43.11,27.26,1
4552,66.69,-22.42,35.51,1
4553,66.7,-24.21,31.73,1
4554,66.72,-27.43,28.11,1
4555,66.73,-17.85,24.72,1
4556,66.75,-10.53,23.48,1
4557,66.76,-7.26,34.54,1
4558,66.77,5.55,45.0,1
4559,66.79,23.74,42.46,1
4560,66.8,31.76,41.46,1
4561,66.81,27.05,44.01,1
4562,66.82,23.09,38.3,1
4563,66.84,29.64,38.95,1
4564,66.85,38.36,60.38,1
4565,66.86,41.05,76.96,1
4566,66.88,44.08,66.03,1
4567,66.89,51.45,50.95,1
4568,66.9,55.03,56.14,1
4569,66.92,47.68,65.89,1
4570,66.93,41.36,61.76,1
4571,66.94,53.0,55.86,1
4572,66.96,71.4,60.79,1
4573,66.97,69.16,65.27,1
4574,66.98,48.57,59.92,1
4575,67.0,42.82,53.16,1
4576,67.01,61.51,56.74,1
4577,67.02,78.17,74.75,1
4578,67.04,77.19,89.5,1
4579,67.05,64.95,76.12,1
4580,67.06,51.69,51.1,1
4581,67.08,49.71,50.51,1
4582,67.09,58.86,64.95,1
4583,67.1,64.26,63.09,1
4584,67.12,64.72,50.77,1
4585,67.13,68.71,52.43,1
4586,67.14,68.3,64.59,1
4587,67.16,58.19,66.05,1
4588,67.17,51.63,55.86,1
4589,67.18,51.97,47.68,1
4590,67.2,49.52,42.21,1
4591,67.21,47.3,38.91,1
4592,67.22,53.42,43.45,1
4593,67.24,58.81,47.49,1
4594,67.25,52.66,39.99,1
4595,67.26,45.67,33.19,1
4596,67.28,47.18,39.92,1
4597,67.29,50.63,45.01,1
4598,67.3,51.95,34.78,1
4599,67.32,46.67,25.49,1
4600,67.33,32.06,27.68,1
4601,67.34,22.63,29.27,1
4602,67.36,27.85,26.35,1
4603,67.37,31.24,22.62,1
4604,67.38,25.96,16.9,1
4605,67.4,24.75,16.71,1
4606,67.41,26.96,26.92,1
4607,67.43,24.37,33.59,1
4608,67.44,20.7,27.16,1
4609,67.45,19.85,13.26,1
4610,67.46,19.74,3.55,1
4611,67.48,16.29,6.65,1
4612,67.49,9.54,13.18,1
4613,67.5,2.01,12.85,1
4614,67.52,-6.16,15.27,1
4615,67.53,-10.33,20.92,1
4616,67.54,-7.63,17.34,1
4617,67.56,-4.28,9.15,1
4618,67.57,-1.46,8.03,1
4619,67.58,3.71,11.62,1
4620,67.6,8.18,11.54,1
4621,67.61,6.94,3.7,1
4622,67.62,2.11,-3.51,1
4623,67.64,0.85,2.14,1
4624,67.65,-2.59,11.28,1
4625,67.66,-14.23,9.58,1
4626,67.68,-17.77,2.55,1
4627,67.69,-7.98,-6.72,1
4628,67.7,-4.89,-17.77,1
4629,67.72,-10.82,-17.09,1
4630,67.73,-15.83,-4.8,1
4631,67.74,-19.97,-2.67,1
4632,67.76,-20.6,-12.52,1
4633,67.77,-14.87,-12.77,1
4634,67.78,-9.6,-3.83,1
4635,67.8,-10.6,-4.69,1
4636,67.81,-15.08,-11.4,1
4637,67.82,-18.4,-7.64,1
4638,67.84,-18.52,-1.22,1
4639,67.85,-20.42,-9.74,1
4640,67.86,-25.35,-25.67,1
4641,67.88,-23.08,-26.71,1
4642,67.89,-16.35,-10.27,1
4643,67.9,-18.16,4.7,1
4644,67.92,-23.14,0.54,1
4645,67.93,-23.43,-19.93,1
4646,67.94,-26.98,-32.85,1
4647,67.96,-34.78,-21.38,1
4648,67.97,-37.74,-2.77,1
4649,67.98,-32.8,-3.67,1
4650,68.0,-20.46,-13.93,1
4651,68.01,-7.36,-9.45,1
4652,68.02,-7.12,-1.63,1
4653,68.04,-22.13,-10.46,1
4654,68.05,-36.51,-24.34,1
4655,68.06,-34.2,-24.48,1
4656,68.08,-20.78,-15.29,1
4657,68.09,-17.42,-11.81,1
4658,68.11,-24.63,-16.35,1
4659,68.12,-18.92,-19.38,1
4660,68.13,-1.04,-16.4,1
4661,68.14,0.79,-10.71,1
4662,68.16,-15.5,-7.82,0
4663,68.17,-22.45,-13.08,0
4664,68.18,-14.39,-18.49,0
4665,68.2,-11.34,-11.59,0
4666,68.21,-18.74,-1.44,0
4667,68.22,-21.47,1.47,0
4668,68.24,-12.21,6.67,0
4669,68.25,-12.24,20.46,0
4670,68.26,-63.37,31.2,0
4671,68.28,-169.85,25.33,0
4672,68.29,-272.84,-0.56,0
4673,68.3,-328.82,-35.85,0
4674,68.32,-348.44,-58.0,0
4675,68.33,-342.92,-61.19,0
4676,68.34,-312.49,-64.94,0
4677,68.36,-269.77,-71.79,0
4678,68.37,-228.65,-64.72,0
4679,68.38,-191.25,-46.76,0
4680,68.4,-147.78,-34.07,0
4681,68.41,-68.71,-26.7,0
4682,68.42,68.19,-14.33,0
4683,68.44,220.17,-1.12,0
4684,68.45,311.78,0.01,0
4685,68.46,333.17,-5.52,0
4686,68.48,330.16,-4.51,0
4687,68.49,322.38,-3.5,0
4688,68.5,304.62,-11.49,0
4689,68.52,286.67,-12.62,0
4690,68.53,275.66,2.13,0
4691,68.54,256.19,13.35,0
4692,68.56,223.47,13.7,1
4693,68.57,198.76,13.97,1
4694,68.58,190.35,14.77,1
4695,68.6,180.49,12.99,1
4696,68.61,154.58,10.54,1
4697,68.62,109.62,6.45,1
4698,68.64,63.54,-0.88,1
4699,68.65,48.96,-9.62,1
4700,68.66,62.26,-14.72,1
4701,68.68,73.24,-9.29,1
4702,68.69,78.51,3.52,1
4703,68.7,78.9,8.35,1
4704,68.72,62.02,3.77,1
4705,68.73,40.51,3.68,1
4706,68.75,37.92,6.23,1
4707,68.76,39.33,-0.5,1
4708,68.77,20.28,-9.52,1
4709,68.79,-4.44,-5.94,1
4710,68.8,-15.01,6.42,1
4711,68.81,-21.61,9.35,1
4712,68.82,-29.15,0.96,1
4713,68.84,-25.43,-1.43,1
4714,68.85,-13.24,2.25,1
4715,68.86,-9.48,-1.85,1
4716,68.88,-19.35,-6.44,1
4717,68.89,-32.67,-2.12,1
4718,68.9,-39.82,0.75,1
4719,68.92,-41.65,-0.1,1
4720,68.93,-43.26,2.59,1
4721,68.94,-45.2,4.97,1
4722,68.96,-46.85,4.07,1
4723,68.97,-52.18,3.64,1
4724,68.98,-59.75,4.06,1
4725,69.0,-60.63,4.24,1
4726,69.01,-57.22,0.53,1
4727,69.02,-60.54,-7.7,1
4728,69.04,-64.46,-5.87,1
4729,69.05,-57.28,11.28,1
4730,69.06,-49.56,23.02,1
4731,69.08,-51.54,17.29,1
4732,69.09,-56.49,6.08,1
4733,69.1,-63.45,-1.92,1
4734,69.12,-72.68,-4.98,1
4735,69.13,-77.47,1.48,1
4736,69.14,-78.37,9.27,1
4737,69.16,-73.87,7.51,1
4738,69.17,-58.86,3.62,1
4739,69.18,-47.55,4.38,1
4740,69.2,-51.59,4.9,1
4741,69.21,-56.58,4.49,1
4742,69.22,-57.78,7.74,1
4743,69.24,-62.52,11.81,1
4744,69.25,-61.51,9.64,1
4745,69.26,-52.83,5.04,1
4746,69.28,-52.44,6.9,1
4747,69.29,-56.95,10.68,1
4748,69.3,-50.51,10.66,1
