,Timestamp,Data1,Data2,Label
0,6.0,-2.22,-1.77,1
1,6.01,13.56,-8.38,1
2,6.03,-30.88,7.97,1
3,6.04,-31.51,17.24,1
4,6.05,7.23,6.48,1
5,6.07,28.39,-1.01,1
6,6.08,-7.91,-2.44,1
7,6.09,2.33,4.92,1
8,6.11,38.1,0.9,1
9,6.12,-24.48,-18.7,1
10,6.13,16.23,-2.61,1
11,6.15,15.54,-9.99,2
12,6.16,10.56,-1.04,2
13,6.17,118.67,-14.49,2
14,6.19,141.84,-17.39,2
15,6.2,182.4,-22.4,2
16,6.21,237.17,-19.7,2
17,6.23,204.72,-5.62,2
18,6.24,87.04,-28.85,2
19,6.25,21.56,-10.79,2
20,6.27,-31.43,-9.42,2
21,6.28,-109.34,2.4,2
22,6.29,-163.32,23.17,2
23,6.31,-171.31,7.58,2
24,6.32,-176.21,0.91,2
25,6.33,-180.74,22.09,2
26,6.35,-193.13,5.31,2
27,6.36,-176.3,19.4,2
28,6.37,-160.14,29.89,2
29,6.39,-151.05,24.45,2
30,6.4,-125.26,23.81,2
31,6.41,-86.98,21.8,2
32,6.43,-81.46,26.6,2
33,6.44,-77.3,21.83,2
34,6.45,-69.06,7.74,2
35,6.47,-16.32,22.9,2
36,6.48,-22.7,12.56,2
37,6.49,-0.7,14.8,2
38,6.51,-6.9,25.23,2
39,6.52,37.69,1.3,2
40,6.53,56.0,-1.39,2
41,6.55,48.46,-26.36,2
42,6.56,56.41,2.47,1
43,6.57,67.52,-2.57,1
44,6.59,93.98,-10.84,1
45,6.6,90.89,-4.53,1
46,6.61,66.56,-8.27,1
47,6.63,92.35,11.04,1
48,6.64,83.56,8.06,1
49,6.65,70.29,0.66,1
50,6.67,56.48,-12.06,1
51,6.68,95.14,-16.28,1
52,6.69,62.46,-24.62,1
53,6.71,61.85,-18.04,1
54,6.72,54.69,-19.91,1
55,6.73,74.03,-18.39,1
56,6.75,47.75,-25.2,1
57,6.76,47.59,-42.37,1
58,6.77,49.47,-9.19,1
59,6.79,27.17,-19.73,1
60,6.8,15.09,-18.11,1
61,6.81,33.05,-33.58,1
62,6.83,42.54,-9.4,1
63,6.84,12.9,-8.09,1
64,6.85,6.85,6.66,1
65,6.87,-8.82,1.47,1
66,6.88,35.74,6.98,1
67,6.89,2.83,0.28,1
68,6.91,-7.44,12.2,1
69,6.92,-7.93,-1.96,1
70,6.93,-3.16,-4.0,1
71,6.95,-10.3,7.46,1
72,6.96,-12.19,-3.5,1
73,6.97,-19.81,-1.44,1
74,6.99,-4.34,2.63,1
75,7.0,-32.61,19.72,1
76,7.01,-26.59,2.94,1
77,7.03,-5.17,19.41,1
78,7.04,-23.19,6.02,1
79,7.05,-30.16,17.46,1
80,7.07,-49.07,7.37,1
81,7.08,-34.14,16.63,1
82,7.09,-10.19,1.99,1
83,7.11,-27.65,8.94,1
84,7.12,-30.85,-5.09,1
85,7.13,-23.76,-3.8,1
86,7.15,-2.63,6.06,1
87,7.16,-12.03,7.87,1
88,7.17,-18.65,-2.96,1
89,7.19,-18.12,-3.89,1
90,7.2,-25.5,-0.62,1
91,7.21,-31.04,-5.93,1
92,7.23,-32.41,5.26,1
93,7.24,-4.7,15.99,1
94,7.25,-26.35,16.62,1
95,7.27,-33.54,4.56,1
96,7.28,-38.1,15.02,1
97,7.29,-9.35,-3.51,1
98,7.31,2.08,-11.99,1
99,7.32,-30.04,-6.72,1
100,7.33,-8.33,1.94,1
101,7.35,-7.16,7.49,1
102,7.36,-15.98,-9.29,1
103,7.37,-14.56,5.07,1
104,7.39,-21.63,4.59,1
105,7.4,10.19,18.51,1
106,7.41,-22.03,-3.59,1
107,7.43,5.19,-9.6,1
108,7.44,7.41,-6.58,1
109,7.45,19.83,-1.09,1
110,7.47,4.49,-7.59,1
111,7.48,-11.93,-16.74,1
112,7.49,1.85,10.71,1
113,7.51,24.91,4.61,1
114,7.52,-8.49,-2.16,1
115,7.53,3.43,-3.19,1
116,7.55,13.61,-4.25,1
117,7.56,23.99,-0.39,1
118,7.57,12.16,5.74,1
119,7.59,16.49,6.76,1
120,7.6,26.08,-0.13,1
121,7.61,-6.58,5.85,1
122,7.63,15.6,1.45,1
123,7.64,6.21,-3.4,1
124,7.65,14.64,-3.56,1
125,7.67,1.1,-12.94,1
126,7.68,-5.53,-10.04,1
127,7.69,5.72,-7.68,1
128,7.71,25.35,-6.33,1
129,7.72,4.91,5.4,1
130,7.73,-0.5,-2.32,1
131,7.75,-2.86,-2.44,1
132,7.76,20.94,6.55,1
133,7.77,2.4,9.86,1
134,7.79,8.22,-10.43,1
135,7.8,1.05,-12.21,1
136,7.81,32.16,3.95,1
137,7.83,6.19,-7.3,1
138,7.84,0.63,3.97,1
139,7.85,-5.72,8.79,1
140,7.87,7.94,-3.8,1
141,7.88,-6.41,-17.0,1
142,7.89,8.87,2.34,1
143,7.91,-12.63,4.17,1
144,7.92,21.04,2.03,1
145,7.93,-21.6,0.02,1
146,7.95,-3.22,-6.35,1
147,7.96,7.99,-4.55,1
148,7.97,20.36,4.94,1
149,7.99,4.43,5.13,1
150,8.0,-22.74,-8.38,1
151,8.01,-32.1,3.98,1
152,8.03,-2.76,12.56,1
153,8.04,-5.63,13.23,1
154,8.05,-19.48,2.8,1
155,8.07,22.77,-2.69,1
156,8.08,4.96,11.09,1
157,8.09,-21.21,6.95,1
158,8.11,-0.26,-0.97,1
159,8.12,50.59,19.98,1
160,8.13,-36.28,0.71,1
161,8.15,-43.93,0.65,0
162,8.16,-82.45,26.02,0
163,8.17,-121.23,-0.58,0
164,8.19,-141.46,18.73,0
165,8.2,-195.08,17.58,0
166,8.21,-111.81,20.71,0
167,8.23,-121.61,-13.57,0
168,8.24,-95.25,-26.22,0
169,8.25,-73.91,-19.33,0
170,8.27,-30.73,-27.32,0
171,8.28,30.79,-26.09,0
172,8.29,103.78,-27.43,0
173,8.31,224.78,-24.22,0
174,8.32,298.52,-21.45,0
175,8.33,290.47,-2.65,0
176,8.35,274.3,8.96,0
177,8.36,242.67,11.45,0
178,8.37,239.47,9.81,0
179,8.39,187.08,-5.05,0
180,8.4,145.47,8.82,0
181,8.41,105.87,7.11,0
182,8.43,86.78,-9.15,0
183,8.44,48.03,27.0,0
184,8.45,18.6,14.47,0
185,8.47,-7.78,-14.34,0
186,8.48,-17.44,-0.64,0
187,8.49,-45.53,-2.19,0
188,8.51,-58.64,-0.38,0
189,8.52,-65.53,-3.79,0
190,8.53,-74.84,-12.9,0
191,8.55,-103.63,-6.42,1
192,8.56,-109.21,1.11,1
193,8.57,-94.88,20.92,1
194,8.59,-89.67,11.32,1
195,8.6,-105.12,9.25,1
196,8.61,-123.05,3.75,1
197,8.63,-114.04,-4.82,1
198,8.64,-97.27,-9.59,1
199,8.65,-94.85,-10.83,1
200,8.67,-88.46,-1.76,1
201,8.68,-93.9,7.0,1
202,8.69,-82.31,9.31,1
203,8.71,-78.25,-8.03,1
204,8.72,-83.2,2.63,1
205,8.73,-58.25,16.27,1
206,8.75,-71.52,-1.85,1
207,8.76,-69.5,6.64,1
208,8.77,-66.2,-0.14,1
209,8.79,-21.04,-6.35,1
210,8.8,-24.8,1.79,1
211,8.81,-35.27,-1.46,1
212,8.83,-13.62,7.66,1
213,8.84,2.05,3.03,1
214,8.85,0.21,0.14,1
215,8.87,8.93,-11.42,1
216,8.88,0.25,0.9,1
217,8.89,11.23,-1.26,1
218,8.91,17.05,6.9,1
219,8.92,26.6,2.97,1
220,8.93,16.37,1.18,1
221,8.95,42.91,1.47,1
222,8.96,19.12,-3.22,1
223,8.97,21.45,-4.66,1
224,8.99,36.41,-5.62,1
225,9.0,51.91,-9.84,1
226,9.01,31.46,-1.89,1
227,9.03,25.91,-3.71,1
228,9.04,56.51,12.0,1
229,9.05,55.13,5.35,1
230,9.07,38.46,-5.31,1
231,9.08,26.25,-6.03,1
232,9.09,41.67,0.91,1
233,9.11,36.68,8.41,1
234,9.12,33.65,-6.6,1
235,9.13,30.23,-7.09,1
236,9.15,58.24,-18.47,1
237,9.16,35.74,-18.29,1
238,9.17,32.31,6.34,1
239,9.19,28.0,6.99,1
240,9.2,51.46,2.35,1
241,9.21,25.47,20.39,1
242,9.23,5.52,8.06,1
243,9.24,14.78,0.37,1
244,9.25,33.09,7.25,1
245,9.27,29.61,6.53,1
246,9.28,13.71,-1.92,1
247,9.29,1.22,-5.13,1
248,9.31,18.33,10.68,1
249,9.32,4.05,10.02,1
250,9.33,6.09,-10.84,1
251,9.35,-8.38,-11.43,1
252,9.36,7.47,-0.66,1
253,9.37,-9.29,11.11,1
254,9.39,-11.85,13.4,1
255,9.4,-11.03,-9.76,1
256,9.41,3.91,-17.98,1
257,9.43,-20.13,-5.7,1
258,9.44,-15.22,0.9,1
259,9.45,-6.07,1.21,1
260,9.47,-4.71,-0.82,1
261,9.48,-16.45,-8.39,1
262,9.49,-22.03,-5.55,1
263,9.51,-11.95,16.49,1
264,9.52,-6.47,-0.93,1
265,9.53,-8.77,9.08,1
266,9.55,-13.89,2.58,1
267,9.56,-23.88,-3.51,1
268,9.57,-26.43,4.75,1
269,9.59,-20.31,-6.7,1
270,9.6,-3.8,7.78,1
271,9.61,22.95,1.36,1
272,9.63,-16.42,7.39,1
273,9.64,-24.36,-2.36,1
274,9.65,-6.62,4.08,1
275,9.67,-3.52,-10.96,1
276,9.68,-11.44,-2.22,1
277,9.69,-18.38,-0.87,1
278,9.71,-14.13,-8.01,1
279,9.72,-1.86,-16.67,1
280,9.73,-0.96,-1.83,1
281,9.75,-11.23,-6.32,1
282,9.76,-11.11,-0.59,1
283,9.77,6.04,-6.59,1
284,9.79,-4.24,-10.92,1
285,9.8,-4.63,-4.03,1
286,9.81,15.21,1.42,1
287,9.83,-32.51,5.3,1
288,9.84,-15.73,11.48,1
289,9.85,-24.95,27.09,1
290,9.87,17.38,13.72,1
291,9.88,14.02,-1.81,1
292,9.89,7.16,7.67,1
293,9.91,-2.39,2.09,1
294,9.92,12.33,-8.82,1
295,9.93,4.33,-9.8,1
296,9.95,6.24,1.81,1
297,9.96,6.07,-8.34,1
298,9.97,8.96,-13.14,1
299,9.99,-2.89,-5.43,1
300,10.0,-0.66,-0.95,1
301,10.01,-58.76,27.66,1
302,10.03,-37.34,13.45,1
303,10.04,17.37,8.19,1
304,10.05,-30.75,-6.55,1
305,10.07,15.93,-12.46,1
306,10.08,58.85,10.63,1
307,10.09,-22.78,-4.32,1
308,10.11,19.81,8.68,1
309,10.12,7.13,11.32,1
310,10.13,19.68,-9.31,1
311,10.15,52.58,-8.81,0
312,10.16,7.22,-7.66,0
313,10.17,4.12,-0.79,0
314,10.19,-32.62,-3.92,0
315,10.2,-138.95,3.07,0
316,10.21,-133.23,24.05,0
317,10.23,-165.25,-25.55,0
318,10.24,-154.94,-22.09,0
319,10.25,-115.17,8.29,0
320,10.27,-52.89,3.08,0
321,10.28,6.42,-14.18,0
322,10.29,48.16,-19.8,0
323,10.31,104.65,-11.99,0
324,10.32,137.24,2.68,0
325,10.33,165.24,-11.5,0
326,10.35,177.11,8.97,0
327,10.36,159.77,6.45,0
328,10.37,141.02,11.13,0
329,10.39,145.51,5.24,0
330,10.4,137.47,12.18,0
331,10.41,121.29,17.35,0
332,10.43,93.44,-8.31,0
333,10.44,93.51,16.59,0
334,10.45,58.02,-11.35,0
335,10.47,54.18,-8.38,0
336,10.48,23.66,1.98,0
337,10.49,44.97,-4.78,0
338,10.51,-4.54,-6.71,0
339,10.52,-15.51,-8.76,0
340,10.53,-3.49,8.54,0
341,10.55,-27.41,1.66,1
342,10.56,-58.8,-0.06,1
343,10.57,-65.29,17.05,1
344,10.59,-54.72,23.09,1
345,10.6,-65.87,11.32,1
346,10.61,-75.68,6.45,1
347,10.63,-81.52,4.23,1
348,10.64,-87.21,-11.45,1
349,10.65,-111.59,6.95,1
350,10.67,-121.32,25.52,1
351,10.68,-82.78,-1.73,1
352,10.69,-70.59,30.29,1
353,10.71,-65.45,-13.52,1
354,10.72,-71.64,-6.74,1
355,10.73,-58.08,-10.14,1
356,10.75,-41.94,-1.36,1
357,10.76,-29.85,-9.04,1
358,10.77,-49.82,-16.88,1
359,10.79,-47.33,-23.95,1
360,10.8,-18.34,10.36,1
361,10.81,-34.85,-7.54,1
362,10.83,-39.12,-7.6,1
363,10.84,-18.98,-12.79,1
364,10.85,3.1,7.31,1
365,10.87,-22.13,11.81,1
366,10.88,-5.07,-4.87,1
367,10.89,-6.76,-8.98,1
368,10.91,-4.94,2.9,1
369,10.92,-2.61,-14.93,1
370,10.93,6.34,-6.78,1
371,10.95,22.22,7.79,1
372,10.96,0.9,-10.14,1
373,10.97,-1.98,-3.0,1
374,10.99,6.07,-23.85,1
375,11.0,20.2,13.45,1
376,11.01,10.64,5.51,1
377,11.03,12.9,-14.83,1
378,11.04,23.03,10.53,1
379,11.05,45.6,-17.72,1
380,11.07,29.78,8.54,1
381,11.08,34.99,-8.91,1
382,11.09,27.14,10.76,1
383,11.11,39.05,2.75,1
384,11.12,33.03,3.02,1
385,11.13,30.08,21.62,1
386,11.15,29.03,10.42,1
387,11.16,41.01,17.81,1
388,11.17,24.93,9.45,1
389,11.19,12.4,-9.79,1
390,11.2,7.42,-13.65,1
391,11.21,38.7,-0.21,1
392,11.23,23.96,-13.47,1
393,11.24,20.08,20.19,1
394,11.25,12.94,6.24,1
395,11.27,26.37,-14.35,1
396,11.28,30.22,-5.59,1
397,11.29,35.47,-5.78,1
398,11.31,48.63,5.87,1
399,11.32,3.9,18.64,1
400,11.33,9.18,15.09,1
401,11.35,0.8,13.69,1
402,11.36,8.58,5.16,1
403,11.37,-0.24,-7.11,1
404,11.39,-2.13,-2.92,1
405,11.4,-13.58,8.76,1
406,11.41,9.77,4.46,1
407,11.43,-4.48,-16.52,1
408,11.44,-13.21,-12.29,1
409,11.45,-7.1,-13.39,1
410,11.47,21.82,-5.61,1
411,11.48,-3.39,-8.04,1
412,11.49,-19.62,18.81,1
413,11.51,-23.53,13.61,1
414,11.52,1.59,-10.21,1
415,11.53,-15.99,-6.03,1
416,11.55,-1.64,-25.42,1
417,11.56,1.52,-15.09,1
418,11.57,-0.49,10.49,1
419,11.59,-11.42,-6.89,1
420,11.6,-30.24,6.02,1
421,11.61,-23.58,0.57,1
422,11.63,14.24,-4.02,1
423,11.64,-11.1,2.98,1
424,11.65,-10.82,-6.18,1
425,11.67,-4.35,0.42,1
426,11.68,-16.45,6.31,1
427,11.69,-14.38,5.68,1
428,11.71,-15.05,-4.12,1
429,11.72,-4.8,9.4,1
430,11.73,-16.49,8.44,1
431,11.75,-4.35,2.63,1
432,11.76,-11.51,-2.08,1
433,11.77,24.68,-2.5,1
434,11.79,-11.29,9.22,1
435,11.8,-7.97,0.38,1
436,11.81,-11.55,-14.06,1
437,11.83,4.88,-14.3,1
438,11.84,7.97,21.44,1
439,11.85,-11.06,7.28,1
440,11.87,-11.37,-3.04,1
441,11.88,9.72,-12.73,1
442,11.89,14.53,-2.21,1
443,11.91,-7.61,-18.25,1
444,11.92,-6.38,-0.28,1
445,11.93,3.67,1.72,1
446,11.95,-16.09,8.5,1
447,11.96,-14.69,16.04,1
448,11.97,-7.14,9.09,1
449,11.99,15.83,7.56,1
450,12.0,-1.96,4.68,1
451,12.01,-16.6,11.05,1
452,12.03,-21.9,17.75,1
453,12.04,9.95,3.35,1
454,12.05,-38.71,3.63,1
455,12.07,12.51,-11.04,1
456,12.08,10.85,-13.81,1
457,12.09,-23.19,-6.45,1
458,12.11,49.75,8.38,1
459,12.12,1.31,11.48,1
460,12.13,2.2,-4.73,1
461,12.15,32.12,-13.64,2
462,12.16,-1.82,-0.67,2
463,12.17,24.57,-12.55,2
464,12.19,92.75,-26.73,2
465,12.2,99.47,-6.42,2
466,12.21,150.53,2.47,2
467,12.23,221.01,-2.77,2
468,12.24,217.63,7.32,2
469,12.25,184.92,19.01,2
470,12.27,126.47,10.14,2
471,12.28,80.02,12.26,2
472,12.29,42.87,3.98,2
473,12.31,-51.82,-18.72,2
474,12.32,-139.09,4.01,2
475,12.33,-260.85,-11.69,2
476,12.35,-265.43,-6.72,2
477,12.36,-279.91,-12.56,2
478,12.37,-273.25,6.12,2
479,12.39,-252.06,0.04,2
480,12.4,-243.26,2.46,2
481,12.41,-220.76,-11.86,2
482,12.43,-179.48,5.58,2
483,12.44,-114.6,9.86,2
484,12.45,-80.48,-2.58,2
485,12.47,-73.19,-5.02,2
486,12.48,-51.72,-11.04,2
487,12.49,-23.38,-9.01,2
488,12.51,2.32,-12.69,2
489,12.52,22.35,-9.44,2
490,12.53,45.06,2.34,2
491,12.55,73.08,5.45,1
492,12.56,68.57,-1.67,1
493,12.57,84.87,-8.16,1
494,12.59,91.79,13.47,1
495,12.6,97.8,0.31,1
496,12.61,91.09,1.75,1
497,12.63,92.41,-1.26,1
498,12.64,106.78,4.12,1
499,12.65,119.55,9.6,1
500,12.67,103.85,10.92,1
501,12.68,92.32,14.28,1
502,12.69,82.66,13.08,1
503,12.71,104.05,0.3,1
504,12.72,89.67,6.89,1
505,12.73,89.91,6.02,1
506,12.75,66.78,0.24,1
507,12.76,88.09,-8.68,1
508,12.77,76.05,15.89,1
509,12.79,70.25,-3.1,1
510,12.8,70.78,0.2,1
511,12.81,48.11,-6.99,1
512,12.83,35.73,13.14,1
513,12.84,32.49,3.51,1
514,12.85,45.05,-0.42,1
515,12.87,22.93,-11.24,1
516,12.88,4.47,14.07,1
517,12.89,-1.95,-9.3,1
518,12.91,-6.51,9.24,1
519,12.92,-3.79,-4.46,1
520,12.93,-22.29,4.57,1
521,12.95,-29.03,6.65,1
522,12.96,-11.98,5.21,1
523,12.97,-8.51,-2.23,1
524,12.99,-34.51,-0.71,1
525,13.0,-37.43,-9.52,1
526,13.01,-48.44,-1.76,1
527,13.03,-44.81,-7.29,1
528,13.04,-42.41,-3.28,1
529,13.05,-38.27,-16.88,1
530,13.07,-15.38,3.08,1
531,13.08,-49.46,3.87,1
532,13.09,-37.78,-3.17,1
533,13.11,-52.93,-10.97,1
534,13.12,-38.86,-17.41,1
535,13.13,-37.75,-14.72,1
536,13.15,-49.37,-7.32,1
537,13.16,-30.05,11.65,1
538,13.17,-32.18,-9.75,1
539,13.19,-27.97,-8.16,1
540,13.2,-37.21,-5.2,1
541,13.21,-27.99,0.68,1
542,13.23,-18.13,5.42,1
543,13.24,-40.93,0.23,1
544,13.25,-16.34,-0.74,1
545,13.27,-14.33,12.43,1
546,13.28,-33.12,21.85,1
547,13.29,-14.79,-15.24,1
548,13.31,-19.66,-17.01,1
549,13.32,6.19,0.55,1
550,13.33,-19.76,-5.52,1
551,13.35,-13.43,6.22,1
552,13.36,-16.45,-2.83,1
553,13.37,8.07,11.16,1
554,13.39,13.61,9.79,1
555,13.4,-13.81,6.45,1
556,13.41,-17.39,7.17,1
557,13.43,6.64,6.34,1
558,13.44,0.94,3.78,1
559,13.45,12.52,-4.57,1
560,13.47,16.81,9.98,1
561,13.48,20.66,-1.23,1
562,13.49,6.73,5.46,1
563,13.51,2.99,3.92,1
564,13.52,-3.32,34.69,1
565,13.53,20.64,11.38,1
566,13.55,8.62,1.92,1
567,13.56,-8.06,9.89,1
568,13.57,17.56,22.05,1
569,13.59,8.9,-11.45,1
570,13.6,30.53,-2.82,1
571,13.61,12.52,-0.44,1
572,13.63,9.07,3.57,1
573,13.64,5.61,1.82,1
574,13.65,-9.0,-24.81,1
575,13.67,3.57,-23.92,1
576,13.68,35.37,-10.84,1
577,13.69,3.73,-2.72,1
578,13.71,-2.52,-17.82,1
579,13.72,7.23,-0.57,1
580,13.73,15.48,8.25,1
581,13.75,12.24,-10.26,1
582,13.76,3.13,-15.53,1
583,13.77,6.22,17.74,1
584,13.79,30.2,0.49,1
585,13.8,13.65,-13.04,1
586,13.81,3.53,-20.64,1
587,13.83,-3.29,11.96,1
588,13.84,11.81,3.52,1
589,13.85,6.4,-1.85,1
590,13.87,5.05,2.38,1
591,13.88,-1.78,0.06,1
592,13.89,8.82,-9.4,1
593,13.91,-11.66,-5.84,1
594,13.92,-1.59,-4.87,1
595,13.93,8.22,1.48,1
596,13.95,7.54,-0.06,1
597,13.96,-18.94,-23.17,1
598,13.97,-5.73,3.97,1
599,13.99,14.87,7.04,1
600,14.0,9.39,-4.95,1
601,14.01,-10.9,-2.18,1
602,14.03,-47.75,-3.35,1
603,14.04,-19.68,-1.2,1
604,14.05,-30.19,8.69,1
605,14.07,26.27,6.19,1
606,14.08,-0.11,8.56,1
607,14.09,24.24,4.37,1
608,14.11,28.22,-12.02,1
609,14.12,-10.49,34.93,1
610,14.13,16.41,58.95,1
611,14.15,29.2,43.73,1
612,14.16,-44.2,150.68,1
613,14.17,-16.9,185.0,1
614,14.19,-13.8,233.27,1
615,14.2,13.75,276.17,1
616,14.21,-116.18,6.27,1
617,14.23,177.24,-180.72,1
618,14.24,130.3,184.65,1
619,14.25,191.03,56.33,1
620,14.27,-169.58,-147.35,1
621,14.28,189.53,-406.19,1
622,14.29,-74.74,-41.95,1
623,14.31,-318.6,-161.57,1
624,14.32,-174.07,188.57,1
625,14.33,-44.47,25.89,1
626,14.35,-45.17,54.5,1
627,14.36,89.49,-163.26,1
628,14.37,46.06,-376.86,1
629,14.39,-20.5,-310.16,1
630,14.4,157.36,-338.67,1
631,14.41,211.44,271.3,1
632,14.43,152.78,12.67,1
633,14.44,-111.59,-49.46,1
634,14.45,-126.74,-278.38,1
635,14.47,48.43,-217.95,1
636,14.48,-235.0,-293.17,1
637,14.49,293.48,295.65,1
638,14.51,135.39,-92.94,1
639,14.52,-159.99,-367.51,1
640,14.53,-135.84,-225.12,1
641,14.55,24.61,520.58,1
642,14.56,-184.29,-1.34,1
643,14.57,50.29,-282.28,1
644,14.59,174.47,80.18,1
645,14.6,-158.49,158.17,1
646,14.61,-175.62,-50.99,1
647,14.63,-89.09,509.11,1
648,14.64,4.32,-7.36,1
649,14.65,-203.01,-195.57,1
650,14.67,-295.19,-359.76,1
651,14.68,-211.17,-206.54,1
652,14.69,198.01,-87.68,1
653,14.71,-67.64,46.27,1
654,14.72,199.56,502.44,1
655,14.73,249.01,337.94,1
656,14.75,325.71,638.47,1
657,14.76,74.63,38.63,1
658,14.77,19.74,88.92,1
659,14.79,-99.2,7.85,1
660,14.8,56.01,93.89,1
661,14.81,122.53,258.83,1
662,14.83,67.58,-149.55,1
663,14.84,-107.3,164.91,1
664,14.85,-93.35,57.87,1
665,14.87,-218.15,-115.99,1
666,14.88,14.27,13.06,1
667,14.89,99.66,419.02,1
668,14.91,-206.26,205.87,1
669,14.92,-52.84,-208.0,1
670,14.93,-194.76,61.97,1
671,14.95,220.48,222.47,1
672,14.96,-73.26,-116.49,1
673,14.97,101.32,71.27,1
674,14.99,161.5,-138.69,1
675,15.0,162.15,-31.36,1
676,15.01,88.06,-57.52,1
677,15.03,104.37,-259.65,1
678,15.04,31.08,1.6,1
679,15.05,53.46,-137.16,1
680,15.07,-41.57,-35.87,1
681,15.08,-24.45,-36.4,1
682,15.09,0.3,-31.75,1
683,15.11,2.43,-40.9,1
684,15.12,52.02,7.47,1
685,15.13,44.35,31.13,1
686,15.15,53.13,47.07,1
687,15.16,26.75,80.16,1
688,15.17,49.75,97.62,1
689,15.19,10.72,91.64,1
690,15.2,52.4,93.66,1
691,15.21,12.52,102.29,1
692,15.23,36.43,84.24,1
693,15.24,26.31,89.48,1
694,15.25,-6.79,40.95,1
695,15.27,-9.64,25.17,1
696,15.28,6.36,2.88,1
697,15.29,-1.83,-61.0,1
698,15.31,-19.08,-45.0,1
699,15.32,-29.21,-76.12,1
700,15.33,-23.19,-117.98,1
701,15.35,-17.36,-85.22,1
702,15.36,-47.51,-106.14,1
703,15.37,-52.21,-95.99,1
704,15.39,-60.16,-128.16,1
705,15.4,-47.15,-133.71,1
706,15.41,-51.1,-114.91,1
707,15.43,-45.25,-141.19,1
708,15.44,-30.44,-155.48,1
709,15.45,-54.78,-104.42,1
710,15.47,-55.11,-111.12,1
711,15.48,-35.74,-99.53,1
712,15.49,-51.14,-96.96,1
713,15.51,-68.26,-81.14,1
714,15.52,-50.64,-67.46,1
715,15.53,-45.17,-78.49,1
716,15.55,-18.79,-62.16,1
717,15.56,-37.98,-53.46,1
718,15.57,-22.98,-34.16,1
719,15.59,-29.94,-42.38,1
720,15.6,-35.52,-6.52,1
721,15.61,-34.1,24.14,1
722,15.63,-29.21,-11.65,1
723,15.64,3.74,-10.21,1
724,15.65,-2.78,-5.48,1
725,15.67,-5.76,30.85,1
726,15.68,-12.1,19.48,1
727,15.69,15.13,18.57,1
728,15.71,13.0,32.31,1
729,15.72,1.68,46.27,1
730,15.73,9.15,38.65,1
731,15.75,25.28,48.21,1
732,15.76,26.18,41.05,1
733,15.77,21.73,70.13,1
734,15.79,33.38,56.72,1
735,15.8,15.1,57.25,1
736,15.81,11.9,65.38,1
737,15.83,12.86,55.81,1
738,15.84,27.28,46.16,1
739,15.85,20.59,56.56,1
740,15.87,24.45,52.32,1
741,15.88,26.45,56.56,1
742,15.89,50.48,40.52,1
743,15.91,24.73,54.65,1
744,15.92,23.3,58.14,1
745,15.93,-0.44,49.43,1
746,15.95,12.6,37.85,1
747,15.96,20.15,36.42,1
748,15.97,22.54,41.16,1
749,15.99,23.26,35.36,1
750,16.0,24.32,10.98,1
751,16.01,11.47,36.33,1
752,16.03,-35.6,17.71,1
753,16.04,-2.62,19.51,1
754,16.05,8.46,17.08,1
755,16.07,18.42,2.96,1
756,16.08,-5.88,12.61,1
757,16.09,37.16,8.72,1
758,16.11,38.8,-23.77,1
759,16.12,13.77,15.27,1
760,16.13,24.65,11.85,1
761,16.15,6.79,-14.37,1
762,16.16,11.65,-2.72,2
763,16.17,28.72,-8.44,2
764,16.19,42.56,-18.6,2
765,16.2,140.45,-10.87,2
766,16.21,198.61,11.35,2
767,16.23,233.06,-24.24,2
768,16.24,175.78,-24.78,2
769,16.25,100.96,-35.18,2
770,16.27,15.09,-26.12,2
771,16.28,-46.97,-9.43,2
772,16.29,-98.66,-14.16,2
773,16.31,-133.3,-5.06,2
774,16.32,-162.34,-15.32,2
775,16.33,-182.15,-14.81,2
776,16.35,-174.42,-3.18,2
777,16.36,-163.48,-1.76,2
778,16.37,-165.33,-4.72,2
779,16.39,-153.11,-3.08,2
780,16.4,-171.04,-1.39,2
781,16.41,-140.82,4.3,2
782,16.425,-110.99,-2.2,2
783,16.44,-113.55,7.16,2
784,16.45,-91.95,6.63,2
785,16.47,-52.8,18.52,2
786,16.48,-67.72,9.21,2
787,16.49,-63.15,4.59,2
788,16.51,-20.01,-6.01,2
789,16.52,17.56,10.95,2
790,16.53,24.62,-10.74,2
791,16.55,31.44,-6.53,1
792,16.56,49.21,-13.39,1
793,16.57,54.73,-2.4,1
794,16.59,60.02,0.54,1
795,16.6,61.67,-14.47,1
796,16.61,76.48,-2.55,1
797,16.63,83.99,-10.71,1
798,16.64,85.9,-7.42,1
799,16.65,68.11,-18.1,1
800,16.67,69.88,-20.65,1
801,16.68,66.22,-24.14,1
802,16.69,69.1,-19.24,1
803,16.71,84.08,-30.36,1
804,16.72,77.31,-16.67,1
805,16.73,80.26,-17.07,1
806,16.75,31.35,-3.18,1
807,16.76,50.31,-32.99,1
808,16.77,58.86,-4.63,1
809,16.79,50.36,-7.04,1
810,16.8,35.48,-13.97,1
811,16.81,37.13,-9.97,1
812,16.83,38.74,0.39,1
813,16.84,49.56,-11.77,1
814,16.85,26.16,-8.84,1
815,16.87,21.13,-12.53,1
816,16.88,50.21,-4.08,1
817,16.89,25.96,3.4,1
818,16.91,21.07,14.64,1
819,16.92,31.95,29.6,1
820,16.93,-3.96,21.14,1
821,16.95,-16.76,13.11,1
822,16.96,-26.93,13.77,1
823,16.97,2.19,10.72,1
824,16.99,-21.32,16.06,1
825,17.0,-23.78,2.24,1
826,17.01,-30.21,-3.31,1
827,17.03,-9.6,16.69,1
828,17.04,-21.54,23.04,1
829,17.05,-15.14,11.07,1
830,17.06,-30.57,9.07,1
831,17.08,-20.88,27.74,1
832,17.09,-30.98,7.77,1
833,17.11,-35.04,4.71,1
834,17.12,-48.5,-7.91,1
835,17.13,-28.78,-0.95,1
836,17.15,-23.38,0.48,1
837,17.16,-44.6,5.28,1
838,17.17,-28.58,28.9,1
839,17.19,-23.69,6.56,1
840,17.2,-35.49,-4.52,1
841,17.21,-34.57,7.89,1
842,17.23,-37.05,9.84,1
843,17.24,-18.1,13.22,1
844,17.25,-23.85,-1.25,1
845,17.27,-10.28,-23.79,1
846,17.28,-7.24,-5.94,1
847,17.29,-26.75,11.75,1
848,17.31,-32.42,-6.97,1
849,17.32,-26.32,-3.12,1
850,17.33,-6.64,-11.19,1
851,17.35,-7.61,1.19,1
852,17.36,-4.52,-13.46,1
853,17.37,-8.31,-9.08,1
854,17.39,2.52,-3.74,1
855,17.4,3.1,4.41,1
856,17.41,-10.2,-3.07,1
857,17.43,-5.41,-5.5,1
858,17.44,4.23,-12.19,1
859,17.45,-10.43,-4.72,1
860,17.47,-4.26,-5.81,1
861,17.48,-12.31,1.78,1
862,17.49,19.56,2.99,1
863,17.51,2.03,3.27,1
864,17.52,2.39,-8.13,1
865,17.53,0.04,12.51,1
866,17.55,3.16,10.65,1
867,17.56,7.24,-4.35,1
868,17.57,13.09,-7.29,1
869,17.59,11.05,0.25,1
870,17.6,31.92,-3.78,1
871,17.61,1.51,-2.71,1
872,17.63,6.44,-9.8,1
873,17.64,5.08,-6.36,1
874,17.65,16.24,12.94,1
875,17.67,15.91,-4.72,1
876,17.68,5.57,-12.31,1
877,17.69,16.69,-0.81,1
878,17.7,-3.01,6.13,1
879,17.72,12.05,-5.13,1
880,17.73,1.66,-14.54,1
881,17.75,17.64,21.28,1
882,17.76,5.62,7.95,1
883,17.77,5.08,1.99,1
884,17.79,-5.03,6.94,1
885,17.8,22.4,-6.68,1
886,17.81,-2.88,10.86,1
887,17.83,-1.57,-2.78,1
888,17.84,4.37,-7.16,1
889,17.85,27.1,-3.46,1
890,17.87,4.8,-9.46,1
891,17.88,-3.57,9.28,1
892,17.89,-7.38,7.24,1
893,17.91,10.07,-12.41,1
894,17.92,10.44,-15.74,1
895,17.93,13.86,2.02,1
896,17.95,-4.48,0.28,1
897,17.96,17.35,3.46,1
898,17.97,-8.77,6.72,1
899,17.99,6.26,7.65,1
900,18.0,1.03,7.18,1
901,18.01,8.52,-0.64,1
902,18.03,-4.12,-9.78,1
903,18.04,-36.01,0.25,1
904,18.05,10.54,10.54,1
905,18.07,-13.78,-4.82,1
906,18.08,-8.51,-4.2,1
907,18.09,16.84,22.66,1
908,18.11,-6.18,-8.52,1
909,18.12,20.59,-6.19,1
910,18.13,24.6,-1.83,1
911,18.15,-3.4,8.4,1
912,18.16,44.65,7.81,0
913,18.17,-32.37,15.89,0
914,18.19,-5.99,-6.36,0
915,18.2,-11.71,17.59,0
916,18.21,-64.5,4.73,0
917,18.23,-128.72,13.32,0
918,18.24,-97.83,10.18,0
919,18.25,-174.69,9.03,0
920,18.27,-155.5,-1.73,0
921,18.28,-177.42,-4.5,0
922,18.29,-164.21,-16.76,0
923,18.31,-109.33,-40.86,0
924,18.32,-37.68,-30.93,0
925,18.33,-11.46,-25.86,0
926,18.34,50.93,-55.99,0
927,18.36,119.18,-30.04,0
928,18.37,232.29,-4.52,0
929,18.39,263.89,-3.01,0
930,18.4,286.02,9.6,0
931,18.41,291.77,21.24,0
932,18.43,249.07,1.28,0
933,18.44,213.28,2.87,0
934,18.45,183.33,11.59,0
935,18.47,153.94,25.62,0
936,18.48,113.52,28.36,0
937,18.49,70.45,13.86,0
938,18.51,43.55,23.75,0
939,18.52,40.15,18.85,0
940,18.53,5.37,8.88,0
941,18.55,-27.29,13.57,1
942,18.56,-47.64,-19.19,1
943,18.57,-58.87,-11.73,1
944,18.59,-73.36,-2.45,1
945,18.6,-85.05,10.59,1
946,18.61,-89.45,1.68,1
947,18.63,-93.76,9.92,1
948,18.64,-97.85,-0.86,1
949,18.65,-116.33,-5.68,1
950,18.67,-109.52,-5.29,1
951,18.68,-92.25,-9.05,1
952,18.69,-104.32,-4.07,1
953,18.71,-112.56,8.65,1
954,18.72,-98.95,12.67,1
955,18.73,-75.07,-5.51,1
956,18.75,-92.55,3.0,1
957,18.76,-78.16,4.03,1
958,18.77,-68.5,1.69,1
959,18.79,-80.99,-3.52,1
960,18.8,-59.33,2.94,1
961,18.81,-47.8,-7.07,1
962,18.83,-42.25,1.56,1
963,18.84,-44.25,-12.11,1
964,18.85,-47.1,3.71,1
965,18.87,-33.38,-8.3,1
966,18.88,-12.48,13.52,1
967,18.89,-29.27,11.98,1
968,18.91,-17.09,-4.72,1
969,18.92,-10.73,-9.48,1
970,18.93,15.41,-11.24,1
971,18.95,13.94,13.55,1
972,18.96,1.25,0.53,1
973,18.97,4.63,-2.91,1
974,18.98,24.47,-3.99,1
975,19.0,22.03,-0.19,1
976,19.01,18.82,-7.09,1
977,19.025,20.32,2.24,1
978,19.04,46.72,-5.26,1
979,19.05,29.12,-12.74,1
980,19.07,43.86,-6.78,1
981,19.08,51.57,-1.22,1
982,19.09,52.7,-0.38,1
983,19.11,40.94,8.56,1
984,19.12,18.68,-11.56,1
985,19.13,25.25,-3.35,1
986,19.15,41.58,0.1,1
987,19.16,43.92,-3.3,1
988,19.17,31.67,-7.14,1
989,19.19,45.12,7.95,1
990,19.2,38.47,2.96,1
991,19.21,33.14,10.6,1
992,19.23,19.28,0.66,1
993,19.24,21.69,8.59,1
994,19.25,28.45,-4.22,1
995,19.27,29.36,-13.99,1
996,19.28,29.25,-10.05,1
997,19.29,33.4,-3.45,1
998,19.31,7.58,2.13,1
999,19.32,14.73,-0.96,1
1000,19.33,23.34,16.78,1
1001,19.35,34.35,-2.87,1
1002,19.36,25.63,3.63,1
1003,19.37,-3.86,0.85,1
1004,19.39,-3.08,-2.13,1
1005,19.4,5.67,-3.76,1
1006,19.41,2.49,-0.47,1
1007,19.43,-3.18,4.26,1
1008,19.44,-6.4,14.11,1
1009,19.45,5.97,1.51,1
1010,19.47,-10.85,-5.88,1
1011,19.48,-3.84,-1.88,1
1012,19.49,-11.52,5.04,1
1013,19.51,5.42,0.28,1
1014,19.52,-12.81,-12.2,1
1015,19.53,-6.07,-5.05,1
1016,19.55,14.02,0.9,1
1017,19.56,-2.74,4.9,1
1018,19.57,-1.84,6.98,1
1019,19.59,-22.21,17.94,1
1020,19.6,4.36,18.05,1
1021,19.61,-10.82,10.81,1
1022,19.62,-20.74,4.94,1
1023,19.64,-31.07,-4.33,1
1024,19.65,-8.44,-4.61,1
1025,19.67,-25.56,-0.33,1
1026,19.68,-26.45,-6.68,1
1027,19.69,-31.37,-0.09,1
1028,19.71,-9.52,-1.18,1
1029,19.72,-1.19,-8.8,1
1030,19.73,2.08,4.28,1
1031,19.75,-9.37,-19.58,1
1032,19.76,-12.77,7.54,1
1033,19.77,-25.3,-15.07,1
1034,19.79,-22.64,-8.53,1
1035,19.8,-8.06,-3.02,1
1036,19.81,11.49,3.98,1
1037,19.83,3.08,1.14,1
1038,19.84,-1.66,-4.23,1
1039,19.85,-15.93,-9.43,1
1040,19.87,4.59,-8.85,1
1041,19.88,-7.36,-5.95,1
1042,19.89,-1.02,5.02,1
1043,19.91,-8.61,12.04,1
1044,19.92,3.55,3.92,1
1045,19.93,-20.06,-11.99,1
1046,19.95,-4.57,-14.04,1
1047,19.96,21.04,3.16,1
1048,19.97,6.78,9.54,1
1049,19.99,-14.31,16.7,1
1050,20.0,-13.94,1.61,1
1051,20.01,5.3,17.18,1
1052,20.03,-1.6,7.38,1
1053,20.04,-44.34,3.28,1
1054,20.05,6.13,13.1,1
1055,20.07,4.7,8.39,1
1056,20.08,3.84,-2.78,1
1057,20.09,28.87,-5.65,1
1058,20.11,-14.49,6.97,1
1059,20.12,10.52,-13.99,1
1060,20.13,27.84,-8.58,1
1061,20.15,10.31,8.85,1
1062,20.16,16.63,-14.6,0
1063,20.17,44.78,14.67,0
1064,20.19,-4.64,4.87,0
1065,20.2,-15.97,-10.91,0
1066,20.21,-136.16,13.7,0
1067,20.23,-148.32,16.06,0
1068,20.24,-144.13,7.54,0
1069,20.25,-162.46,19.12,0
1070,20.26,-117.3,-35.98,0
1071,20.28,-74.82,-20.07,0
1072,20.29,-15.73,-9.63,0
1073,20.3,9.34,-11.32,0
1074,20.32,77.51,-12.28,0
1075,20.33,111.54,-2.17,0
1076,20.35,138.65,-5.97,0
1077,20.36,169.29,-11.44,0
1078,20.37,178.65,-21.49,0
1079,20.39,155.78,-2.91,0
1080,20.4,129.73,3.63,0
1081,20.41,134.45,-0.89,0
1082,20.43,146.44,-8.22,0
1083,20.44,126.61,-8.25,0
1084,20.45,103.03,-4.67,0
1085,20.47,70.91,-7.79,0
1086,20.48,64.61,-5.12,0
1087,20.49,58.6,-9.99,0
1088,20.51,33.98,20.0,0
1089,20.52,18.44,10.85,0
1090,20.53,27.57,19.09,0
1091,20.55,-10.47,-7.66,1
1092,20.56,-28.47,14.35,1
1093,20.57,-35.67,18.04,1
1094,20.59,-25.58,19.7,1
1095,20.6,-55.37,11.23,1
1096,20.61,-70.99,22.54,1
1097,20.63,-64.21,16.52,1
1098,20.64,-65.96,3.16,1
1099,20.65,-79.92,22.02,1
1100,20.67,-101.82,11.88,1
1101,20.68,-80.81,-6.41,1
1102,20.69,-71.37,4.51,1
1103,20.71,-88.2,-12.74,1
1104,20.72,-98.95,0.93,1
1105,20.73,-77.4,6.45,1
1106,20.75,-82.05,-16.16,1
1107,20.76,-62.86,15.42,1
1108,20.77,-67.91,-15.95,1
1109,20.79,-26.12,-9.2,1
1110,20.8,-57.63,6.37,1
1111,20.81,-70.06,-0.43,1
1112,20.83,-53.3,-7.15,1
1113,20.84,-14.94,-2.02,1
1114,20.85,-20.97,-10.35,1
1115,20.87,-31.69,4.35,1
1116,20.88,-37.63,21.39,1
1117,20.89,-0.14,3.17,1
1118,20.9,-8.86,-15.28,1
1119,20.92,-4.16,-7.5,1
1120,20.93,-15.78,1.11,1
1121,20.94,9.04,-16.38,1
1122,20.96,-8.43,-3.05,1
1123,20.97,9.89,-9.35,1
1124,20.99,20.63,-11.1,1
1125,21.0,35.55,-27.09,1
1126,21.01,18.53,5.6,1
1127,21.03,22.36,-6.51,1
1128,21.04,49.32,6.57,1
1129,21.05,41.16,-14.93,1
1130,21.07,11.94,11.1,1
1131,21.08,11.21,-1.39,1
1132,21.09,32.92,-3.31,1
1133,21.11,38.25,-14.19,1
1134,21.12,29.34,-2.74,1
1135,21.13,20.72,-5.06,1
1136,21.15,27.79,5.82,1
1137,21.16,11.76,-12.36,1
1138,21.17,21.69,0.86,1
1139,21.19,24.4,-0.01,1
1140,21.2,41.12,-10.56,1
1141,21.21,36.77,-3.02,1
1142,21.23,34.29,7.84,1
1143,21.24,45.98,-3.11,1
1144,21.25,46.5,8.33,1
1145,21.27,18.89,13.94,1
1146,21.28,7.75,6.25,1
1147,21.29,12.98,12.07,1
1148,21.31,26.63,6.57,1
1149,21.32,4.53,-2.48,1
1150,21.33,10.82,-8.92,1
1151,21.35,12.72,-1.31,1
1152,21.36,18.52,-14.22,1
1153,21.37,16.71,0.26,1
1154,21.39,14.15,22.66,1
1155,21.4,30.59,4.77,1
1156,21.41,-4.34,7.68,1
1157,21.43,-12.72,16.04,1
1158,21.44,-15.39,9.38,1
1159,21.45,0.31,-0.3,1
1160,21.47,-0.21,6.64,1
1161,21.48,-30.99,-1.19,1
1162,21.49,-9.18,5.3,1
1163,21.51,7.41,-13.25,1
1164,21.52,-7.57,6.57,1
1165,21.53,-9.27,-13.19,1
1166,21.54,-21.83,-0.95,1
1167,21.56,-6.09,10.1,1
1168,21.57,-20.1,20.1,1
1169,21.58,-16.72,6.44,1
1170,21.6,-22.46,7.08,1
1171,21.61,-5.36,0.22,1
1172,21.63,-6.76,-10.19,1
1173,21.64,-15.77,10.81,1
1174,21.65,-8.48,-1.49,1
1175,21.67,3.12,-9.9,1
1176,21.68,-13.35,-2.2,1
1177,21.69,-30.12,-5.44,1
1178,21.71,-20.4,-1.22,1
1179,21.72,17.48,5.84,1
1180,21.73,6.19,-10.16,1
1181,21.75,-13.01,-5.65,1
1182,21.76,-6.71,-5.69,1
1183,21.77,7.01,1.86,1
1184,21.79,-2.01,-7.47,1
1185,21.8,-12.39,-4.45,1
1186,21.81,7.78,7.74,1
1187,21.83,-0.39,-1.61,1
1188,21.84,-30.11,-5.36,1
1189,21.85,-11.67,7.45,1
1190,21.87,4.91,-7.75,1
1191,21.88,-5.37,-14.42,1
1192,21.89,-4.57,9.32,1
1193,21.91,0.11,1.4,1
1194,21.92,21.41,-8.57,1
1195,21.93,2.14,-13.48,1
1196,21.95,-23.85,2.69,1
1197,21.96,-10.13,3.18,1
1198,21.97,20.72,-0.7,1
1199,21.99,2.63,-10.75,1
1200,22.0,-1.99,-6.23,1
1201,22.01,8.04,9.1,1
1202,22.03,0.63,49.4,1
1203,22.04,-27.88,31.2,1
1204,22.05,18.13,26.41,1
1205,22.07,4.64,43.19,1
1206,22.08,29.49,78.55,1
1207,22.09,52.48,71.88,1
1208,22.11,61.13,85.86,1
1209,22.12,122.65,124.61,1
1210,22.13,142.14,108.0,1
1211,22.15,132.15,49.1,1
1212,22.16,155.91,-70.09,2
1213,22.17,116.89,-152.09,2
1214,22.18,104.02,-213.22,2
1215,22.2,62.24,-279.63,2
1216,22.21,-9.59,-259.47,2
1217,22.22,-19.62,-200.31,2
1218,22.24,-23.47,-173.29,2
1219,22.25,-148.89,-100.29,2
1220,22.26,-198.72,-55.57,2
1221,22.28,-216.71,-16.96,2
1222,22.29,-253.45,34.54,2
1223,22.31,-280.61,31.89,2
1224,22.32,-230.02,80.61,2
1225,22.33,-191.68,99.98,2
1226,22.35,-165.93,100.72,2
1227,22.36,-152.99,86.86,2
1228,22.37,-105.43,99.1,2
1229,22.39,-61.92,91.9,2
1230,22.4,-44.96,91.16,2
1231,22.41,-21.31,58.42,2
1232,22.43,15.7,69.54,2
1233,22.44,35.67,69.95,2
1234,22.45,37.37,65.06,2
1235,22.47,49.82,69.37,2
1236,22.48,66.12,50.59,2
1237,22.49,85.34,31.36,2
1238,22.51,72.46,44.9,2
1239,22.52,75.94,37.43,2
1240,22.53,97.5,42.08,2
1241,22.55,88.91,26.03,1
1242,22.56,89.29,13.04,1
1243,22.57,99.71,11.65,1
1244,22.59,128.78,-3.07,1
1245,22.6,124.66,-8.83,1
1246,22.61,91.2,-20.29,1
1247,22.63,76.17,-48.18,1
1248,22.64,72.31,-24.38,1
1249,22.65,67.45,-6.67,1
1250,22.67,53.91,-24.58,1
1251,22.68,46.06,-41.28,1
1252,22.69,52.24,-33.55,1
1253,22.71,44.0,-20.97,1
1254,22.72,22.68,-16.82,1
1255,22.73,40.25,-16.55,1
1256,22.75,42.62,-24.51,1
1257,22.76,29.07,-23.71,1
1258,22.77,18.16,-24.77,1
1259,22.79,5.53,-19.13,1
1260,22.8,15.0,-6.03,1
1261,22.81,14.25,-22.55,1
1262,22.82,-7.66,-14.49,1
1263,22.84,-7.12,-27.83,1
1264,22.85,10.73,-5.9,1
1265,22.86,-5.77,-9.74,1
1266,22.88,-23.72,-13.39,1
1267,22.89,-29.0,-7.76,1
1268,22.9,-12.13,-2.18,1
1269,22.92,-28.05,12.29,1
1270,22.93,-17.66,-5.38,1
1271,22.95,-10.84,-11.16,1
1272,22.96,-15.05,-13.86,1
1273,22.97,-39.12,-25.18,1
1274,22.99,-40.97,-4.16,1
1275,23.0,-30.15,-26.22,1
1276,23.01,-52.97,-12.06,1
1277,23.03,-34.52,-10.25,1
1278,23.04,-60.09,-12.87,1
1279,23.05,-33.07,-6.82,1
1280,23.07,-20.97,-8.35,1
1281,23.08,-31.02,-1.24,1
1282,23.09,-25.71,6.48,1
1283,23.11,-18.29,-0.88,1
1284,23.12,-21.58,4.34,1
1285,23.13,2.71,17.26,1
1286,23.15,0.41,2.44,1
1287,23.16,-2.59,1.28,1
1288,23.17,-30.27,-2.25,1
1289,23.19,-30.62,-5.54,1
1290,23.2,-22.15,9.96,1
1291,23.21,-1.37,12.42,1
1292,23.23,-16.63,15.72,1
1293,23.24,-42.49,15.61,1
1294,23.25,-32.71,9.6,1
1295,23.27,-19.18,23.54,1
1296,23.28,-3.73,4.28,1
1297,23.29,-16.9,-6.59,1
1298,23.31,10.44,4.03,1
1299,23.32,-15.95,4.12,1
1300,23.33,-9.68,3.78,1
1301,23.35,8.95,16.13,1
1302,23.36,31.49,24.58,1
1303,23.37,-2.27,18.74,1
1304,23.39,-6.95,13.06,1
1305,23.4,-13.99,6.59,1
1306,23.41,13.35,13.72,1
1307,23.43,-2.3,15.28,1
1308,23.44,-12.82,1.41,1
1309,23.45,8.09,-10.56,1
1310,23.46,24.45,-1.39,1
1311,23.48,14.7,22.99,1
1312,23.49,3.58,-10.68,1
1313,23.5,1.48,-1.72,1
1314,23.52,17.0,-5.8,1
1315,23.53,2.76,-15.93,1
1316,23.54,25.28,-9.42,1
1317,23.56,17.62,3.18,1
1318,23.57,22.57,-7.62,1
1319,23.59,-4.27,-0.94,1
1320,23.6,-10.5,-0.22,1
1321,23.61,16.21,-16.0,1
1322,23.63,25.88,-3.17,1
1323,23.64,-5.06,2.69,1
1324,23.65,3.58,2.43,1
1325,23.67,-11.23,0.79,1
1326,23.68,31.84,1.42,1
1327,23.69,3.19,5.83,1
1328,23.71,1.07,6.85,1
1329,23.72,12.72,7.14,1
1330,23.73,-6.43,2.15,1
1331,23.75,11.13,1.29,1
1332,23.76,-0.15,7.11,1
1333,23.77,19.07,-1.16,1
1334,23.79,-2.51,9.48,1
1335,23.8,-10.54,-8.47,1
1336,23.81,-2.11,-5.67,1
1337,23.83,6.08,-4.68,1
1338,23.84,7.3,-22.38,1
1339,23.85,7.43,-6.43,1
1340,23.87,-0.44,9.62,1
1341,23.88,17.5,-2.85,1
1342,23.89,17.17,-9.47,1
1343,23.91,2.95,-5.63,1
1344,23.92,-13.78,-13.78,1
1345,23.93,8.62,-23.6,1
1346,23.95,-14.69,-0.7,1
1347,23.96,-8.77,13.06,1
1348,23.97,-1.09,8.97,1
1349,23.99,13.54,2.48,1
1350,24.0,-13.96,-2.9,1
1351,24.01,-8.4,-3.17,1
1352,24.03,-1.8,-0.24,1
1353,24.04,17.41,8.47,1
1354,24.05,-39.69,2.62,1
1355,24.07,-9.4,2.1,1
1356,24.08,21.6,-1.35,1
1357,24.09,-11.7,0.38,1
1358,24.1,17.93,16.72,1
1359,24.12,5.83,32.64,1
1360,24.13,6.98,30.29,1
1361,24.14,-5.84,145.09,1
1362,24.16,31.7,339.22,1
1363,24.17,-26.33,234.89,1
1364,24.18,65.5,117.69,1
1365,24.2,-94.34,-83.89,1
1366,24.21,-91.34,24.29,1
1367,24.23,29.01,-96.21,1
1368,24.24,-11.33,84.33,1
1369,24.25,-142.81,-155.09,1
1370,24.27,96.4,188.6,1
1371,24.28,181.5,6.83,1
1372,24.29,100.38,39.3,1
1373,24.31,-0.55,-29.89,1
1374,24.32,162.51,-45.65,1
1375,24.33,-158.08,-88.92,1
1376,24.35,56.06,-112.77,1
1377,24.36,-69.47,-208.38,1
1378,24.37,20.88,-235.11,1
1379,24.39,251.01,-54.38,1
1380,24.4,-107.58,-129.46,1
1381,24.41,200.65,-319.77,1
1382,24.43,113.58,-769.32,1
1383,24.44,-435.25,-570.36,1
1384,24.45,-106.33,-278.88,1
1385,24.47,-48.84,156.8,1
1386,24.48,5.43,-444.29,1
1387,24.49,-134.59,-74.57,1
1388,24.51,-61.26,-15.8,1
1389,24.52,-77.47,-167.12,1
1390,24.53,-129.01,97.01,1
1391,24.55,-144.44,673.67,1
1392,24.56,39.7,229.16,1
1393,24.57,159.8,-180.3,1
1394,24.59,-28.58,-138.05,1
1395,24.6,121.31,225.87,1
1396,24.61,-94.49,354.02,1
1397,24.63,-82.25,241.95,1
1398,24.64,-147.65,209.23,1
1399,24.65,326.98,-181.71,1
1400,24.67,-131.2,309.17,1
1401,24.68,-132.63,-297.12,1
1402,24.69,194.16,322.78,1
1403,24.71,-10.85,557.91,1
1404,24.72,33.23,172.16,1
1405,24.73,-26.21,464.38,1
1406,24.75,316.94,236.84,1
1407,24.76,160.08,250.7,1
1408,24.77,49.65,23.92,1
1409,24.78,-37.13,-312.88,1
1410,24.8,-170.68,-31.77,1
1411,24.81,-134.61,604.37,1
1412,24.82,308.42,232.64,1
1413,24.84,-113.56,99.28,1
1414,24.85,-96.68,-121.31,1
1415,24.86,31.82,-390.25,1
1416,24.88,-123.53,-164.0,1
1417,24.89,128.53,-133.85,1
1418,24.91,52.92,-82.05,1
1419,24.92,-104.43,-57.36,1
1420,24.93,-61.4,-133.57,1
1421,24.95,-84.5,-187.22,1
1422,24.96,-16.79,-110.07,1
1423,24.97,-53.85,-144.07,1
1424,24.99,-62.78,-139.8,1
1425,25.0,-80.21,-91.2,1
1426,25.01,-52.48,-16.55,1
1427,25.03,-47.74,-47.13,1
1428,25.04,13.29,-20.83,1
1429,25.05,53.85,16.39,1
1430,25.07,106.88,33.26,1
1431,25.08,81.64,80.54,1
1432,25.09,90.36,116.7,1
1433,25.11,96.55,125.43,1
1434,25.12,121.41,142.93,1
1435,25.13,106.07,140.02,1
1436,25.15,84.23,131.6,1
1437,25.16,92.68,127.27,1
1438,25.17,73.61,102.83,1
1439,25.19,57.94,98.73,1
1440,25.2,49.95,42.71,1
1441,25.21,39.6,12.27,1
1442,25.23,6.95,5.24,1
1443,25.24,15.17,2.36,1
1444,25.25,5.5,-12.66,1
1445,25.27,1.81,-52.74,1
1446,25.28,-26.83,-56.81,1
1447,25.29,-42.75,-47.54,1
1448,25.31,-26.37,-66.64,1
1449,25.32,-19.48,-77.39,1
1450,25.33,-20.39,-104.3,1
1451,25.35,-42.28,-121.07,1
1452,25.36,-52.02,-115.49,1
1453,25.37,-27.9,-118.82,1
1454,25.38,-41.58,-106.68,1
1455,25.4,-49.43,-85.26,1
1456,25.41,-73.43,-86.86,1
1457,25.42,-47.75,-88.61,1
1458,25.44,-53.14,-61.11,1
1459,25.45,-52.29,-69.04,1
1460,25.46,-55.21,-73.87,1
1461,25.48,-36.77,-50.14,1
1462,25.49,-46.99,-61.46,1
1463,25.5,-48.3,-70.77,1
1464,25.52,-43.08,-65.96,1
1465,25.53,-14.49,-74.45,1
1466,25.55,-29.31,-52.28,1
1467,25.56,-26.45,-33.66,1
1468,25.57,-5.26,-25.14,1
1469,25.59,-16.24,-12.58,1
1470,25.6,-10.14,-24.51,1
1471,25.61,-18.87,-8.3,1
1472,25.63,-9.93,-19.98,1
1473,25.64,-14.32,-12.77,1
1474,25.65,-5.44,-10.05,1
1475,25.67,-11.95,4.4,1
1476,25.68,9.52,25.54,1
1477,25.69,4.62,6.75,1
1478,25.71,-4.71,34.78,1
1479,25.72,-0.17,45.7,1
1480,25.73,30.19,51.08,1
1481,25.75,-2.1,52.06,1
1482,25.76,-3.11,50.93,1
1483,25.77,-5.67,54.46,1
1484,25.79,26.3,46.06,1
1485,25.8,15.17,45.52,1
1486,25.81,17.12,63.49,1
1487,25.83,13.83,44.27,1
1488,25.84,25.62,43.88,1
1489,25.85,32.3,35.43,1
1490,25.87,15.84,59.4,1
1491,25.88,16.89,60.01,1
1492,25.89,29.48,41.9,1
1493,25.91,14.1,46.69,1
1494,25.92,27.7,61.2,1
1495,25.93,19.34,24.37,1
1496,25.95,22.99,25.85,1
1497,25.96,10.63,22.69,1
1498,25.97,-1.93,19.57,1
1499,25.99,30.82,22.78,1
1500,26.0,16.85,20.48,1
1501,26.01,10.82,24.2,1
1502,26.02,18.34,35.79,1
1503,26.04,-1.48,19.45,1
1504,26.05,-44.77,2.43,1
1505,26.06,-9.2,23.66,1
1506,26.08,8.35,2.36,1
1507,26.09,-11.81,0.22,1
1508,26.1,35.12,-5.79,1
1509,26.12,23.17,-16.81,1
1510,26.13,23.76,3.77,1
1511,26.14,57.13,10.23,1
1512,26.16,-11.76,5.15,2
1513,26.17,26.07,0.0,2
1514,26.19,146.97,-7.67,2
1515,26.2,175.73,-11.75,2
1516,26.21,211.47,-16.34,2
1517,26.23,193.26,-8.72,2
1518,26.24,99.14,-36.55,2
1519,26.25,125.98,-34.01,2
1520,26.27,18.04,-20.85,2
1521,26.28,-45.78,-8.52,2
1522,26.29,-95.92,10.08,2
1523,26.31,-154.51,10.0,2
1524,26.32,-173.61,11.61,2
1525,26.33,-188.77,17.64,2
1526,26.35,-178.92,-13.24,2
1527,26.36,-202.12,-9.55,2
1528,26.37,-186.71,-0.0,2
1529,26.39,-179.4,-10.87,2
1530,26.4,-153.71,-6.44,2
1531,26.41,-129.92,-14.74,2
1532,26.43,-118.5,-11.99,2
1533,26.44,-120.05,-14.67,2
1534,26.45,-74.91,-35.05,2
1535,26.47,-62.07,-44.45,2
1536,26.48,-57.2,-18.89,2
1537,26.49,-45.31,-24.01,2
1538,26.51,8.0,-22.78,2
1539,26.52,4.65,-23.05,2
1540,26.53,34.16,-6.78,2
1541,26.55,37.22,-6.59,1
1542,26.56,57.24,-12.84,1
1543,26.57,52.05,-12.43,1
1544,26.59,64.47,-0.17,1
1545,26.6,54.22,-14.94,1
1546,26.61,95.41,-16.66,1
1547,26.63,83.83,-4.5,1
1548,26.64,81.19,2.12,1
1549,26.65,51.9,-2.42,1
1550,26.67,101.23,14.56,1
1551,26.68,81.24,6.27,1
1552,26.69,79.07,-1.97,1
1553,26.7,85.02,3.88,1
1554,26.72,67.23,7.27,1
1555,26.73,92.07,6.86,1
1556,26.75,67.57,1.23,1
1557,26.76,71.98,1.72,1
1558,26.77,50.11,-4.2,1
1559,26.78,48.15,10.81,1
1560,26.8,56.71,20.17,1
1561,26.81,57.39,16.59,1
1562,26.825,35.47,2.98,1
1563,26.84,16.56,-6.74,1
1564,26.85,11.73,13.45,1
1565,26.87,39.59,-5.12,1
1566,26.88,10.4,8.78,1
1567,26.89,13.18,31.15,1
1568,26.91,9.18,8.42,1
1569,26.92,12.43,-0.91,1
1570,26.93,3.65,18.2,1
1571,26.95,-19.14,19.23,1
1572,26.96,-16.7,-1.5,1
1573,26.97,-13.25,4.58,1
1574,26.99,-22.48,10.81,1
1575,27.0,-25.19,16.1,1
1576,27.01,-32.92,9.12,1
1577,27.03,-12.11,4.47,1
1578,27.04,-38.21,3.07,1
1579,27.05,-36.28,2.89,1
1580,27.07,-22.3,-1.38,1
1581,27.08,-31.5,-5.85,1
1582,27.09,-33.02,-12.02,1
1583,27.11,-47.88,0.05,1
1584,27.12,-28.25,-17.05,1
1585,27.13,-41.95,-11.29,1
1586,27.15,-38.66,11.47,1
1587,27.16,-31.26,2.93,1
1588,27.17,-20.71,9.78,1
1589,27.19,-16.64,-9.3,1
1590,27.2,-19.98,2.06,1
1591,27.21,-33.32,3.54,1
1592,27.23,-3.68,-24.29,1
1593,27.24,-26.48,1.41,1
1594,27.25,-45.51,-1.48,1
1595,27.27,-39.65,4.39,1
1596,27.28,0.35,-12.59,1
1597,27.29,-17.05,3.9,1
1598,27.3,-10.22,12.49,1
1599,27.32,-26.46,-10.3,1
1600,27.33,11.65,-20.75,1
1601,27.34,-9.94,-3.12,1
1602,27.36,-0.39,-6.31,1
1603,27.37,-24.09,-7.2,1
1604,27.38,-6.79,-9.47,1
1605,27.4,-25.15,2.48,1
1606,27.41,-6.07,-5.3,1
1607,27.42,20.83,12.37,1
1608,27.44,-1.23,2.26,1
1609,27.45,-3.01,-6.15,1
1610,27.46,-0.79,1.51,1
1611,27.48,14.77,-6.86,1
1612,27.49,13.14,-1.58,1
1613,27.51,1.12,15.32,1
1614,27.52,-4.48,2.63,1
1615,27.53,10.02,-20.52,1
1616,27.55,-1.59,3.03,1
1617,27.56,14.5,-4.03,1
1618,27.57,15.52,5.2,1
1619,27.59,25.47,1.4,1
1620,27.6,5.3,8.3,1
1621,27.61,8.8,9.51,1
1622,27.63,14.27,0.58,1
1623,27.64,21.56,-24.83,1
1624,27.65,1.25,3.85,1
1625,27.67,-3.13,-9.27,1
1626,27.68,3.69,-4.67,1
1627,27.69,23.06,0.95,1
1628,27.71,14.48,11.06,1
1629,27.72,0.29,15.55,1
1630,27.73,7.74,12.57,1
1631,27.75,9.31,22.17,1
1632,27.76,9.06,4.58,1
1633,27.77,-4.51,-12.39,1
1634,27.79,-8.5,-24.4,1
1635,27.8,11.84,-6.28,1
1636,27.81,10.45,-5.05,1
1637,27.83,13.25,-11.53,1
1638,27.84,24.33,-4.22,1
1639,27.85,-12.57,3.71,1
1640,27.87,9.19,0.31,1
1641,27.88,2.48,3.9,1
1642,27.89,11.19,-13.93,1
1643,27.91,0.32,16.27,1
1644,27.92,0.27,17.11,1
1645,27.93,-2.86,9.27,1
1646,27.94,10.58,-6.73,1
1647,27.96,-3.62,3.23,1
1648,27.97,-6.21,2.09,1
1649,27.98,-13.11,8.34,1
1650,28.0,14.59,-1.55,1
1651,28.01,5.68,-4.95,1
1652,28.02,-2.62,-2.62,1
1653,28.04,-14.85,-1.1,1
1654,28.05,-72.74,1.28,1
1655,28.06,18.91,-1.62,1
1656,28.08,-35.34,11.26,1
1657,28.09,-8.71,1.51,1
1658,28.1,60.09,-19.53,1
1659,28.12,-9.33,2.75,1
1660,28.13,-9.79,20.66,1
1661,28.15,17.91,-2.02,1
1662,28.16,-5.33,-12.37,0
1663,28.17,25.71,23.37,0
1664,28.19,-84.58,3.73,0
1665,28.2,-138.01,-7.07,0
1666,28.21,-141.36,11.52,0
1667,28.23,-177.82,4.58,0
1668,28.24,-180.92,-22.9,0
1669,28.25,-78.87,-30.05,0
1670,28.27,-105.06,-2.21,0
1671,28.28,-78.73,-0.59,0
1672,28.29,-23.64,6.47,0
1673,28.31,52.96,-2.08,0
1674,28.32,137.98,8.9,0
1675,28.33,224.61,5.84,0
1676,28.35,251.72,-6.99,0
1677,28.36,291.05,19.84,0
1678,28.37,268.98,16.69,0
1679,28.39,237.8,-0.84,0
1680,28.4,189.5,-16.13,0
1681,28.41,174.7,14.74,0
1682,28.43,136.29,4.44,0
1683,28.44,107.67,0.73,0
1684,28.45,81.0,-24.65,0
1685,28.47,48.72,-4.8,0
1686,28.48,3.9,-16.73,0
1687,28.49,-55.2,-20.32,0
1688,28.51,-76.79,-7.5,0
1689,28.52,-46.08,8.52,0
1690,28.53,-78.65,9.04,0
1691,28.55,-62.94,-1.37,1
1692,28.56,-60.31,-8.67,1
1693,28.57,-58.49,6.38,1
1694,28.58,-71.15,18.18,1
1695,28.6,-92.79,-1.2,1
1696,28.61,-78.87,9.25,1
1697,28.62,-78.38,-0.57,1
1698,28.64,-96.14,10.62,1
1699,28.65,-78.98,-3.82,1
1700,28.67,-83.06,15.51,1
1701,28.68,-93.81,6.32,1
1702,28.69,-86.83,-8.38,1
1703,28.7,-87.93,-12.49,1
1704,28.72,-51.41,-2.28,1
1705,28.73,-71.58,0.46,1
1706,28.75,-68.72,-7.6,1
1707,28.76,-68.18,16.18,1
1708,28.77,-37.1,-2.79,1
1709,28.79,-51.91,-7.31,1
1710,28.8,-67.1,-5.13,1
1711,28.81,-48.16,4.21,1
1712,28.83,-17.87,-4.23,1
1713,28.84,-14.55,-7.35,1
1714,28.85,-19.74,-2.88,1
1715,28.87,-21.34,3.27,1
1716,28.88,0.05,9.48,1
1717,28.89,0.15,9.19,1
1718,28.91,1.48,7.3,1
1719,28.92,11.67,11.97,1
1720,28.93,3.77,4.87,1
1721,28.95,14.39,-14.02,1
1722,28.96,5.35,-14.78,1
1723,28.97,39.96,-1.28,1
1724,28.99,41.29,1.45,1
1725,29.0,22.5,-18.43,1
1726,29.01,10.98,-8.21,1
1727,29.03,32.15,18.52,1
1728,29.04,50.2,5.19,1
1729,29.05,34.62,9.0,1
1730,29.07,5.63,5.65,1
1731,29.08,42.07,-1.6,1
1732,29.09,19.5,-2.68,1
1733,29.11,33.6,0.9,1
1734,29.12,18.09,-2.39,1
1735,29.13,46.7,9.0,1
1736,29.15,17.58,0.24,1
1737,29.16,28.73,-15.08,1
1738,29.17,37.44,-4.82,1
1739,29.19,49.63,-9.42,1
1740,29.2,26.23,-8.74,1
1741,29.21,25.98,-6.71,1
1742,29.22,15.66,5.94,1
1743,29.24,42.66,-12.46,1
1744,29.25,25.16,23.46,1
1745,29.26,8.99,-10.0,1
1746,29.28,13.01,9.24,1
1747,29.29,30.75,5.14,1
1748,29.3,21.77,0.86,1
1749,29.32,15.54,-11.86,1
1750,29.33,32.85,-3.69,1
1751,29.34,6.38,-9.59,1
1752,29.36,0.2,5.89,1
1753,29.37,0.54,1.0,1
1754,29.38,9.22,-2.23,1
1755,29.4,4.79,-11.1,1
1756,29.41,-12.7,-1.21,1
1757,29.425,-12.82,10.83,1
1758,29.44,7.43,-4.31,1
1759,29.45,-14.32,1.68,1
1760,29.47,-10.04,-7.72,1
1761,29.48,-17.54,5.35,1
1762,29.49,2.34,3.11,1
1763,29.51,-7.01,-0.66,1
1764,29.52,-6.25,8.93,1
1765,29.53,-6.47,11.23,1
1766,29.55,-4.82,6.08,1
1767,29.56,-13.13,-1.19,1
1768,29.57,-8.66,-6.96,1
1769,29.59,-22.76,3.99,1
1770,29.6,14.81,1.67,1
1771,29.61,-25.11,-5.21,1
1772,29.63,-16.92,4.41,1
1773,29.64,-19.85,4.85,1
1774,29.65,16.75,4.93,1
1775,29.67,-10.96,7.64,1
1776,29.68,-15.98,-3.55,1
1777,29.69,4.59,-2.88,1
1778,29.71,-16.11,5.44,1
1779,29.72,-14.48,-6.08,1
1780,29.73,-16.8,-3.23,1
1781,29.75,6.63,1.95,1
1782,29.76,-2.01,4.36,1
1783,29.77,-7.18,-7.33,1
1784,29.79,4.29,-2.26,1
1785,29.8,6.83,-11.64,1
1786,29.81,-16.82,-9.68,1
1787,29.83,-39.17,6.24,1
1788,29.84,-8.59,8.43,1
1789,29.85,6.93,18.78,1
1790,29.86,7.45,14.72,1
1791,29.88,-24.25,3.08,1
1792,29.89,-26.79,8.42,1
1793,29.9,-5.33,2.66,1
1794,29.92,7.0,-12.86,1
1795,29.93,0.32,-18.29,1
1796,29.94,11.33,-5.01,1
1797,29.96,29.82,10.15,1
1798,29.97,-5.39,8.28,1
1799,29.98,-12.84,5.76,1
1800,30.0,-8.44,-12.88,1
1801,30.01,13.04,1.7,1
1802,30.02,-1.92,-7.17,1
1803,30.04,-13.01,10.5,1
1804,30.05,-31.06,5.55,1
1805,30.06,5.99,5.82,1
1806,30.08,-17.56,-12.27,1
1807,30.09,-4.68,-1.67,1
1808,30.11,6.51,1.28,1
1809,30.12,-7.57,-14.43,1
1810,30.13,61.01,-1.24,1
1811,30.15,8.12,9.04,1
1812,30.16,16.34,-4.73,0
1813,30.17,29.36,21.06,0
1814,30.19,-90.61,-22.75,0
1815,30.2,-166.89,-21.25,0
1816,30.21,-155.11,9.35,0
1817,30.23,-188.31,-12.31,0
1818,30.24,-154.95,-19.36,0
1819,30.25,-52.2,-19.0,0
1820,30.27,-16.67,4.98,0
1821,30.28,27.33,20.49,0
1822,30.29,70.89,19.62,0
1823,30.31,102.51,-0.01,0
1824,30.32,141.81,-3.57,0
1825,30.33,159.77,9.84,0
1826,30.35,167.11,11.13,0
1827,30.36,157.64,0.62,0
1828,30.37,158.48,9.37,0
1829,30.39,163.1,-9.66,0
1830,30.4,157.84,-5.81,0
1831,30.41,135.94,-6.38,0
1832,30.43,110.37,-28.7,0
1833,30.44,66.52,-12.17,0
1834,30.45,58.37,-3.6,0
1835,30.47,65.23,7.11,0
1836,30.48,26.85,9.39,0
1837,30.49,5.79,19.83,0
1838,30.5,-15.86,-3.37,0
1839,30.52,-8.61,-6.03,0
1840,30.53,-12.34,7.81,0
1841,30.54,-16.26,19.59,0
1842,30.56,-57.13,14.59,1
1843,30.57,-41.85,-0.33,1
1844,30.58,-62.17,-11.08,1
1845,30.6,-69.8,-2.42,1
1846,30.61,-85.18,6.82,1
1847,30.62,-72.81,10.72,1
1848,30.64,-85.98,5.88,1
1849,30.65,-89.76,8.45,1
1850,30.67,-91.78,2.78,1
1851,30.68,-74.41,-17.27,1
1852,30.69,-86.42,-11.98,1
1853,30.7,-83.79,1.83,1
1854,30.72,-72.08,-9.43,1
1855,30.73,-49.11,-15.15,1
1856,30.75,-74.71,-1.34,1
1857,30.76,-63.44,-0.97,1
1858,30.77,-72.86,0.08,1
1859,30.79,-37.33,1.98,1
1860,30.8,-35.77,-18.98,1
1861,30.81,-35.49,-17.69,1
1862,30.83,-11.83,-0.86,1
1863,30.84,-32.94,-2.36,1
1864,30.85,-32.57,4.13,1
1865,30.87,-13.1,5.37,1
1866,30.88,-0.55,2.49,1
1867,30.89,-3.52,8.68,1
1868,30.91,-12.44,12.71,1
1869,30.92,-24.04,10.01,1
1870,30.93,4.31,24.93,1
1871,30.95,9.08,12.11,1
1872,30.96,25.21,-8.18,1
1873,30.97,8.33,5.48,1
1874,30.99,13.85,8.97,1
1875,31.0,13.76,-0.9,1
1876,31.01,32.91,-4.07,1
1877,31.03,26.88,8.72,1
1878,31.04,27.6,9.5,1
1879,31.05,33.03,-2.81,1
1880,31.07,30.49,-3.83,1
1881,31.08,48.19,-3.37,1
1882,31.09,56.76,-15.75,1
1883,31.11,37.09,-18.92,1
1884,31.12,26.2,-11.28,1
1885,31.13,12.47,-0.16,1
1886,31.14,45.93,2.18,1
1887,31.16,20.58,12.11,1
1888,31.17,12.16,-11.24,1
1889,31.18,38.02,-3.74,1
1890,31.2,25.67,4.72,1
1891,31.21,42.52,-5.61,1
1892,31.22,18.64,-0.08,1
1893,31.24,37.23,11.46,1
1894,31.25,17.96,11.47,1
1895,31.26,-0.63,-7.76,1
1896,31.28,0.23,6.18,1
1897,31.29,31.39,-8.42,1
1898,31.3,34.01,-8.89,1
1899,31.32,18.97,-1.68,1
1900,31.33,-0.83,-4.8,1
1901,31.34,17.61,8.82,1
1902,31.36,12.53,5.14,1
1903,31.37,1.07,2.28,1
1904,31.39,-1.14,1.63,1
1905,31.4,13.79,-4.31,1
1906,31.41,-4.6,-17.17,1
1907,31.43,-11.77,-9.74,1
1908,31.44,-10.08,-3.93,1
1909,31.45,-0.67,0.17,1
1910,31.47,-11.29,-2.45,1
1911,31.48,-19.13,1.73,1
1912,31.49,12.31,-1.81,1
1913,31.51,19.79,8.99,1
1914,31.52,-9.32,7.07,1
1915,31.53,-25.11,1.29,1
1916,31.55,-27.19,-0.52,1
1917,31.56,1.29,4.69,1
1918,31.57,-3.76,-4.03,1
1919,31.59,-0.11,-1.12,1
1920,31.6,15.96,5.33,1
1921,31.61,11.92,-4.32,1
1922,31.63,-3.73,1.93,1
1923,31.64,-3.05,4.89,1
1924,31.65,-17.73,20.09,1
1925,31.67,-27.69,-3.47,1
1926,31.68,-23.58,-7.69,1
1927,31.69,-30.45,-7.45,1
1928,31.71,-2.82,-7.8,1
1929,31.72,-18.04,-10.75,1
1930,31.73,-20.58,3.77,1
1931,31.75,-19.06,15.49,1
1932,31.76,20.98,2.46,1
1933,31.77,-1.64,-0.31,1
1934,31.78,-21.8,5.38,1
1935,31.8,-33.18,4.51,1
1936,31.81,-3.62,4.19,1
1937,31.82,14.52,2.22,1
1938,31.84,1.13,-4.1,1
1939,31.85,-14.01,10.11,1
1940,31.86,22.31,5.63,1
1941,31.88,-9.29,14.07,1
1942,31.89,-1.67,-14.54,1
1943,31.9,-6.73,2.8,1
1944,31.92,9.02,3.11,1
1945,31.93,-19.58,0.82,1
1946,31.94,-19.12,6.5,1
1947,31.96,23.76,-5.04,1
1948,31.97,-3.09,-1.56,1
1949,31.98,9.73,-6.84,1
1950,32.0,-3.29,-2.21,1
1951,32.01,11.97,2.29,1
1952,32.03,8.21,-13.73,1
1953,32.04,-18.91,-10.95,1
1954,32.05,-52.29,-5.41,1
1955,32.07,-25.95,3.95,1
1956,32.08,-45.49,-8.7,1
1957,32.09,41.17,-3.27,1
1958,32.11,-13.3,3.65,1
1959,32.12,24.6,-6.46,1
1960,32.13,16.42,-6.56,1
1961,32.15,-9.0,3.35,1
1962,32.16,6.25,1.24,2
1963,32.17,38.32,19.73,2
1964,32.19,-2.41,65.25,2
1965,32.2,97.63,105.84,2
1966,32.21,92.12,165.41,2
1967,32.23,168.84,161.96,2
1968,32.24,181.42,156.49,2
1969,32.25,199.03,98.31,2
1970,32.27,135.07,14.66,2
1971,32.28,134.28,-102.84,2
1972,32.29,86.05,-185.52,2
1973,32.31,36.42,-251.96,2
1974,32.32,4.7,-287.63,2
1975,32.33,-60.17,-243.51,2
1976,32.35,-112.69,-228.27,2
1977,32.36,-197.64,-171.81,2
1978,32.37,-213.92,-131.28,2
1979,32.39,-266.04,-89.26,2
1980,32.4,-268.94,-30.67,2
1981,32.41,-277.39,4.44,2
1982,32.43,-213.92,34.87,2
1983,32.44,-217.52,67.0,2
1984,32.45,-175.34,99.88,2
1985,32.47,-153.31,110.25,2
1986,32.48,-98.64,116.47,2
1987,32.49,-76.56,120.32,2
1988,32.51,-40.87,101.88,2
1989,32.52,-5.3,91.72,2
1990,32.53,33.82,82.29,2
1991,32.54,32.29,75.66,2
1992,32.56,52.39,62.44,1
1993,32.57,70.76,69.85,1
1994,32.59,100.98,53.38,1
1995,32.6,80.15,52.13,1
1996,32.61,83.88,43.62,1
1997,32.63,75.99,40.26,1
1998,32.64,132.25,24.6,1
1999,32.65,140.2,14.86,1
2000,32.67,112.88,23.29,1
2001,32.68,123.08,18.71,1
2002,32.69,98.76,28.8,1
2003,32.71,90.95,-4.46,1
2004,32.72,74.32,4.41,1
2005,32.73,100.85,7.12,1
2006,32.75,71.25,-2.06,1
2007,32.76,62.08,4.42,1
2008,32.77,58.61,-17.26,1
2009,32.79,55.34,-0.05,1
2010,32.8,64.49,-15.74,1
2011,32.81,37.43,-19.51,1
2012,32.83,17.3,-29.08,1
2013,32.84,34.44,-26.3,1
2014,32.85,23.88,-23.84,1
2015,32.87,25.37,-33.27,1
2016,32.88,11.64,-22.95,1
2017,32.89,36.05,-32.29,1
2018,32.91,11.91,-34.38,1
2019,32.92,9.08,-20.33,1
2020,32.93,-4.48,-22.87,1
2021,32.95,-8.74,-26.77,1
2022,32.96,-9.32,-23.5,1
2023,32.97,-18.06,-20.07,1
2024,32.99,-22.48,-17.2,1
2025,33.0,-5.17,-23.47,1
2026,33.01,-35.07,-22.81,1
2027,33.03,-34.27,-33.65,1
2028,33.04,-21.21,-20.27,1
2029,33.05,-7.5,1.55,1
2030,33.06,-17.01,-10.18,1
2031,33.08,-28.33,3.18,1
2032,33.09,-31.58,-14.62,1
2033,33.11,-22.27,-6.43,1
2034,33.12,-38.91,-7.34,1
2035,33.13,-52.99,-6.05,1
2036,33.15,-31.35,5.31,1
2037,33.16,-37.29,5.11,1
2038,33.17,-52.67,-5.32,1
2039,33.19,-35.36,6.15,1
2040,33.2,-24.54,5.93,1
2041,33.21,-36.5,-12.86,1
2042,33.22,-19.3,3.26,1
2043,33.24,-49.33,1.72,1
2044,33.25,-0.4,1.68,1
2045,33.27,-25.92,1.19,1
2046,33.28,-41.44,-2.34,1
2047,33.29,-38.72,-4.44,1
2048,33.31,-10.14,-14.29,1
2049,33.32,-10.27,-6.95,1
2050,33.33,-13.62,-8.65,1
2051,33.35,-22.56,-1.05,1
2052,33.36,-12.44,11.11,1
2053,33.37,-28.19,8.97,1
2054,33.39,-11.69,10.01,1
2055,33.4,-10.1,12.65,1
2056,33.41,15.53,17.36,1
2057,33.43,-2.85,13.98,1
2058,33.44,-15.58,-2.82,1
2059,33.45,17.61,-0.96,1
2060,33.47,22.29,14.46,1
2061,33.48,-4.42,31.0,1
2062,33.49,-13.77,8.02,1
2063,33.51,11.37,-2.84,1
2064,33.52,21.06,14.85,1
2065,33.53,6.58,18.82,1
2066,33.55,4.46,15.5,1
2067,33.56,15.49,16.73,1
2068,33.57,5.74,24.44,1
2069,33.59,2.11,22.51,1
2070,33.6,7.07,4.96,1
2071,33.61,15.7,-4.94,1
2072,33.63,-2.19,-5.6,1
2073,33.64,-0.26,-7.0,1
2074,33.65,10.05,7.37,1
2075,33.67,42.38,-3.17,1
2076,33.68,28.63,-9.26,1
2077,33.69,5.37,-1.89,1
2078,33.71,-3.39,6.05,1
2079,33.72,24.19,2.52,1
2080,33.73,3.84,-11.62,1
2081,33.75,19.09,-1.38,1
2082,33.76,3.27,6.45,1
2083,33.77,23.41,-4.27,1
2084,33.79,-4.82,-1.87,1
2085,33.8,21.79,1.56,1
2086,33.81,30.23,9.13,1
2087,33.83,-1.01,2.48,1
2088,33.84,-2.41,1.62,1
2089,33.85,-3.12,-0.18,1
2090,33.87,23.23,5.91,1
2091,33.88,10.25,-6.86,1
2092,33.89,-1.14,-7.28,1
2093,33.9,-10.11,-10.31,1
2094,33.92,11.78,-2.79,1
2095,33.93,-4.09,-5.82,1
2096,33.95,-4.37,-12.03,1
2097,33.96,-0.03,1.26,1
2098,33.97,-9.46,-17.5,1
2099,33.99,-14.09,-15.03,1
2100,34.0,-4.53,-15.77,1
2101,34.01,-7.77,-7.09,1
2102,34.03,7.96,7.35,1
2103,34.04,-4.49,11.61,1
2104,34.05,-59.14,5.22,1
2105,34.07,-27.65,-8.47,1
2106,34.08,6.81,-5.41,1
2107,34.09,5.15,-9.58,1
2108,34.11,-19.39,-8.56,1
2109,34.12,21.04,1.72,1
2110,34.13,19.99,13.68,1
2111,34.15,9.35,35.75,1
2112,34.16,23.55,84.25,1
2113,34.17,11.82,189.08,1
2114,34.19,15.25,289.33,1
2115,34.2,-9.6,306.71,1
2116,34.21,-68.25,130.7,1
2117,34.23,-245.13,19.34,1
2118,34.24,294.44,176.81,1
2119,34.25,118.41,-55.01,1
2120,34.27,101.09,-177.73,1
2121,34.28,93.88,2.27,1
2122,34.29,87.98,-0.08,1
2123,34.31,-263.24,-30.62,1
2124,34.32,85.52,-83.75,1
2125,34.33,181.02,-67.02,1
2126,34.35,207.76,-98.89,1
2127,34.36,-199.74,-112.09,1
2128,34.37,-90.35,-253.45,1
2129,34.38,-117.86,-529.83,1
2130,34.4,-65.68,-453.63,1
2131,34.41,-154.22,-257.14,1
2132,34.43,29.09,-30.65,1
2133,34.44,-5.0,-168.81,1
2134,34.45,-156.11,-92.0,1
2135,34.47,-43.21,96.34,1
2136,34.48,-64.09,-86.27,1
2137,34.49,-90.82,85.34,1
2138,34.51,-80.55,68.23,1
2139,34.52,143.06,-96.43,1
2140,34.53,-163.39,-118.7,1
2141,34.54,227.67,-129.15,1
2142,34.56,226.81,66.12,1
2143,34.57,-166.8,-271.59,1
2144,34.59,-98.27,67.77,1
2145,34.6,50.29,-16.88,1
2146,34.61,-50.86,-63.74,1
2147,34.63,112.1,-337.43,1
2148,34.64,-42.13,80.63,1
2149,34.65,-55.28,250.95,1
2150,34.67,87.45,84.7,1
2151,34.68,-178.19,-145.71,1
2152,34.69,312.24,153.87,1
2153,34.71,-251.72,-6.93,1
2154,34.72,-74.17,276.98,1
2155,34.73,8.28,806.36,1
2156,34.75,-21.92,412.64,1
2157,34.76,125.77,320.73,1
2158,34.77,16.76,279.42,1
2159,34.79,-328.69,278.92,1
2160,34.8,-75.22,356.51,1
2161,34.81,62.76,-8.76,1
2162,34.83,395.01,29.37,1
2163,34.84,43.53,-29.01,1
2164,34.85,-159.35,-195.06,1
2165,34.87,-180.37,31.99,1
2166,34.88,40.65,-186.53,1
2167,34.89,-55.05,-126.79,1
2168,34.91,8.21,-266.23,1
2169,34.92,102.42,-254.77,1
2170,34.93,124.21,-133.32,1
2171,34.95,132.78,-247.91,1
2172,34.96,73.08,3.3,1
2173,34.97,65.87,-44.09,1
2174,34.99,46.78,23.31,1
2175,35.0,71.62,-26.47,1
2176,35.01,50.67,62.38,1
2177,35.03,64.81,104.5,1
2178,35.04,64.74,69.36,1
2179,35.05,27.87,110.73,1
2180,35.06,51.67,148.19,1
2181,35.08,22.89,167.07,1
2182,35.09,42.71,176.97,1
2183,35.11,65.53,188.15,1
2184,35.12,38.17,214.35,1
2185,35.13,8.05,180.97,1
2186,35.15,29.97,169.47,1
2187,35.16,27.65,135.05,1
2188,35.17,29.17,100.72,1
2189,35.19,-23.92,79.46,1
2190,35.2,-6.79,45.09,1
2191,35.21,-0.69,-12.9,1
2192,35.22,-17.16,-46.0,1
2193,35.24,-34.89,-31.89,1
2194,35.25,-60.71,-55.88,1
2195,35.27,-13.83,-93.25,1
2196,35.28,-47.51,-90.98,1
2197,35.29,-50.3,-124.47,1
2198,35.31,-26.49,-137.68,1
2199,35.32,-62.87,-129.86,1
2200,35.33,-68.95,-136.38,1
2201,35.35,-76.79,-196.64,1
2202,35.36,-45.44,-143.25,1
2203,35.37,-70.18,-175.11,1
2204,35.39,-63.89,-114.65,1
2205,35.4,-58.36,-129.58,1
2206,35.41,-36.34,-118.6,1
2207,35.43,-28.37,-121.8,1
2208,35.44,-38.48,-112.09,1
2209,35.45,-51.51,-108.15,1
2210,35.47,-27.11,-110.88,1
2211,35.48,-31.62,-99.85,1
2212,35.49,-31.16,-91.23,1
2213,35.51,-39.73,-77.5,1
2214,35.52,-14.45,-64.99,1
2215,35.53,-27.16,-57.63,1
2216,35.55,-30.66,-48.92,1
2217,35.56,-23.37,-44.7,1
2218,35.57,-3.08,-27.79,1
2219,35.59,-8.58,-40.05,1
2220,35.6,5.38,-18.94,1
2221,35.61,-13.89,-25.18,1
2222,35.63,7.75,-0.04,1
2223,35.64,11.43,12.93,1
2224,35.65,8.28,8.95,1
2225,35.67,-3.76,37.73,1
2226,35.68,7.1,31.72,1
2227,35.69,17.75,13.86,1
2228,35.71,9.71,43.75,1
2229,35.72,33.22,36.56,1
2230,35.73,19.7,42.7,1
2231,35.75,16.56,53.07,1
2232,35.76,28.63,45.92,1
2233,35.77,40.32,46.3,1
2234,35.79,38.81,47.85,1
2235,35.8,20.14,48.02,1
2236,35.81,29.0,58.88,1
2237,35.83,48.19,56.82,1
2238,35.84,22.67,59.77,1
2239,35.85,24.53,48.62,1
2240,35.87,-7.71,59.3,1
2241,35.88,32.02,49.71,1
2242,35.89,23.21,48.8,1
2243,35.9,15.0,54.05,1
2244,35.92,9.78,49.88,1
2245,35.93,18.53,40.53,1
2246,35.95,7.16,55.13,1
2247,35.96,-0.61,49.44,1
2248,35.97,10.96,53.4,1
2249,35.99,30.78,57.47,1
2250,36.0,9.26,32.65,1
2251,36.01,4.62,31.27,1
2252,36.03,1.65,39.35,1
2253,36.04,23.46,24.01,1
2254,36.05,-26.55,23.44,1
2255,36.07,-15.25,17.17,1
2256,36.08,6.81,10.45,1
2257,36.09,17.01,25.7,1
2258,36.11,9.99,10.21,1
2259,36.12,37.4,1.54,1
2260,36.13,3.31,-3.1,1
2261,36.15,9.79,-4.84,1
2262,36.16,-4.1,-5.4,2
2263,36.17,-17.74,-14.3,2
2264,36.19,7.52,2.29,2
2265,36.2,4.2,-16.77,2
2266,36.21,87.99,-14.89,2
2267,36.23,154.24,-25.15,2
2268,36.24,185.43,-57.55,2
2269,36.25,208.51,-38.21,2
2270,36.27,172.09,-22.54,2
2271,36.28,86.23,-7.58,2
2272,36.29,40.11,-15.42,2
2273,36.31,-28.1,5.95,2
2274,36.32,-107.4,10.91,2
2275,36.33,-165.48,15.36,2
2276,36.35,-159.75,21.21,2
2277,36.36,-192.69,-2.25,2
2278,36.37,-183.61,-13.57,2
2279,36.38,-200.82,-10.38,2
2280,36.4,-159.42,-12.95,2
2281,36.41,-150.56,-5.47,2
2282,36.43,-151.08,-16.06,2
2283,36.44,-111.59,-16.62,2
2284,36.45,-114.71,-35.61,2
2285,36.47,-110.44,-27.54,2
2286,36.48,-104.64,-31.31,2
2287,36.49,-69.38,-13.33,2
2288,36.51,-64.04,-19.14,2
2289,36.52,-45.59,-14.84,2
2290,36.53,-28.91,-21.77,2
2291,36.54,-4.08,-5.27,2
2292,36.56,15.39,-1.91,1
2293,36.57,17.31,-2.09,1
2294,36.59,16.82,-0.69,1
2295,36.6,55.46,-2.97,1
2296,36.61,53.79,-17.61,1
2297,36.63,61.26,-13.81,1
2298,36.64,69.12,-14.5,1
2299,36.65,107.16,-8.42,1
2300,36.67,93.66,3.33,1
2301,36.68,81.72,-9.05,1
2302,36.69,78.12,-5.91,1
2303,36.71,102.93,-1.33,1
2304,36.72,89.1,-4.55,1
2305,36.73,79.79,0.4,1
2306,36.75,67.82,0.7,1
2307,36.76,84.31,5.36,1
2308,36.77,63.5,11.66,1
2309,36.79,72.83,-9.91,1
2310,36.8,63.03,-3.78,1
2311,36.81,72.55,-3.36,1
2312,36.83,56.04,10.91,1
2313,36.84,42.42,-8.3,1
2314,36.85,68.06,3.79,1
2315,36.87,51.58,3.42,1
2316,36.88,36.95,6.98,1
2317,36.89,27.19,10.49,1
2318,36.9,35.15,2.82,1
2319,36.92,27.12,8.04,1
2320,36.93,-0.58,2.1,1
2321,36.95,-5.72,4.6,1
2322,36.96,7.98,6.49,1
2323,36.97,0.42,5.16,1
2324,36.99,-9.55,5.48,1
2325,37.0,-18.31,12.11,1
2326,37.01,-8.18,18.14,1
2327,37.03,-23.78,13.13,1
2328,37.04,-51.06,0.99,1
2329,37.05,-36.0,15.74,1
2330,37.06,-29.1,13.6,1
2331,37.08,-34.09,4.24,1
2332,37.09,-39.34,6.15,1
2333,37.11,-37.25,0.2,1
2334,37.12,-19.08,12.64,1
2335,37.13,-16.1,-6.22,1
2336,37.15,-28.1,15.49,1
2337,37.16,-43.82,5.2,1
2338,37.17,-35.3,8.91,1
2339,37.19,-28.22,-10.24,1
2340,37.2,-39.61,4.54,1
2341,37.21,-26.03,-3.42,1
2342,37.225,-38.04,-10.65,1
2343,37.24,-45.66,9.89,1
2344,37.25,-37.94,-1.69,1
2345,37.27,-13.02,-3.12,1
2346,37.28,-32.45,-5.09,1
2347,37.29,-30.18,-3.76,1
2348,37.31,-47.56,-16.7,1
2349,37.32,-10.98,14.93,1
2350,37.33,-35.51,-8.82,1
2351,37.35,-22.42,0.79,1
2352,37.36,-26.15,1.36,1
2353,37.37,-8.46,-6.43,1
2354,37.39,-30.78,-8.73,1
2355,37.4,-0.52,4.09,1
2356,37.41,3.54,-5.37,1
2357,37.43,17.75,-1.33,1
2358,37.44,-2.15,1.98,1
2359,37.45,-10.71,-1.82,1
2360,37.47,0.83,2.31,1
2361,37.48,10.89,8.34,1
2362,37.49,9.15,-2.97,1
2363,37.51,-13.99,-3.91,1
2364,37.52,-3.0,-1.51,1
2365,37.53,35.43,5.63,1
2366,37.54,23.75,-3.71,1
2367,37.56,21.39,-9.81,1
2368,37.57,30.31,-9.43,1
2369,37.59,17.33,1.18,1
2370,37.6,13.97,-11.35,1
2371,37.61,12.22,-4.17,1
2372,37.63,26.91,3.64,1
2373,37.64,9.73,-1.19,1
2374,37.65,-6.5,-9.17,1
2375,37.67,10.61,-5.24,1
2376,37.68,10.88,1.89,1
2377,37.69,3.33,-4.23,1
2378,37.71,-15.44,-1.51,1
2379,37.72,-2.92,-5.08,1
2380,37.73,15.52,-2.42,1
2381,37.75,1.45,-1.67,1
2382,37.76,9.85,9.62,1
2383,37.77,-2.04,-2.57,1
2384,37.79,22.07,10.16,1
2385,37.8,18.01,-10.45,1
2386,37.81,15.5,-3.06,1
2387,37.83,11.43,-3.34,1
2388,37.84,5.75,-1.65,1
2389,37.85,-0.9,-3.69,1
2390,37.87,-0.72,14.1,1
2391,37.88,2.96,14.17,1
2392,37.89,20.84,-0.9,1
2393,37.91,-16.11,3.14,1
2394,37.92,2.37,12.44,1
2395,37.93,20.41,11.58,1
2396,37.95,8.55,2.95,1
2397,37.96,1.15,-0.66,1
2398,37.97,-21.72,-11.07,1
2399,37.99,14.29,-13.2,1
2400,38.0,12.49,8.74,1
2401,38.01,9.41,11.15,1
2402,38.03,0.41,-1.81,1
2403,38.04,17.99,2.08,1
2404,38.05,-14.7,-2.89,1
2405,38.07,-51.56,-4.53,1
2406,38.08,-19.62,-3.2,1
2407,38.09,-17.28,1.57,1
2408,38.11,3.04,17.23,1
2409,38.12,-9.58,-6.95,1
2410,38.13,-3.68,16.41,1
2411,38.15,41.79,15.49,1
2412,38.16,9.8,-8.53,0
2413,38.17,-4.86,-2.21,0
2414,38.19,9.25,-0.37,0
2415,38.2,-18.33,-6.79,0
2416,38.21,-3.34,14.63,0
2417,38.22,-40.27,6.77,0
2418,38.24,-113.75,4.33,0
2419,38.25,-123.55,-1.84,0
2420,38.27,-153.43,-20.41,0
2421,38.28,-183.43,-20.42,0
2422,38.29,-157.91,-36.11,0
2423,38.31,-150.2,-33.29,0
2424,38.32,-118.12,-20.73,0
2425,38.33,-78.59,-20.55,0
2426,38.35,-10.68,-4.91,0
2427,38.36,29.15,-2.75,0
2428,38.37,108.49,14.93,0
2429,38.38,194.99,27.43,0
2430,38.4,291.34,16.16,0
2431,38.41,311.2,8.57,0
2432,38.43,285.69,31.82,0
2433,38.44,272.98,16.32,0
2434,38.45,250.39,-4.12,0
2435,38.47,203.93,4.74,0
2436,38.48,166.16,19.32,0
2437,38.49,130.79,11.51,0
2438,38.51,103.59,13.43,0
2439,38.52,50.43,1.14,0
2440,38.53,34.46,-1.76,0
2441,38.55,-2.99,-5.58,0
2442,38.56,-6.2,2.25,1
2443,38.57,-38.2,1.74,1
2444,38.59,-56.1,-2.88,1
2445,38.6,-74.33,-11.11,1
2446,38.61,-67.9,-8.69,1
2447,38.63,-86.17,-12.34,1
2448,38.64,-95.64,-6.11,1
2449,38.65,-109.78,3.26,1
2450,38.67,-101.49,-9.21,1
2451,38.68,-115.93,-0.19,1
2452,38.69,-113.61,-7.72,1
2453,38.71,-101.16,-0.33,1
2454,38.72,-112.83,-10.56,1
2455,38.73,-113.28,10.25,1
2456,38.75,-107.1,-2.95,1
2457,38.76,-69.87,1.32,1
2458,38.77,-77.43,2.7,1
2459,38.79,-79.41,16.37,1
2460,38.8,-84.36,-1.83,1
2461,38.81,-68.38,-7.45,1
2462,38.83,-60.27,0.68,1
2463,38.84,-50.29,4.29,1
2464,38.85,-72.81,0.97,1
2465,38.87,-51.02,3.53,1
2466,38.88,-39.69,-3.58,1
2467,38.89,-25.19,4.79,1
2468,38.9,-31.43,6.93,1
2469,38.92,-13.99,-2.57,1
2470,38.93,-3.88,2.04,1
2471,38.95,-11.07,8.79,1
2472,38.96,0.22,-5.87,1
2473,38.97,21.84,2.71,1
2474,38.99,4.05,0.11,1
2475,39.0,5.65,-2.53,1
2476,39.01,7.72,-17.11,1
2477,39.03,34.27,-13.09,1
2478,39.04,44.09,-6.98,1
2479,39.05,31.86,-8.31,1
2480,39.06,47.33,1.69,1
2481,39.08,30.93,0.72,1
2482,39.09,42.8,-2.45,1
2483,39.11,27.55,0.35,1
2484,39.12,29.79,-12.25,1
2485,39.13,30.03,-4.94,1
2486,39.15,37.18,13.45,1
2487,39.16,45.14,18.16,1
2488,39.17,117.27,-8.07,1
2489,39.19,101.93,-8.78,1
2490,39.2,66.09,-11.05,1
2491,39.21,55.19,-0.26,1
2492,39.23,39.89,12.73,1
2493,39.24,9.45,7.71,1
2494,39.25,4.63,6.35,1
2495,39.27,-15.04,8.28,1
2496,39.28,5.79,-7.05,1
2497,39.29,7.1,4.71,1
2498,39.31,-4.3,-0.33,1
2499,39.32,-5.25,-5.75,1
2500,39.33,14.65,-4.93,1
2501,39.35,-0.34,5.78,1
2502,39.36,-3.65,-9.47,1
2503,39.37,1.45,-1.45,1
2504,39.39,26.3,-5.26,1
2505,39.4,7.31,8.89,1
2506,39.41,-9.31,3.56,1
2507,39.43,7.74,2.93,1
2508,39.44,2.98,6.72,1
2509,39.45,-0.97,3.65,1
2510,39.47,-6.81,19.07,1
2511,39.48,18.37,-12.26,1
2512,39.49,6.47,-1.0,1
2513,39.51,2.0,6.29,1
2514,39.52,-6.14,1.76,1
2515,39.53,4.2,-9.75,1
2516,39.54,-10.16,5.72,1
2517,39.56,13.25,13.05,1
2518,39.57,-8.78,3.08,1
2519,39.59,13.34,-7.73,1
2520,39.6,-22.31,5.45,1
2521,39.61,-13.14,-1.49,1
2522,39.63,-19.02,3.9,1
2523,39.64,0.54,-1.0,1
2524,39.65,6.18,-3.9,1
2525,39.67,-16.86,-10.87,1
2526,39.68,-19.4,-4.84,1
2527,39.69,6.49,-2.35,1
2528,39.71,-1.8,17.32,1
2529,39.72,-13.39,-1.63,1
2530,39.73,-8.24,-7.58,1
2531,39.75,5.49,16.32,1
2532,39.76,-10.14,3.46,1
2533,39.77,-14.11,-4.01,1
2534,39.79,-9.62,-15.31,1
2535,39.8,-1.08,-2.94,1
2536,39.81,-0.43,-0.54,1
2537,39.83,-4.92,4.56,1
2538,39.84,11.4,0.48,1
2539,39.85,-11.89,10.57,1
2540,39.87,-14.71,-8.84,1
2541,39.88,-24.46,5.5,1
2542,39.89,11.76,-5.02,1
2543,39.91,0.61,-3.56,1
2544,39.92,-8.71,-23.64,1
2545,39.93,-7.34,-22.07,1
2546,39.95,9.66,-5.24,1
2547,39.96,-18.25,4.2,1
2548,39.97,-3.22,11.41,1
2549,39.99,-11.19,-11.99,1
2550,40.0,3.61,9.03,1
2551,40.01,-4.64,0.94,1
2552,40.03,-14.58,6.84,1
2553,40.04,-9.71,11.01,1
2554,40.05,8.96,15.32,1
2555,40.07,-20.16,13.51,1
2556,40.08,-27.49,-9.78,1
2557,40.09,-27.09,-19.27,1
2558,40.11,40.51,-3.61,1
2559,40.12,-22.49,-2.51,1
2560,40.13,7.62,16.39,1
2561,40.15,1.09,9.79,1
2562,40.16,21.57,4.43,0
2563,40.17,25.91,-0.88,0
2564,40.19,-2.19,40.58,0
2565,40.2,-53.81,6.27,0
2566,40.21,-151.96,-12.86,0
2567,40.22,-225.81,-33.82,0
2568,40.24,-210.13,-10.98,0
2569,40.25,-138.3,-2.08,0
2570,40.27,-62.01,-9.81,0
2571,40.28,-24.42,-21.1,0
2572,40.29,20.8,-18.51,0
2573,40.31,79.03,-10.28,0
2574,40.32,102.27,3.1,0
2575,40.33,141.75,8.2,0
2576,40.35,129.26,1.88,0
2577,40.36,192.65,5.81,0
2578,40.37,174.0,-9.39,0
2579,40.38,191.49,1.59,0
2580,40.4,162.03,-5.88,0
2581,40.41,170.77,12.64,0
2582,40.43,133.72,4.58,0
2583,40.44,103.12,17.24,0
2584,40.45,96.79,20.9,0
2585,40.47,91.79,13.98,0
2586,40.48,66.29,2.0,0
2587,40.49,43.58,-9.68,0
2588,40.51,8.82,-0.53,0
2589,40.52,29.27,-14.84,0
2590,40.53,-4.69,16.19,0
2591,40.55,-26.73,0.08,0
2592,40.56,-29.75,8.37,1
2593,40.57,-30.49,19.66,1
2594,40.59,-42.4,14.52,1
2595,40.6,-69.69,-18.19,1
2596,40.61,-78.3,-7.41,1
2597,40.63,-82.35,9.56,1
2598,40.64,-105.07,12.16,1
2599,40.65,-92.59,-4.79,1
2600,40.67,-74.49,1.84,1
2601,40.68,-111.08,1.69,1
2602,40.69,-102.52,0.01,1
2603,40.71,-126.04,-25.73,1
2604,40.72,-88.52,-3.98,1
2605,40.73,-87.2,-6.02,1
2606,40.75,-84.0,-2.82,1
2607,40.76,-70.45,9.25,1
2608,40.77,-41.57,-15.7,1
2609,40.79,-36.21,-0.65,1
2610,40.8,-31.62,-1.94,1
2611,40.81,-25.6,1.89,1
2612,40.83,-14.91,4.6,1
2613,40.84,-30.6,-11.06,1
2614,40.85,-19.94,-3.73,1
2615,40.87,-15.72,-1.03,1
2616,40.88,4.15,7.19,1
2617,40.89,-25.06,-10.99,1
2618,40.9,-27.76,-23.24,1
2619,40.92,-16.81,7.15,1
2620,40.93,23.67,-10.31,1
2621,40.95,12.31,11.8,1
2622,40.96,1.2,-5.6,1
2623,40.97,10.72,15.57,1
2624,40.99,24.03,9.62,1
2625,41.0,23.01,0.3,1
2626,41.01,26.0,-7.5,1
2627,41.03,17.61,-4.93,1
2628,41.04,13.9,8.88,1
2629,41.05,26.89,-0.09,1
2630,41.06,13.04,4.23,1
2631,41.08,47.47,23.67,1
2632,41.09,15.37,3.67,1
2633,41.11,21.94,-9.29,1
2634,41.12,26.51,5.64,1
2635,41.13,40.39,2.56,1
2636,41.15,18.62,-10.39,1
2637,41.16,11.59,-3.18,1
2638,41.17,23.33,8.83,1
2639,41.19,45.37,5.5,1
2640,41.2,41.01,-3.0,1
2641,41.21,32.52,-12.8,1
2642,41.23,14.29,1.98,1
2643,41.24,35.27,8.16,1
2644,41.25,16.29,-1.43,1
2645,41.27,23.85,-14.86,1
2646,41.28,19.41,-7.92,1
2647,41.29,24.91,-1.45,1
2648,41.31,10.1,-9.51,1
2649,41.32,13.09,-8.72,1
2650,41.33,39.77,6.27,1
2651,41.35,18.7,2.37,1
2652,41.36,9.86,6.3,1
2653,41.37,0.52,6.48,1
2654,41.38,19.5,12.17,1
2655,41.4,10.63,-7.44,1
2656,41.41,-3.36,-10.09,1
2657,41.43,1.23,-2.18,1
2658,41.44,14.43,-6.93,1
2659,41.45,-2.4,-2.69,1
2660,41.47,-9.22,-9.8,1
2661,41.48,-8.36,15.26,1
2662,41.49,21.91,-4.44,1
2663,41.51,-19.61,-6.47,1
2664,41.52,-14.43,-7.02,1
2665,41.53,-16.16,8.66,1
2666,41.54,10.74,-6.42,1
2667,41.56,-9.35,-8.37,1
2668,41.57,-14.17,11.55,1
2669,41.59,-14.93,0.56,1
2670,41.6,-0.87,14.08,1
2671,41.61,-16.92,8.82,1
2672,41.63,-18.37,8.29,1
2673,41.64,-18.94,7.99,1
2674,41.65,9.06,-19.6,1
2675,41.67,-8.37,-16.2,1
2676,41.68,-6.05,31.94,1
2677,41.69,-24.03,15.49,1
2678,41.71,-6.97,-2.46,1
2679,41.72,-25.35,-11.74,1
2680,41.73,-21.55,10.26,1
2681,41.75,0.0,-1.74,1
2682,41.76,-12.13,2.94,1
2683,41.77,-2.46,-1.67,1
2684,41.79,0.31,-4.91,1
2685,41.8,-2.68,4.86,1
2686,41.81,2.66,3.36,1
2687,41.83,-5.22,-3.98,1
2688,41.84,-19.81,2.77,1
2689,41.85,4.41,-6.59,1
2690,41.87,-15.3,-4.95,1
2691,41.88,-12.56,-1.63,1
2692,41.89,-2.21,3.14,1
2693,41.91,-4.13,-7.43,1
2694,41.92,-2.39,-4.62,1
2695,41.93,4.98,-6.55,1
2696,41.95,-1.42,7.08,1
2697,41.96,3.49,19.92,1
2698,41.97,5.82,-4.72,1
2699,41.99,-19.96,20.67,1
2700,42.0,-7.25,9.62,1
2701,42.01,14.08,0.82,1
2702,42.03,-11.2,-6.43,1
2703,42.04,-16.68,-7.82,1
2704,42.05,14.34,1.86,1
2705,42.06,-34.62,9.49,1
2706,42.08,-21.31,3.49,1
2707,42.09,15.23,0.86,1
2708,42.11,22.37,3.47,1
2709,42.12,15.76,-8.21,1
2710,42.13,24.76,3.28,1
2711,42.15,1.83,-10.14,1
2712,42.16,20.83,-10.13,2
2713,42.17,40.0,-1.05,2
2714,42.19,-27.14,8.61,2
2715,42.2,-4.66,-17.1,2
2716,42.21,26.28,-2.21,2
2717,42.22,50.09,-4.56,2
2718,42.24,147.43,-11.56,2
2719,42.25,165.89,6.72,2
2720,42.27,259.38,5.44,2
2721,42.28,228.95,-3.38,2
2722,42.29,184.47,-4.1,2
2723,42.31,128.87,7.71,2
2724,42.32,71.85,-3.42,2
2725,42.33,-4.55,-5.16,2
2726,42.35,-91.31,-1.69,2
2727,42.36,-213.51,-6.15,2
2728,42.37,-244.36,-18.72,2
2729,42.38,-300.11,-12.52,2
2730,42.4,-292.63,4.37,2
2731,42.41,-256.04,2.66,2
2732,42.43,-233.86,-2.19,2
2733,42.44,-205.33,10.56,2
2734,42.45,-198.19,1.23,2
2735,42.47,-148.3,-10.22,2
2736,42.48,-116.68,-15.39,2
2737,42.49,-71.77,5.69,2
2738,42.51,-19.96,-2.99,2
2739,42.52,-10.51,-13.07,2
2740,42.53,-5.04,-4.16,2
2741,42.55,0.11,5.12,2
2742,42.56,5.32,10.91,1
2743,42.57,43.35,3.6,1
2744,42.59,33.61,8.47,1
2745,42.6,42.22,-7.99,1
2746,42.61,54.32,6.59,1
2747,42.63,79.1,16.85,1
2748,42.64,87.95,2.33,1
2749,42.65,81.96,-2.97,1
2750,42.67,83.69,20.06,1
2751,42.68,107.45,8.27,1
2752,42.69,102.46,-3.75,1
2753,42.71,99.69,0.45,1
2754,42.72,90.94,13.63,1
2755,42.73,99.43,-3.61,1
2756,42.75,88.85,1.76,1
2757,42.76,102.01,6.81,1
2758,42.77,102.09,2.65,1
2759,42.79,92.93,-15.26,1
2760,42.8,72.11,9.9,1
2761,42.81,75.9,7.37,1
2762,42.83,69.04,5.12,1
2763,42.84,41.36,-6.85,1
2764,42.85,30.99,0.72,1
2765,42.87,33.96,-7.93,1
2766,42.88,46.36,-3.01,1
2767,42.89,29.72,-6.47,1
2768,42.9,27.07,2.03,1
2769,42.92,-3.45,2.46,1
2770,42.93,19.35,12.8,1
2771,42.95,-1.48,-6.67,1
2772,42.96,-13.09,13.58,1
2773,42.97,0.57,9.87,1
2774,42.99,4.79,1.05,1
2775,43.0,-17.55,-2.5,1
2776,43.01,-29.6,-7.4,1
2777,43.03,-25.88,-1.3,1
2778,43.04,-26.33,-0.38,1
2779,43.05,-38.04,-17.3,1
2780,43.06,-41.23,-6.45,1
2781,43.08,-42.08,9.6,1
2782,43.09,-17.84,8.85,1
2783,43.11,-31.43,-11.29,1
2784,43.12,-44.44,11.79,1
2785,43.13,-46.7,-15.08,1
2786,43.15,-23.14,-16.0,1
2787,43.16,-40.84,0.23,1
2788,43.17,-37.85,-15.93,1
2789,43.19,-36.64,-2.4,1
2790,43.2,-37.8,11.04,1
2791,43.21,-37.57,12.94,1
2792,43.23,-24.18,-5.15,1
2793,43.24,-20.41,11.21,1
2794,43.25,-34.7,5.33,1
2795,43.27,-45.81,9.1,1
2796,43.28,-37.09,-9.51,1
2797,43.29,-7.05,-6.09,1
2798,43.31,-31.19,-1.79,1
2799,43.32,-25.86,-3.98,1
2800,43.33,-32.35,7.05,1
2801,43.35,-8.73,-1.14,1
2802,43.36,-25.57,1.11,1
2803,43.37,-12.76,-10.66,1
2804,43.38,-20.85,-2.55,1
2805,43.4,5.47,-12.11,1
2806,43.41,6.55,-8.08,1
2807,43.43,-11.58,-12.17,1
2808,43.44,10.57,-8.74,1
2809,43.45,0.59,5.39,1
2810,43.47,10.32,0.15,1
2811,43.48,-10.79,5.47,1
2812,43.49,10.23,10.35,1
2813,43.51,10.18,12.92,1
2814,43.52,-2.22,-3.06,1
2815,43.53,-3.91,-0.17,1
2816,43.54,-21.89,6.9,1
2817,43.56,29.91,13.02,1
2818,43.57,16.96,-3.36,1
2819,43.59,2.15,-12.57,1
2820,43.6,18.96,21.37,1
2821,43.61,7.35,0.61,1
2822,43.63,-7.14,-4.89,1
2823,43.64,5.51,-5.53,1
2824,43.65,23.68,14.74,1
2825,43.67,8.37,-9.93,1
2826,43.68,17.61,-4.02,1
2827,43.69,20.28,-12.99,1
2828,43.71,21.77,1.19,1
2829,43.72,27.89,10.9,1
2830,43.73,19.31,2.26,1
2831,43.75,-4.9,-7.38,1
2832,43.76,25.89,-7.29,1
2833,43.77,0.44,8.9,1
2834,43.79,-9.24,9.56,1
2835,43.8,-16.13,3.17,1
2836,43.81,1.84,-26.4,1
2837,43.83,19.83,-7.59,1
2838,43.84,12.58,-14.01,1
2839,43.85,-14.92,7.16,1
2840,43.87,16.03,15.75,1
2841,43.88,3.77,1.54,1
2842,43.89,11.31,11.36,1
2843,43.91,3.96,5.6,1
2844,43.92,16.6,0.42,1
2845,43.93,-10.43,2.93,1
2846,43.95,14.33,3.55,1
2847,43.96,34.79,-9.29,1
2848,43.97,10.71,4.16,1
2849,43.99,-6.18,14.12,1
2850,44.0,-17.99,8.41,1
2851,44.01,-2.03,0.56,1
2852,44.03,-2.67,3.36,1
2853,44.04,-5.1,0.66,1
2854,44.05,-3.28,12.1,1
2855,44.06,-56.73,1.41,1
2856,44.08,-33.71,-0.66,1
2857,44.09,3.06,5.62,1
2858,44.11,-25.76,-12.23,1
2859,44.12,29.71,-12.27,1
2860,44.13,16.17,-3.47,1
2861,44.15,2.93,0.73,1
2862,44.16,15.98,2.75,1
2863,44.17,21.36,39.78,1
2864,44.19,15.71,151.72,1
2865,44.2,34.95,319.66,1
2866,44.21,26.17,280.38,1
2867,44.22,80.71,191.56,1
2868,44.24,-49.1,80.58,1
2869,44.25,43.44,-42.81,1
2870,44.27,215.36,-290.79,1
2871,44.28,200.66,-196.77,1
2872,44.29,-205.93,-130.79,1
2873,44.31,141.5,198.24,1
2874,44.32,167.03,41.27,1
2875,44.33,-54.64,47.62,1
2876,44.35,-185.94,-147.39,1
2877,44.36,-76.94,-420.55,1
2878,44.37,148.35,-164.88,1
2879,44.39,-167.81,94.66,1
2880,44.4,77.69,33.54,1
2881,44.41,-383.79,12.64,1
2882,44.43,-381.86,-116.76,1
2883,44.44,-168.38,-252.12,1
2884,44.45,-66.36,-97.09,1
2885,44.47,-367.67,-337.09,1
2886,44.48,148.57,207.74,1
2887,44.49,-86.45,-113.5,1
2888,44.51,243.24,-244.01,1
2889,44.52,23.55,11.04,1
2890,44.53,207.19,94.7,1
2891,44.55,280.45,-124.74,1
2892,44.56,-81.9,-159.89,1
2893,44.57,98.89,-70.14,1
2894,44.59,153.73,-413.36,1
2895,44.6,11.54,-41.67,1
2896,44.61,-254.73,-137.56,1
2897,44.63,166.24,-356.52,1
2898,44.64,-236.47,203.72,1
2899,44.65,-13.58,216.08,1
2900,44.67,283.32,-204.94,1
2901,44.68,29.83,158.05,1
2902,44.69,-2.49,-37.89,1
2903,44.71,-12.05,570.49,1
2904,44.72,-206.31,168.11,1
2905,44.73,55.33,-65.17,1
2906,44.75,-176.19,157.13,1
2907,44.76,16.11,123.85,1
2908,44.77,-24.6,459.27,1
2909,44.79,328.8,132.13,1
2910,44.8,5.71,14.85,1
2911,44.81,-120.78,346.39,1
2912,44.83,-178.08,-118.91,1
2913,44.84,16.28,73.58,1
2914,44.85,-35.6,467.52,1
2915,44.87,-21.85,-188.78,1
2916,44.88,-266.46,20.41,1
2917,44.89,157.67,147.85,1
2918,44.9,-128.38,89.12,1
2919,44.92,138.88,-68.03,1
2920,44.93,46.98,130.77,1
2921,44.95,-175.88,-86.48,1
2922,44.96,57.98,-23.07,1
2923,44.97,-151.36,-228.93,1
2924,44.99,68.06,-35.73,1
2925,45.0,67.08,-122.28,1
2926,45.01,92.22,-36.1,1
2927,45.03,130.31,8.23,1
2928,45.04,135.05,81.68,1
2929,45.05,162.33,112.12,1
2930,45.07,104.97,148.56,1
2931,45.08,123.26,156.44,1
2932,45.09,104.99,204.14,1
2933,45.11,58.97,171.93,1
2934,45.12,68.46,186.42,1
2935,45.13,69.38,143.71,1
2936,45.15,68.77,139.82,1
2937,45.16,61.95,82.75,1
2938,45.17,82.05,70.02,1
2939,45.19,56.31,26.28,1
2940,45.2,61.94,24.98,1
2941,45.21,30.53,1.46,1
2942,45.22,6.37,-75.0,1
2943,45.24,10.93,-76.23,1
2944,45.25,-12.33,-102.83,1
2945,45.27,-40.24,-117.37,1
2946,45.28,-31.15,-121.57,1
2947,45.29,-14.6,-138.72,1
2948,45.31,-43.62,-136.11,1
2949,45.32,-45.86,-118.2,1
2950,45.33,-52.53,-126.64,1
2951,45.35,-79.58,-139.71,1
2952,45.36,-52.16,-114.85,1
2953,45.37,-70.36,-130.23,1
2954,45.38,-89.25,-164.91,1
2955,45.4,-81.73,-157.2,1
2956,45.41,-60.45,-171.92,1
2957,45.43,-72.34,-159.56,1
2958,45.44,-60.89,-153.34,1
2959,45.45,-58.96,-121.14,1
2960,45.47,-63.58,-115.81,1
2961,45.48,-63.7,-107.72,1
2962,45.49,-84.88,-99.05,1
2963,45.51,-63.2,-96.38,1
2964,45.52,-59.97,-83.28,1
2965,45.53,-51.92,-89.4,1
2966,45.54,-43.94,-73.3,1
2967,45.56,-41.37,-38.56,1
2968,45.57,-34.61,-2.31,1
2969,45.59,-27.45,11.11,1
2970,45.6,-22.05,9.8,1
2971,45.61,4.97,23.45,1
2972,45.63,-15.76,7.36,1
2973,45.64,-14.56,12.35,1
2974,45.65,0.25,37.35,1
2975,45.67,37.61,35.45,1
2976,45.68,22.96,54.8,1
2977,45.69,13.57,36.51,1
2978,45.71,1.61,46.41,1
2979,45.72,14.95,62.06,1
2980,45.73,5.58,57.08,1
2981,45.75,0.26,70.35,1
2982,45.76,-2.35,68.03,1
2983,45.77,23.76,73.21,1
2984,45.79,20.73,80.63,1
2985,45.8,25.18,66.88,1
2986,45.81,13.77,70.74,1
2987,45.83,26.97,72.06,1
2988,45.84,32.66,74.17,1
2989,45.85,26.58,78.69,1
2990,45.87,43.48,64.74,1
2991,45.88,34.41,67.46,1
2992,45.89,4.82,60.77,1
2993,45.9,-1.17,47.54,1
2994,45.92,40.9,41.32,1
2995,45.93,21.21,45.4,1
2996,45.95,36.99,54.75,1
2997,45.96,19.28,24.67,1
2998,45.97,33.89,24.28,1
2999,45.99,25.2,48.54,1
3000,46.0,13.61,34.83,1
3001,46.01,6.69,28.85,1
3002,46.03,10.91,33.63,1
3003,46.04,13.27,20.48,1
3004,46.05,1.98,8.33,1
3005,46.06,-62.82,15.73,1
3006,46.08,41.62,-9.3,1
3007,46.09,-12.83,0.09,1
3008,46.11,-1.07,-7.94,1
3009,46.12,39.04,-13.87,1
3010,46.13,38.79,-2.15,1
3011,46.15,26.89,-18.54,1
3012,46.16,54.29,-2.0,2
3013,46.17,-14.07,-14.45,2
3014,46.19,42.08,-28.56,2
3015,46.2,20.83,-36.86,2
3016,46.21,21.58,-16.03,2
3017,46.22,151.79,6.65,2
3018,46.24,191.53,-40.7,2
3019,46.25,203.5,-30.33,2
3020,46.27,248.68,-17.85,2
3021,46.28,162.19,-25.71,2
3022,46.29,75.58,-30.86,2
3023,46.31,-47.0,-16.43,2
3024,46.32,-95.93,-21.72,2
3025,46.33,-128.34,-10.69,2
3026,46.35,-176.89,-6.88,2
3027,46.36,-214.72,8.5,2
3028,46.37,-227.57,-17.85,2
3029,46.39,-203.81,-18.43,2
3030,46.4,-191.97,-13.77,2
3031,46.41,-210.65,-4.4,2
3032,46.43,-181.7,4.34,2
3033,46.44,-139.3,-0.15,2
3034,46.45,-132.42,-5.65,2
3035,46.47,-113.64,-19.71,2
3036,46.48,-94.34,-15.47,2
3037,46.49,-46.39,-26.0,2
3038,46.51,-48.2,-17.58,2
3039,46.52,-38.76,-18.25,2
3040,46.53,-21.2,-1.09,2
3041,46.54,4.52,10.9,2
3042,46.56,4.55,10.75,1
3043,46.57,12.03,4.17,1
3044,46.59,38.53,5.97,1
3045,46.6,38.93,-22.16,1
3046,46.61,48.54,5.24,1
3047,46.63,66.76,-11.47,1
3048,46.64,74.99,-5.16,1
3049,46.65,69.09,-6.37,1
3050,46.67,69.75,-7.8,1
3051,46.68,75.13,-5.72,1
3052,46.69,94.78,-6.33,1
3053,46.71,67.88,-8.23,1
3054,46.72,67.52,-10.17,1
3055,46.73,64.4,-1.24,1
3056,46.75,104.96,-14.68,1
3057,46.76,80.23,0.27,1
3058,46.77,69.53,-1.63,1
3059,46.79,77.42,-5.76,1
3060,46.8,98.1,-6.85,1
3061,46.81,68.16,-13.55,1
3062,46.83,59.38,10.54,1
3063,46.84,46.43,8.17,1
3064,46.85,61.84,7.77,1
3065,46.87,41.39,18.44,1
3066,46.88,38.05,20.62,1
3067,46.89,16.59,3.43,1
3068,46.9,25.96,21.1,1
3069,46.92,13.46,9.21,1
3070,46.93,6.47,26.9,1
3071,46.95,37.34,30.2,1
3072,46.96,16.23,6.59,1
3073,46.97,-20.62,12.57,1
3074,46.99,-22.17,8.73,1
3075,47.0,-7.38,-7.16,1
3076,47.01,-3.85,3.51,1
3077,47.03,-17.05,11.67,1
3078,47.04,-40.19,7.79,1
3079,47.05,-16.13,-7.5,1
3080,47.07,-44.07,-2.63,1
3081,47.08,-29.36,-8.31,1
3082,47.09,-31.31,-2.96,1
3083,47.11,-21.93,-6.89,1
3084,47.12,-37.47,-7.93,1
3085,47.13,-38.99,-0.37,1
3086,47.15,-36.51,7.97,1
3087,47.16,-19.08,12.18,1
3088,47.17,-28.07,1.83,1
3089,47.19,-45.39,-0.2,1
3090,47.2,-38.66,-2.05,1
3091,47.21,-27.56,2.64,1
3092,47.22,-31.33,1.62,1
3093,47.24,-33.91,-7.81,1
3094,47.25,-38.91,-9.61,1
3095,47.27,-22.12,6.08,1
3096,47.28,-31.25,-1.44,1
3097,47.29,-22.83,-4.25,1
3098,47.31,-39.87,4.82,1
3099,47.32,-16.36,4.21,1
3100,47.33,-22.44,-11.84,1
3101,47.35,-22.18,-1.25,1
3102,47.36,5.65,10.6,1
3103,47.37,-9.02,7.6,1
3104,47.38,-21.98,-6.14,1
3105,47.4,-9.95,1.58,1
3106,47.41,14.12,0.26,1
3107,47.43,-3.0,-12.05,1
3108,47.44,-15.1,-13.61,1
3109,47.45,-10.45,1.22,1
3110,47.47,9.12,-4.31,1
3111,47.48,0.61,-13.66,1
3112,47.49,-6.29,6.55,1
3113,47.51,2.27,2.91,1
3114,47.52,15.48,2.48,1
3115,47.53,2.94,3.94,1
3116,47.54,-5.52,-5.35,1
3117,47.56,1.26,-20.35,1
3118,47.57,16.05,-8.74,1
3119,47.59,0.78,-15.04,1
3120,47.6,9.82,-6.57,1
3121,47.61,10.36,4.45,1
3122,47.63,29.04,6.67,1
3123,47.64,24.56,6.31,1
3124,47.65,-3.13,9.46,1
3125,47.67,13.39,-0.19,1
3126,47.68,4.28,4.14,1
3127,47.69,20.07,-7.26,1
3128,47.71,14.78,-9.2,1
3129,47.72,12.6,0.79,1
3130,47.73,10.35,4.6,1
3131,47.75,5.88,11.1,1
3132,47.76,12.07,4.01,1
3133,47.77,8.24,4.76,1
3134,47.79,14.74,2.43,1
3135,47.8,-0.1,-1.58,1
3136,47.81,2.83,4.71,1
3137,47.83,22.91,-0.79,1
3138,47.84,10.11,-3.67,1
3139,47.85,-6.88,-1.24,1
3140,47.87,-9.78,6.38,1
3141,47.88,3.52,0.93,1
3142,47.89,-3.96,4.24,1
3143,47.9,8.49,5.67,1
3144,47.92,11.97,8.33,1
3145,47.93,17.43,-4.35,1
3146,47.95,4.84,0.68,1
3147,47.96,9.37,5.78,1
3148,47.97,9.06,-0.42,1
3149,47.99,27.52,0.47,1
3150,48.0,-5.22,6.37,1
3151,48.01,-8.36,3.99,1
3152,48.03,-12.97,10.22,1
3153,48.04,-0.54,18.52,1
3154,48.05,-14.29,19.36,1
3155,48.06,-65.63,-2.57,1
3156,48.08,6.59,-12.97,1
3157,48.09,-21.59,-7.11,1
3158,48.11,-3.22,-16.01,1
3159,48.12,11.81,-5.0,1
3160,48.13,-4.38,-3.68,1
3161,48.15,20.85,9.32,1
3162,48.16,-8.39,3.71,0
3163,48.17,-15.88,13.87,0
3164,48.19,58.2,-17.49,0
3165,48.2,9.33,-6.01,0
3166,48.21,11.75,2.36,0
3167,48.22,-40.64,15.89,0
3168,48.24,-109.21,4.18,0
3169,48.25,-173.72,-15.57,0
3170,48.27,-156.47,-22.22,0
3171,48.28,-176.54,-34.52,0
3172,48.29,-136.68,-38.28,0
3173,48.31,-125.12,-33.74,0
3174,48.32,-90.72,-31.88,0
3175,48.33,-45.96,-13.18,0
3176,48.35,22.81,13.34,0
3177,48.36,83.84,8.15,0
3178,48.37,205.37,18.87,0
3179,48.39,257.73,19.05,0
3180,48.4,272.9,27.02,0
3181,48.41,262.85,24.31,0
3182,48.43,242.64,6.52,0
3183,48.44,236.75,5.53,0
3184,48.45,185.23,-3.16,0
3185,48.47,147.06,10.57,0
3186,48.48,111.21,16.02,0
3187,48.49,88.45,6.32,0
3188,48.51,75.69,16.59,0
3189,48.52,22.21,-5.16,0
3190,48.53,-11.55,-1.47,0
3191,48.54,-24.19,0.56,0
3192,48.56,-43.75,-9.21,1
3193,48.57,-50.55,-8.0,1
3194,48.59,-81.29,-4.14,1
3195,48.6,-81.04,11.11,1
3196,48.61,-109.33,-1.35,1
3197,48.63,-102.45,-5.03,1
3198,48.64,-104.38,-4.87,1
3199,48.65,-70.98,7.35,1
3200,48.67,-108.52,4.55,1
3201,48.68,-132.37,-3.47,1
3202,48.69,-148.29,5.35,1
3203,48.71,-82.55,-3.73,1
3204,48.72,-91.04,-1.37,1
3205,48.73,-77.19,-4.63,1
3206,48.75,-69.42,-9.78,1
3207,48.76,-67.8,9.35,1
3208,48.77,-53.54,-3.81,1
3209,48.79,-67.11,-2.22,1
3210,48.8,-46.45,-14.45,1
3211,48.81,-28.42,-1.14,1
3212,48.83,-36.02,4.25,1
3213,48.84,-18.49,-9.64,1
3214,48.85,-4.01,8.33,1
3215,48.87,-6.79,-3.19,1
3216,48.88,-26.62,-7.38,1
3217,48.89,-11.82,3.67,1
3218,48.9,15.29,-2.65,1
3219,48.92,-1.31,1.27,1
3220,48.93,-4.17,-8.59,1
3221,48.95,-8.61,-2.63,1
3222,48.96,8.53,9.56,1
3223,48.97,15.92,9.69,1
3224,48.99,-0.17,-2.46,1
3225,49.0,8.68,7.01,1
3226,49.01,30.51,-3.38,1
3227,49.03,13.83,-3.92,1
3228,49.04,11.59,-6.37,1
3229,49.05,41.15,1.41,1
3230,49.06,33.89,12.91,1
3231,49.08,25.21,15.12,1
3232,49.09,18.53,10.79,1
3233,49.11,20.87,10.42,1
3234,49.12,41.19,4.85,1
3235,49.13,41.84,14.87,1
3236,49.15,19.65,8.24,1
3237,49.16,12.21,-7.91,1
3238,49.17,33.2,-11.21,1
3239,49.19,32.54,-12.37,1
3240,49.2,41.16,-17.6,1
3241,49.21,35.97,2.52,1
3242,49.22,28.38,6.51,1
3243,49.24,3.08,-0.2,1
3244,49.25,28.93,-3.17,1
3245,49.27,35.18,-5.21,1
3246,49.28,20.39,-14.39,1
3247,49.29,17.18,-0.05,1
3248,49.31,8.76,1.16,1
3249,49.32,40.9,2.16,1
3250,49.33,17.73,-7.54,1
3251,49.35,25.39,-13.76,1
3252,49.36,0.51,6.66,1
3253,49.37,14.02,9.9,1
3254,49.38,-2.01,-0.74,1
3255,49.4,-3.46,-7.1,1
3256,49.41,-9.73,2.62,1
3257,49.43,14.07,0.31,1
3258,49.44,3.32,3.68,1
3259,49.45,-6.09,12.51,1
3260,49.47,-9.18,-1.55,1
3261,49.48,8.04,4.5,1
3262,49.49,-14.65,3.36,1
3263,49.51,-7.27,-10.99,1
3264,49.52,-4.79,-0.15,1
3265,49.53,22.36,0.71,1
3266,49.54,5.7,-8.53,1
3267,49.56,-20.54,-3.96,1
3268,49.57,-27.62,-3.91,1
3269,49.59,10.1,9.26,1
3270,49.6,-3.42,13.73,1
3271,49.61,-8.33,-4.12,1
3272,49.63,9.95,5.96,1
3273,49.64,-14.7,-10.87,1
3274,49.65,7.15,-11.23,1
3275,49.67,-29.32,2.38,1
3276,49.68,4.24,1.76,1
3277,49.69,-14.0,-10.94,1
3278,49.71,-26.18,-4.98,1
3279,49.72,-17.46,5.11,1
3280,49.73,0.48,-10.17,1
3281,49.75,-16.41,-3.56,1
3282,49.76,-21.49,-7.42,1
3283,49.77,-19.83,-3.47,1
3284,49.79,-4.57,9.13,1
3285,49.8,8.16,3.76,1
3286,49.81,2.4,9.09,1
3287,49.83,-6.94,2.21,1
3288,49.84,6.2,-5.68,1
3289,49.85,-5.54,1.34,1
3290,49.87,0.56,-13.65,1
3291,49.88,-3.41,-1.77,1
3292,49.89,-1.94,-4.88,1
3293,49.9,-15.58,-6.66,1
3294,49.92,-24.12,1.04,1
3295,49.93,-2.41,-2.87,1
3296,49.95,4.41,1.16,1
3297,49.96,-15.5,4.95,1
3298,49.97,-16.25,17.85,1
3299,49.99,2.97,-1.65,1
3300,50.0,1.15,14.92,1
3301,50.01,-9.0,15.29,1
3302,50.03,8.17,13.07,1
3303,50.04,20.01,7.79,1
3304,50.05,-5.66,16.13,1
3305,50.06,-8.04,15.86,1
3306,50.08,-38.13,13.84,1
3307,50.09,-5.35,8.39,1
3308,50.11,-3.68,4.04,1
3309,50.12,-9.71,-2.07,1
3310,50.13,-4.32,-2.97,1
3311,50.15,38.72,20.49,1
3312,50.16,-14.46,-8.1,0
3313,50.17,-15.46,-23.11,0
3314,50.19,25.44,-1.93,0
3315,50.2,22.69,0.52,0
3316,50.21,32.45,-0.77,0
3317,50.22,25.54,-4.65,0
3318,50.24,-7.21,-6.41,0
3319,50.25,40.99,-25.15,0
3320,50.27,-72.39,6.24,0
3321,50.28,-115.4,-2.35,0
3322,50.29,-188.31,-6.83,0
3323,50.31,-185.91,9.24,0
3324,50.32,-185.34,-21.12,0
3325,50.33,-127.83,-26.95,0
3326,50.35,-51.61,7.9,0
3327,50.36,-15.98,8.17,0
3328,50.37,43.34,-4.4,0
3329,50.38,82.73,3.1,0
3330,50.4,160.56,14.72,0
3331,50.41,170.0,-18.94,0
3332,50.43,186.9,3.29,0
3333,50.44,172.65,-4.96,0
3334,50.45,192.96,-18.13,0
3335,50.47,185.66,-4.76,0
3336,50.48,163.42,0.74,0
3337,50.49,156.11,-7.59,0
3338,50.51,128.33,-14.41,0
3339,50.52,127.45,-11.06,0
3340,50.53,84.89,8.92,0
3341,50.54,74.44,4.57,0
3342,50.56,70.51,-8.95,1
3343,50.57,24.43,10.1,1
3344,50.59,12.65,3.67,1
3345,50.6,-12.71,1.2,1
3346,50.61,-1.21,-2.38,1
3347,50.63,-32.1,9.57,1
3348,50.64,-47.19,20.23,1
3349,50.65,-74.56,17.79,1
3350,50.67,-55.17,-7.15,1
3351,50.68,-93.15,-2.04,1
3352,50.69,-100.71,-3.38,1
3353,50.71,-112.08,5.03,1
3354,50.72,-134.97,4.72,1
3355,50.73,-129.71,1.57,1
3356,50.75,-100.9,-5.46,1
3357,50.76,-73.03,7.88,1
3358,50.77,-84.79,-3.68,1
3359,50.79,-80.04,-1.07,1
3360,50.8,-81.55,1.23,1
3361,50.81,-43.71,-20.72,1
3362,50.83,-53.06,-16.37,1
3363,50.84,-51.46,1.0,1
3364,50.85,-63.96,-0.47,1
3365,50.87,-28.56,-0.21,1
3366,50.88,-48.67,13.59,1
3367,50.89,-43.42,2.02,1
3368,50.91,-45.23,10.82,1
3369,50.92,-32.11,11.57,1
3370,50.93,-31.99,8.89,1
3371,50.95,-8.18,-18.57,1
3372,50.96,-28.93,0.39,1
3373,50.97,-4.95,13.51,1
3374,50.99,-29.13,-7.95,1
3375,51.0,-12.06,18.29,1
3376,51.01,-3.4,15.97,1
3377,51.03,22.98,-5.62,1
3378,51.04,18.55,-9.37,1
3379,51.05,7.7,-8.34,1
3380,51.06,19.23,9.86,1
3381,51.08,42.54,16.03,1
3382,51.09,27.73,-15.19,1
3383,51.11,33.69,-9.66,1
3384,51.12,35.06,-4.11,1
3385,51.13,17.56,12.43,1
3386,51.15,31.66,18.0,1
3387,51.16,37.8,-12.68,1
3388,51.17,55.84,-1.42,1
3389,51.19,36.22,3.14,1
3390,51.2,23.41,5.14,1
3391,51.21,21.04,8.23,1
3392,51.22,55.26,-12.63,1
3393,51.24,40.93,-8.39,1
3394,51.25,19.28,-3.48,1
3395,51.27,19.65,19.54,1
3396,51.28,38.12,5.05,1
3397,51.29,18.77,-18.27,1
3398,51.31,29.88,-7.8,1
3399,51.32,26.93,-4.56,1
3400,51.33,26.1,4.74,1
3401,51.35,4.95,0.81,1
3402,51.36,9.11,-5.43,1
3403,51.37,15.52,-8.25,1
3404,51.38,45.95,-9.79,1
3405,51.4,7.85,0.8,1
3406,51.41,-10.02,-13.81,1
3407,51.43,-1.4,-2.5,1
3408,51.44,26.47,-2.82,1
3409,51.45,9.65,8.69,1
3410,51.47,15.63,8.65,1
3411,51.48,17.12,-12.36,1
3412,51.49,7.41,-1.44,1
3413,51.51,7.84,10.18,1
3414,51.52,-7.98,2.04,1
3415,51.53,6.72,-11.94,1
3416,51.55,-2.21,13.64,1
3417,51.56,4.83,5.75,1
3418,51.57,-4.11,3.4,1
3419,51.59,-6.7,-10.87,1
3420,51.6,-22.28,-0.53,1
3421,51.61,-25.15,-4.95,1
3422,51.63,-26.64,-1.22,1
3423,51.64,7.05,7.98,1
3424,51.65,-11.67,11.76,1
3425,51.67,-22.67,10.54,1
3426,51.68,-6.47,0.79,1
3427,51.69,4.96,1.2,1
3428,51.71,-16.69,-7.62,1
3429,51.72,-12.16,-6.48,1
3430,51.73,-20.56,-10.05,1
3431,51.75,-5.72,-1.29,1
3432,51.76,-2.85,-1.98,1
3433,51.77,-6.93,-2.45,1
3434,51.79,-28.62,1.01,1
3435,51.8,-11.21,-2.84,1
3436,51.81,-26.29,14.05,1
3437,51.83,-15.88,8.47,1
3438,51.84,13.96,8.29,1
3439,51.85,-1.7,-4.1,1
3440,51.87,-17.34,12.14,1
3441,51.88,-6.46,0.59,1
3442,51.89,-2.39,-14.13,1
3443,51.9,-11.34,-11.3,1
3444,51.92,-11.64,5.21,1
3445,51.93,-18.72,5.9,1
3446,51.95,7.02,-0.25,1
3447,51.96,2.39,-6.68,1
3448,51.97,-13.25,-11.72,1
3449,51.99,1.26,11.8,1
3450,52.0,9.44,14.44,1
3451,52.01,4.38,8.45,1
3452,52.03,-2.97,0.54,1
3453,52.04,4.76,-24.98,1
3454,52.05,18.65,22.01,1
3455,52.06,-16.02,4.8,1
3456,52.08,-35.85,-0.96,1
3457,52.09,-10.3,5.01,1
3458,52.11,47.16,-11.64,1
3459,52.12,4.16,-10.19,1
3460,52.13,6.42,-8.3,1
3461,52.15,12.83,-12.95,1
3462,52.16,21.5,11.23,2
3463,52.17,14.58,0.48,2
3464,52.19,4.1,10.61,2
3465,52.2,24.21,8.49,2
3466,52.21,18.55,-13.11,2
3467,52.23,-26.38,4.62,2
3468,52.24,-14.0,-15.68,2
3469,52.25,99.32,-5.85,2
3470,52.27,118.46,-6.96,2
3471,52.28,227.08,-3.23,2
3472,52.29,203.74,-6.65,2
3473,52.31,225.12,3.92,2
3474,52.32,158.96,18.56,2
3475,52.33,116.99,1.93,2
3476,52.35,64.18,-5.7,2
3477,52.36,19.46,8.5,2
3478,52.37,-47.4,16.88,2
3479,52.38,-147.02,-4.03,2
3480,52.4,-263.36,-8.91,2
3481,52.41,-301.96,12.97,2
3482,52.43,-318.43,1.46,2
3483,52.44,-290.75,10.81,2
3484,52.45,-308.63,-13.44,2
3485,52.47,-221.94,-4.45,2
3486,52.48,-224.17,9.79,2
3487,52.49,-190.84,-11.9,2
3488,52.51,-151.44,-7.51,2
3489,52.52,-93.13,1.48,2
3490,52.53,-62.54,-5.93,2
3491,52.54,-38.01,-12.43,2
3492,52.56,-17.38,-1.01,1
3493,52.57,21.33,-3.7,1
3494,52.59,27.28,-5.14,1
3495,52.6,57.2,21.61,1
3496,52.61,81.11,6.58,1
3497,52.63,55.14,17.85,1
3498,52.64,52.3,3.98,1
3499,52.65,79.72,12.0,1
3500,52.67,129.01,38.01,1
3501,52.68,121.59,23.18,1
3502,52.69,123.73,7.38,1
3503,52.71,126.69,-12.52,1
3504,52.72,147.7,-22.99,1
3505,52.73,143.9,-44.57,1
3506,52.75,118.49,-55.09,1
3507,52.76,111.55,-40.18,1
3508,52.77,122.2,-31.3,1
3509,52.79,107.29,-20.91,1
3510,52.8,90.71,-1.06,1
3511,52.81,73.07,-4.97,1
3512,52.83,100.16,-0.22,1
3513,52.84,69.18,2.18,1
3514,52.85,56.48,-1.58,1
3515,52.87,52.25,9.42,1
3516,52.88,66.68,23.46,1
3517,52.89,37.12,16.85,1
3518,52.9,22.72,7.12,1
3519,52.92,19.06,11.17,1
3520,52.93,28.73,-0.9,1
3521,52.95,5.16,2.89,1
3522,52.96,-13.05,7.56,1
3523,52.97,-7.88,14.51,1
3524,52.99,2.21,13.98,1
3525,53.0,-10.9,14.27,1
3526,53.01,-48.0,11.3,1
3527,53.03,-9.54,22.85,1
3528,53.04,-24.64,29.69,1
3529,53.05,-37.32,18.1,1
3530,53.06,-38.16,-2.57,1
3531,53.08,-25.26,8.02,1
3532,53.09,-48.83,7.69,1
3533,53.11,-51.17,-8.83,1
3534,53.12,-51.08,7.21,1
3535,53.13,-40.89,12.17,1
3536,53.15,-46.86,0.25,1
3537,53.16,-54.98,-9.36,1
3538,53.17,-62.34,-5.47,1
3539,53.19,-30.45,1.79,1
3540,53.2,-50.36,-3.5,1
3541,53.21,-44.83,-4.29,1
3542,53.22,-54.27,-1.27,1
3543,53.24,-37.51,-18.21,1
3544,53.25,-49.0,-11.69,1
3545,53.27,-40.67,-4.31,1
3546,53.28,-28.41,-7.52,1
3547,53.29,-16.14,2.1,1
3548,53.31,-33.48,-19.54,1
3549,53.32,-23.71,13.14,1
3550,53.33,-2.06,5.17,1
3551,53.35,-22.75,8.62,1
3552,53.36,-46.89,-20.76,1
3553,53.37,-31.18,3.1,1
3554,53.38,-6.02,-0.63,1
3555,53.4,-6.29,-7.23,1
3556,53.41,-15.91,-6.47,1
3557,53.43,-16.51,2.12,1
3558,53.44,-2.08,-0.2,1
3559,53.45,-22.5,-12.49,1
3560,53.47,-12.85,-3.97,1
3561,53.48,-2.78,5.86,1
3562,53.49,25.29,-1.99,1
3563,53.51,11.56,-1.4,1
3564,53.52,11.91,-9.44,1
3565,53.53,3.87,2.65,1
3566,53.54,26.34,-2.36,1
3567,53.56,-9.54,-16.18,1
3568,53.57,14.11,11.37,1
3569,53.59,4.36,3.69,1
3570,53.6,25.91,4.79,1
3571,53.61,29.41,4.17,1
3572,53.63,9.62,-2.97,1
3573,53.64,22.62,-15.13,1
3574,53.65,33.54,-10.98,1
3575,53.67,26.35,-3.82,1
3576,53.68,12.72,8.5,1
3577,53.69,-2.73,5.82,1
3578,53.71,22.89,-7.11,1
3579,53.72,16.47,12.25,1
3580,53.73,29.99,6.03,1
3581,53.75,29.93,-7.64,1
3582,53.76,14.55,-0.62,1
3583,53.77,3.94,-4.18,1
3584,53.79,3.89,-4.2,1
3585,53.8,34.81,4.05,1
3586,53.81,20.99,0.3,1
3587,53.83,7.75,-11.32,1
3588,53.84,2.5,20.03,1
3589,53.85,15.58,-5.04,1
3590,53.87,-4.86,-4.11,1
3591,53.88,1.94,0.02,1
3592,53.89,-4.3,-12.69,1
3593,53.9,28.33,4.2,1
3594,53.92,12.72,-9.48,1
3595,53.93,-6.21,-11.1,1
3596,53.95,5.51,14.04,1
3597,53.96,12.16,9.3,1
3598,53.97,-4.5,-0.88,1
3599,53.99,-10.35,-5.66,1
3600,54.0,-15.29,-3.22,1
3601,54.01,3.96,-1.82,1
3602,54.03,-10.47,15.94,1
3603,54.04,-21.28,12.05,1
3604,54.05,-18.33,18.81,1
3605,54.06,-10.53,18.8,1
3606,54.08,-64.19,8.91,1
3607,54.09,12.97,18.33,1
3608,54.11,-1.48,-5.59,1
3609,54.12,9.22,9.87,1
3610,54.13,13.05,38.27,1
3611,54.15,0.83,93.92,1
3612,54.16,4.91,194.6,1
3613,54.17,13.43,257.12,1
3614,54.19,-25.56,309.07,1
3615,54.2,5.97,84.35,1
3616,54.21,194.32,-39.45,1
3617,54.22,-32.11,150.12,1
3618,54.24,-71.39,-104.39,1
3619,54.25,-223.34,50.62,1
3620,54.27,-123.7,-117.22,1
3621,54.28,37.42,-231.71,1
3622,54.29,380.77,103.75,1
3623,54.31,277.73,-53.71,1
3624,54.32,152.15,-19.7,1
3625,54.33,-157.01,-103.67,1
3626,54.35,4.78,-163.43,1
3627,54.36,116.55,-383.57,1
3628,54.37,-58.35,-639.5,1
3629,54.38,-94.89,-142.74,1
3630,54.4,62.47,19.18,1
3631,54.41,-211.42,-75.28,1
3632,54.43,-128.47,-375.94,1
3633,54.44,-178.26,-333.18,1
3634,54.45,-101.01,-74.82,1
3635,54.47,-38.17,-295.9,1
3636,54.48,-102.37,372.87,1
3637,54.49,-176.1,-147.86,1
3638,54.51,46.45,-136.62,1
3639,54.52,-159.45,-431.83,1
3640,54.53,-289.76,100.48,1
3641,54.54,40.26,-12.05,1
3642,54.56,175.0,308.94,1
3643,54.57,41.71,575.2,1
3644,54.59,-35.62,242.86,1
3645,54.6,-0.6,249.15,1
3646,54.61,-166.09,315.75,1
3647,54.63,349.56,-212.38,1
3648,54.64,-248.99,-241.47,1
3649,54.65,-31.92,238.54,1
3650,54.67,82.17,215.64,1
3651,54.68,324.41,56.79,1
3652,54.69,-116.71,2.26,1
3653,54.71,243.49,21.26,1
3654,54.72,-178.01,232.43,1
3655,54.73,99.13,-39.19,1
3656,54.75,58.48,-59.24,1
3657,54.76,341.12,277.26,1
3658,54.77,2.83,29.24,1
3659,54.79,189.17,-43.92,1
3660,54.8,288.9,8.88,1
3661,54.81,72.33,234.41,1
3662,54.83,-4.48,23.37,1
3663,54.84,91.99,145.87,1
3664,54.85,-336.97,-84.91,1
3665,54.87,-86.9,-91.56,1
3666,54.88,-77.09,-144.07,1
3667,54.89,-95.1,-103.93,1
3668,54.9,-119.88,-78.56,1
3669,54.92,-121.18,63.85,1
3670,54.93,-103.2,21.56,1
3671,54.95,-117.78,3.22,1
3672,54.96,22.16,123.39,1
3673,54.97,2.69,136.82,1
3674,54.99,61.87,142.6,1
3675,55.0,86.14,143.53,1
3676,55.01,89.74,166.83,1
3677,55.03,69.51,190.95,1
3678,55.04,97.1,177.88,1
3679,55.05,61.67,163.8,1
3680,55.06,59.01,124.61,1
3681,55.08,41.98,119.95,1
3682,55.09,93.94,134.29,1
3683,55.11,40.23,62.79,1
3684,55.12,41.03,56.21,1
3685,55.13,13.32,13.93,1
3686,55.15,28.38,-21.16,1
3687,55.16,4.94,-54.57,1
3688,55.17,-7.88,-103.23,1
3689,55.19,-19.42,-150.36,1
3690,55.2,-1.78,-184.76,1
3691,55.21,-22.56,-182.03,1
3692,55.22,-13.78,-175.4,1
3693,55.24,4.94,-163.89,1
3694,55.25,-29.88,-157.92,1
3695,55.27,-48.76,-144.55,1
3696,55.28,-56.93,-135.52,1
3697,55.29,-27.35,-166.41,1
3698,55.31,-42.99,-141.9,1
3699,55.32,-41.86,-148.09,1
3700,55.33,-48.67,-111.62,1
3701,55.35,-53.61,-126.4,1
3702,55.36,-55.68,-110.87,1
3703,55.37,-57.85,-99.28,1
3704,55.38,-70.35,-86.39,1
3705,55.4,-17.82,-70.9,1
3706,55.41,-42.77,-47.14,1
3707,55.43,-30.21,-48.18,1
3708,55.44,-48.5,-43.88,1
3709,55.45,-3.63,-55.77,1
3710,55.47,-25.85,-45.2,1
3711,55.48,-49.27,-48.74,1
3712,55.49,0.08,-6.58,1
3713,55.51,-4.45,-8.22,1
3714,55.52,0.61,-30.68,1
3715,55.53,-24.4,-19.29,1
3716,55.54,-23.87,9.68,1
3717,55.56,9.94,6.94,1
3718,55.57,15.34,14.88,1
3719,55.59,-3.71,23.05,1
3720,55.6,-2.05,22.61,1
3721,55.61,9.21,41.1,1
3722,55.63,15.82,42.52,1
3723,55.64,17.84,38.46,1
3724,55.65,23.11,52.08,1
3725,55.67,5.95,58.49,1
3726,55.68,9.52,79.28,1
3727,55.69,-9.96,63.57,1
3728,55.71,28.24,66.16,1
3729,55.72,6.29,56.97,1
3730,55.73,16.33,46.24,1
3731,55.75,8.7,48.05,1
3732,55.76,32.14,43.97,1
3733,55.77,17.36,65.64,1
3734,55.79,24.87,59.28,1
3735,55.8,1.07,50.08,1
3736,55.81,25.54,40.56,1
3737,55.83,10.55,47.76,1
3738,55.84,26.35,55.76,1
3739,55.85,23.87,27.15,1
3740,55.87,23.74,27.24,1
3741,55.88,6.54,25.51,1
3742,55.89,12.6,21.62,1
3743,55.9,18.33,30.05,1
3744,55.92,19.76,23.62,1
3745,55.93,4.33,24.54,1
3746,55.95,13.74,22.84,1
3747,55.96,9.94,15.56,1
3748,55.97,16.69,21.62,1
3749,55.99,8.57,12.54,1
3750,56.0,-3.15,26.2,1
3751,56.01,2.7,7.16,1
3752,56.03,11.3,-1.7,1
3753,56.04,4.73,6.54,1
3754,56.05,-0.08,6.37,1
3755,56.06,12.17,-3.38,1
3756,56.08,-57.76,2.77,1
3757,56.09,-8.48,-5.01,1
3758,56.11,-25.49,-5.53,1
3759,56.12,21.08,-10.19,1
3760,56.13,6.17,-6.42,1
3761,56.15,7.94,-13.95,1
3762,56.16,-1.78,-13.48,2
3763,56.17,23.42,-1.26,2
3764,56.19,9.86,4.17,2
3765,56.2,10.13,-22.36,2
3766,56.21,-20.57,0.25,2
3767,56.22,-7.35,-6.86,2
3768,56.24,106.9,-29.09,2
3769,56.25,143.52,-30.92,2
3770,56.27,214.04,-20.6,2
3771,56.28,250.96,-10.75,2
3772,56.29,184.19,-11.19,2
3773,56.31,102.14,-8.8,2
3774,56.32,30.25,-17.62,2
3775,56.33,-43.36,-18.24,2
3776,56.35,-115.69,-32.68,2
3777,56.36,-148.05,-18.5,2
3778,56.37,-166.0,-26.93,2
3779,56.38,-204.98,-16.58,2
3780,56.4,-213.32,-18.59,2
3781,56.41,-214.89,-35.16,2
3782,56.43,-196.19,-18.41,2
3783,56.44,-185.45,-9.75,2
3784,56.45,-185.21,-1.17,2
3785,56.47,-158.07,-0.99,2
3786,56.48,-101.52,-17.36,2
3787,56.49,-97.98,-18.62,2
3788,56.51,-81.82,-6.24,2
3789,56.52,-84.07,-7.41,2
3790,56.53,-34.99,16.48,2
3791,56.54,-33.48,14.75,2
3792,56.56,-12.26,20.14,1
3793,56.57,7.09,14.58,1
3794,56.59,45.27,-2.41,1
3795,56.6,36.01,4.14,1
3796,56.61,47.96,3.83,1
3797,56.63,47.46,-11.25,1
3798,56.64,92.0,6.94,1
3799,56.65,77.07,4.23,1
3800,56.67,78.04,-3.12,1
3801,56.68,74.5,11.65,1
3802,56.69,118.12,10.74,1
3803,56.71,96.73,9.75,1
3804,56.72,103.47,-4.01,1
3805,56.73,114.69,-5.48,1
3806,56.75,110.01,10.47,1
3807,56.76,59.76,11.4,1
3808,56.77,78.86,3.89,1
3809,56.79,90.36,3.19,1
3810,56.8,87.84,14.69,1
3811,56.81,66.94,11.43,1
3812,56.83,55.18,-1.98,1
3813,56.84,62.31,0.13,1
3814,56.85,47.35,2.9,1
3815,56.87,37.13,4.93,1
3816,56.88,30.47,2.82,1
3817,56.89,50.51,-4.32,1
3818,56.9,24.35,8.23,1
3819,56.92,26.9,4.73,1
3820,56.93,11.89,-0.67,1
3821,56.95,47.48,-5.81,1
3822,56.96,17.25,8.72,1
3823,56.97,3.68,-10.16,1
3824,56.99,-40.45,-3.8,1
3825,57.0,-9.99,13.89,1
3826,57.01,-18.16,0.08,1
3827,57.03,-7.85,11.01,1
3828,57.04,-48.15,5.33,1
3829,57.05,-19.8,0.85,1
3830,57.06,-29.32,1.16,1
3831,57.08,-37.16,-8.41,1
3832,57.09,-29.58,-14.02,1
3833,57.11,-39.72,-10.06,1
3834,57.12,-43.39,-10.68,1
3835,57.13,-54.19,2.63,1
3836,57.15,-23.1,-0.13,1
3837,57.16,-37.19,-6.0,1
3838,57.17,-22.82,-2.34,1
3839,57.19,-47.81,-3.64,1
3840,57.2,-31.59,17.37,1
3841,57.21,-25.0,9.68,1
3842,57.22,-28.09,13.27,1
3843,57.24,-28.68,-0.73,1
3844,57.25,-24.15,9.84,1
3845,57.27,-54.91,7.91,1
3846,57.28,-52.96,-2.07,1
3847,57.29,-40.46,-12.5,1
3848,57.31,-10.53,-8.21,1
3849,57.32,-21.96,6.34,1
3850,57.33,-30.61,21.23,1
3851,57.35,-27.29,12.59,1
3852,57.36,15.52,0.99,1
3853,57.37,-19.43,-4.14,1
3854,57.38,-23.72,0.61,1
3855,57.4,-24.22,-5.74,1
3856,57.41,-2.03,-5.47,1
3857,57.43,-13.01,1.08,1
3858,57.44,1.34,-8.67,1
3859,57.45,11.32,-11.77,1
3860,57.47,12.45,-7.89,1
3861,57.48,6.24,-1.66,1
3862,57.49,23.14,-1.83,1
3863,57.51,-6.63,-15.21,1
3864,57.52,-6.72,-9.12,1
3865,57.53,10.71,-6.72,1
3866,57.54,0.58,-10.86,1
3867,57.56,28.36,-11.86,1
3868,57.57,14.82,-16.9,1
3869,57.59,3.41,-17.39,1
3870,57.6,2.81,0.46,1
3871,57.61,30.47,-2.26,1
3872,57.63,12.96,11.33,1
3873,57.64,-2.08,-2.08,1
3874,57.65,11.2,18.77,1
3875,57.67,12.76,8.57,1
3876,57.68,8.8,9.32,1
3877,57.69,-8.29,-3.21,1
3878,57.71,-16.17,3.0,1
3879,57.72,22.23,-1.33,1
3880,57.73,2.02,-5.73,1
3881,57.75,17.36,-1.1,1
3882,57.76,7.39,4.41,1
3883,57.77,40.64,4.81,1
3884,57.79,18.46,7.26,1
3885,57.8,22.07,-4.62,1
3886,57.81,10.57,5.16,1
3887,57.83,17.67,8.69,1
3888,57.84,-8.37,0.1,1
3889,57.85,-14.28,3.01,1
3890,57.87,12.05,-1.43,1
3891,57.88,19.08,-3.67,1
3892,57.89,1.04,-5.7,1
3893,57.9,4.13,5.46,1
3894,57.92,22.04,8.04,1
3895,57.93,15.31,2.39,1
3896,57.95,6.41,4.05,1
3897,57.96,0.43,-8.87,1
3898,57.97,10.97,6.89,1
3899,57.99,-2.71,12.23,1
3900,58.0,-16.49,8.17,1
3901,58.01,-12.59,6.58,1
3902,58.025000000000006,-0.6,2.65,1
3903,58.04,6.16,-4.67,1
3904,58.05,-21.25,15.93,1
3905,58.06,-16.92,6.49,1
3906,58.08,-12.34,-8.63,1
3907,58.09,-34.27,-4.42,1
3908,58.11,-28.55,6.63,1
3909,58.12,-6.11,-6.57,1
3910,58.13,-4.28,1.2,1
3911,58.15,3.05,-5.92,1
3912,58.16,21.18,-15.11,0
3913,58.17,-8.21,-4.87,0
3914,58.19,25.68,2.89,0
3915,58.2,7.67,21.47,0
3916,58.21,-12.73,-3.67,0
3917,58.22,30.06,2.82,0
3918,58.24,-11.83,-37.84,0
3919,58.25,-23.1,-19.93,0
3920,58.27,-91.77,-27.45,0
3921,58.28,-100.19,-18.77,0
3922,58.29,-159.39,-30.98,0
3923,58.31,-169.62,-24.1,0
3924,58.32,-198.29,-34.53,0
3925,58.33,-148.97,-4.36,0
3926,58.35,-131.0,2.72,0
3927,58.36,-75.78,6.91,0
3928,58.37,-34.58,21.85,0
3929,58.38,43.59,20.49,0
3930,58.4,134.75,27.34,0
3931,58.41,201.53,25.82,0
3932,58.43,274.29,29.88,0
3933,58.44,304.93,35.49,0
3934,58.45,300.52,36.36,0
3935,58.47,266.48,34.21,0
3936,58.48,220.08,35.7,0
3937,58.49,199.38,29.15,0
3938,58.51,155.34,-1.56,0
3939,58.52,124.49,-0.9,0
3940,58.53,61.21,7.24,0
3941,58.54,56.36,6.36,0
3942,58.56,18.45,-1.45,1
3943,58.57,-4.28,-14.63,1
3944,58.59,-10.5,-2.32,1
3945,58.6,-24.81,-10.74,1
3946,58.61,-48.53,-24.58,1
3947,58.63,-68.61,-12.8,1
3948,58.64,-84.63,-10.61,1
3949,58.65,-112.22,-7.56,1
3950,58.66,-93.02,-6.83,1
3951,58.68,-105.96,-12.18,1
3952,58.69,-81.62,7.6,1
3953,58.71,-106.96,9.88,1
3954,58.72,-120.21,6.32,1
3955,58.73,-110.44,-8.69,1
3956,58.75,-106.12,-24.68,1
3957,58.76,-85.93,14.49,1
3958,58.77,-99.79,-19.51,1
3959,58.79,-93.93,-23.26,1
3960,58.8,-53.68,-20.94,1
3961,58.81,-71.5,-31.35,1
3962,58.83,-60.4,-14.79,1
3963,58.84,-74.51,-20.39,1
3964,58.85,-38.35,-6.98,1
3965,58.87,-63.66,-15.09,1
3966,58.88,-38.65,-11.4,1
3967,58.89,-54.94,1.82,1
3968,58.9,-17.14,-5.44,1
3969,58.92,-37.58,9.01,1
3970,58.93,-7.66,0.86,1
3971,58.95,-14.73,6.03,1
3972,58.96,3.81,13.71,1
3973,58.97,5.26,1.83,1
3974,58.99,-5.42,6.07,1
3975,59.0,13.96,-0.44,1
3976,59.01,21.83,9.92,1
3977,59.03,17.37,13.24,1
3978,59.04,6.36,3.66,1
3979,59.05,29.71,8.73,1
3980,59.06,13.37,0.15,1
3981,59.08,29.63,15.5,1
3982,59.09,26.21,6.25,1
3983,59.11,51.43,-3.51,1
3984,59.12,51.38,-7.22,1
3985,59.13,29.82,-7.96,1
3986,59.15,21.7,6.56,1
3987,59.16,46.9,-2.8,1
3988,59.17,33.91,-4.4,1
3989,59.19,27.16,-1.78,1
3990,59.2,40.9,-0.36,1
3991,59.21,46.99,5.31,1
3992,59.22,32.67,0.19,1
3993,59.24,12.49,6.62,1
3994,59.25,14.31,7.27,1
3995,59.27,38.5,4.91,1
3996,59.28,29.52,-2.27,1
3997,59.29,25.06,11.78,1
3998,59.3,16.22,5.84,1
3999,59.32,35.83,3.7,1
4000,59.33,37.63,-5.18,1
4001,59.35,8.9,13.04,1
4002,59.36,34.36,7.13,1
4003,59.37,20.04,6.8,1
4004,59.38,18.48,11.01,1
4005,59.4,5.19,-3.45,1
4006,59.41,23.92,2.61,1
4007,59.43,6.21,-0.29,1
4008,59.44,5.42,7.65,1
4009,59.45,1.64,-1.16,1
4010,59.47,10.61,-2.38,1
4011,59.48,-5.0,4.78,1
4012,59.49,-4.41,0.23,1
4013,59.51,-4.11,7.16,1
4014,59.52,9.5,-6.95,1
4015,59.53,-2.19,-0.91,1
4016,59.54,-20.65,-1.72,1
4017,59.56,-30.78,1.46,1
4018,59.57,-6.74,-4.96,1
4019,59.59,-22.18,4.94,1
4020,59.6,-16.11,6.08,1
4021,59.61,-10.55,-4.66,1
4022,59.63,3.31,13.86,1
4023,59.64,-16.91,8.21,1
4024,59.65,-7.81,0.32,1
4025,59.67,-13.71,-20.71,1
4026,59.68,3.87,-12.28,1
4027,59.69,-19.27,-9.79,1
4028,59.71,-13.05,3.0,1
4029,59.72,15.84,8.86,1
4030,59.73,9.57,-8.0,1
4031,59.75,-14.14,-7.85,1
4032,59.76,-16.41,-4.95,1
4033,59.77,10.53,-5.21,1
4034,59.79,-9.61,1.66,1
4035,59.8,-11.32,9.4,1
4036,59.81,-26.34,-14.09,1
4037,59.83,10.12,-8.25,1
4038,59.84,-13.83,-13.63,1
4039,59.85,-18.73,-13.9,1
4040,59.87,-13.08,-10.73,1
4041,59.88,-7.39,9.16,1
4042,59.89,-16.69,8.84,1
4043,59.9,-24.44,0.08,1
4044,59.92,-6.84,-15.81,1
4045,59.93,13.06,3.63,1
4046,59.94,-6.27,7.11,1
4047,59.96,-21.6,-0.68,1
4048,59.97,-17.9,17.25,1
4049,59.985,7.88,15.42,1
4050,60.0,8.85,5.15,1
4051,60.01,18.77,-15.19,1
4052,60.03,4.63,-8.41,1
4053,60.04,24.5,-11.42,1
4054,60.05,-8.39,1.25,1
4055,60.06,-3.55,-3.81,1
4056,60.08,-35.97,-18.4,1
4057,60.09,-22.98,-9.73,1
4058,60.11,-16.23,-8.96,1
4059,60.12,-12.05,4.0,1
4060,60.13,23.72,18.21,1
4061,60.15,35.83,22.91,1
4062,60.16,2.87,2.25,0
4063,60.17,20.24,-3.04,0
4064,60.19,47.78,-5.39,0
4065,60.2,-9.17,-12.81,0
4066,60.21,7.57,5.52,0
4067,60.22,19.04,1.87,0
4068,60.24,1.52,-1.26,0
4069,60.25,8.84,7.0,0
4070,60.27,15.68,6.41,0
4071,60.28,44.72,17.23,0
4072,60.29,32.24,5.33,0
4073,60.31,-1.53,5.01,0
4074,60.32,-16.85,1.21,0
4075,60.33,-17.17,-1.14,0
4076,60.35,2.24,14.02,0
4077,60.36,-20.14,30.57,0
4078,60.37,-27.47,26.2,0
4079,60.38,-105.16,-6.3,0
4080,60.4,-173.31,-22.49,0
4081,60.41,-204.38,-6.89,0
4082,60.43,-228.17,-6.37,0
4083,60.44,-184.26,-12.24,0
4084,60.45,-109.75,-15.48,0
4085,60.47,-82.23,-19.09,0
4086,60.48,-12.42,-6.86,0
4087,60.49,51.11,-1.5,0
4088,60.51,108.7,-1.22,0
4089,60.52,140.35,-12.0,0
4090,60.53,167.33,-18.24,0
4091,60.54,193.6,-9.36,0
4092,60.56,198.64,-15.96,1
4093,60.57,201.39,-7.38,1
4094,60.58,189.92,-3.43,1
4095,60.6,189.63,6.03,1
4096,60.61,178.79,21.35,1
4097,60.62,145.42,15.12,1
4098,60.64,127.63,25.57,1
4099,60.65,125.52,3.61,1
4100,60.67,73.6,12.44,1
4101,60.68,64.46,2.56,1
4102,60.69,16.88,3.14,1
4103,60.71,41.9,18.78,1
4104,60.72,6.96,3.18,1
4105,60.73,-19.69,6.21,1
4106,60.75,-26.09,24.12,1
4107,60.76,-33.39,1.68,1
4108,60.77,-50.0,16.62,1
4109,60.79,-82.42,13.72,1
4110,60.8,-110.0,-7.46,1
4111,60.81,-94.55,9.18,1
4112,60.83,-93.43,-12.99,1
4113,60.84,-111.29,-10.94,1
4114,60.85,-76.81,4.82,1
4115,60.87,-82.73,-2.32,1
4116,60.88,-102.45,-5.83,1
4117,60.89,-103.93,-15.42,1
4118,60.9,-78.34,-15.32,1
4119,60.92,-76.72,3.95,1
4120,60.93,-93.93,7.81,1
4121,60.95,-74.23,9.85,1
4122,60.96,-70.07,3.29,1
4123,60.97,-77.25,-9.19,1
4124,60.99,-77.21,-4.37,1
4125,61.0,-71.8,-4.5,1
4126,61.01,-47.89,-25.86,1
4127,61.03,-39.01,-11.37,1
4128,61.04,-46.78,0.93,1
4129,61.05,-31.2,-14.8,1
4130,61.06,-7.99,-16.84,1
4131,61.08,-21.44,-6.87,1
4132,61.09,-20.19,-9.61,1
4133,61.11,-20.26,5.04,1
4134,61.12,15.3,-11.73,1
4135,61.13,-0.78,-2.23,1
4136,61.15,17.65,0.68,1
4137,61.16,4.32,-8.73,1
4138,61.17,28.15,1.85,1
4139,61.19,18.04,15.17,1
4140,61.2,22.12,-19.54,1
4141,61.21,4.89,-5.61,1
4142,61.22,60.75,-2.47,1
4143,61.24,23.45,3.78,1
4144,61.25,50.88,6.49,1
4145,61.26,52.69,11.45,1
4146,61.28,49.63,-9.68,1
4147,61.29,33.77,1.11,1
4148,61.31,33.62,11.05,1
4149,61.32,43.92,5.33,1
4150,61.33,41.27,-9.91,1
4151,61.35,29.61,12.22,1
4152,61.36,34.36,8.76,1
4153,61.37,40.63,21.23,1
4154,61.38,25.91,-0.25,1
4155,61.4,22.95,9.56,1
4156,61.41,5.71,8.69,1
4157,61.43,24.01,7.18,1
4158,61.44,24.2,5.57,1
4159,61.45,25.91,4.78,1
4160,61.47,12.9,5.23,1
4161,61.48,43.07,7.68,1
4162,61.49,30.39,6.31,1
4163,61.51,9.79,-16.34,1
4164,61.52,3.54,-6.55,1
4165,61.53,38.84,-15.07,1
4166,61.54,11.87,-13.77,1
4167,61.56,5.47,0.26,1
4168,61.57,17.31,10.62,1
4169,61.59,25.44,-4.92,1
4170,61.6,9.43,14.49,1
4171,61.61,-2.53,-3.63,1
4172,61.63,16.02,14.37,1
4173,61.64,-4.84,6.97,1
4174,61.65,-1.24,-6.07,1
4175,61.67,-24.77,-5.29,1
4176,61.68,-8.23,-6.93,1
4177,61.69,-18.46,-0.9,1
4178,61.71,-21.38,1.9,1
4179,61.72,-7.85,1.32,1
4180,61.73,15.57,-9.19,1
4181,61.75,1.59,-5.35,1
4182,61.76,-20.97,-2.44,1
4183,61.77,-17.19,0.64,1
4184,61.79,-3.59,-5.06,1
4185,61.8,-22.22,-6.61,1
4186,61.81,-22.4,1.33,1
4187,61.83,-24.38,5.62,1
4188,61.84,1.15,-3.72,1
4189,61.85,-16.82,1.51,1
4190,61.86,-20.18,-11.35,1
4191,61.88,-17.2,17.44,1
4192,61.89,-6.19,-0.54,1
4193,61.9,-11.65,-3.66,1
4194,61.92,-8.55,7.91,1
4195,61.93,-7.94,-11.94,1
4196,61.95,-0.27,-9.64,1
4197,61.96,-23.21,2.79,1
4198,61.97,-15.76,-1.85,1
4199,61.99,-9.53,23.04,1
4200,62.0,-4.61,0.77,1
4201,62.01,-1.81,7.29,1
4202,62.03,-11.6,-7.83,1
4203,62.04,21.03,-3.8,1
4204,62.05,12.39,-1.92,1
4205,62.06,-9.75,10.37,1
4206,62.08,-44.18,-5.77,1
4207,62.09,-59.08,10.56,1
4208,62.11,10.3,-3.8,1
4209,62.12,-42.02,6.37,1
4210,62.13,12.14,17.02,1
4211,62.15,39.51,-5.47,1
4212,62.16,-5.05,7.68,2
4213,62.17,31.87,-0.62,2
4214,62.19,2.63,-5.06,2
4215,62.2,0.13,-7.05,2
4216,62.21,56.31,-10.0,2
4217,62.22,-19.99,7.74,2
4218,62.24,73.78,-7.26,2
4219,62.25,159.6,-20.11,2
4220,62.27,166.92,0.5,2
4221,62.28,201.56,6.69,2
4222,62.29,254.6,15.49,2
4223,62.31,190.66,-6.6,2
4224,62.32,147.51,-18.97,2
4225,62.33,91.3,-5.49,2
4226,62.35,42.65,-8.44,2
4227,62.36,-31.84,14.83,2
4228,62.37,-128.18,-5.97,2
4229,62.38,-228.37,3.04,2
4230,62.4,-263.3,7.15,2
4231,62.41,-299.7,2.7,2
4232,62.43,-296.86,13.92,2
4233,62.44,-283.5,-3.88,2
4234,62.45,-250.86,-20.49,2
4235,62.47,-232.95,-13.13,2
4236,62.48,-196.03,-11.12,2
4237,62.49,-167.04,-8.13,2
4238,62.5,-108.67,4.53,2
4239,62.52,-90.06,16.89,2
4240,62.53,-65.43,-4.12,2
4241,62.54,-31.82,31.51,2
4242,62.56,13.25,15.27,1
4243,62.57,34.63,6.08,1
4244,62.58,45.03,-19.16,1
4245,62.6,77.61,-19.61,1
4246,62.61,87.77,-19.28,1
4247,62.63,87.36,-1.67,1
4248,62.64,87.77,-0.88,1
4249,62.65,95.5,6.13,1
4250,62.67,105.98,3.04,1
4251,62.68,103.27,-8.74,1
4252,62.69,94.08,14.43,1
4253,62.71,113.55,3.58,1
4254,62.72,108.55,2.22,1
4255,62.73,112.05,-0.57,1
4256,62.75,102.96,-8.23,1
4257,62.76,96.0,-4.32,1
4258,62.77,94.48,7.44,1
4259,62.79,79.55,6.76,1
4260,62.8,56.02,-4.85,1
4261,62.81,89.86,3.68,1
4262,62.83,69.9,8.47,1
4263,62.84,48.73,8.92,1
4264,62.85,47.11,7.24,1
4265,62.87,70.68,-6.61,1
4266,62.88,27.34,5.94,1
4267,62.89,20.56,7.28,1
4268,62.9,31.09,2.48,1
4269,62.92,25.27,3.24,1
4270,62.93,21.73,14.23,1
4271,62.95,13.87,2.9,1
4272,62.96,1.01,2.3,1
4273,62.97,9.97,-11.29,1
4274,62.99,-2.08,-6.29,1
4275,63.0,-13.33,-10.73,1
4276,63.01,-19.01,-2.52,1
4277,63.03,6.27,0.92,1
4278,63.04,-16.35,-6.48,1
4279,63.05,-28.71,-7.53,1
4280,63.06,-29.62,-7.18,1
4281,63.08,-35.76,17.86,1
4282,63.09,-36.95,-6.42,1
4283,63.11,-26.15,15.69,1
4284,63.12,-25.93,4.54,1
4285,63.13,-35.71,-5.57,1
4286,63.14,-41.96,3.88,1
4287,63.16,-56.9,7.44,1
4288,63.17,-22.38,-4.03,1
4289,63.18,-46.73,2.09,1
4290,63.2,-42.88,-5.11,1
4291,63.21,-53.47,-15.65,1
4292,63.22,-17.89,7.26,1
4293,63.24,-40.54,1.48,1
4294,63.25,-38.85,-1.05,1
4295,63.27,-33.88,-4.07,1
4296,63.28,-26.93,5.5,1
4297,63.29,-37.96,1.25,1
4298,63.31,-23.92,-6.63,1
4299,63.32,-29.74,-9.07,1
4300,63.33,-8.93,-2.89,1
4301,63.35,-31.55,9.66,1
4302,63.36,-22.22,0.73,1
4303,63.37,-33.91,6.73,1
4304,63.38,-10.8,1.74,1
4305,63.4,-14.97,-5.15,1
4306,63.41,-9.42,-9.37,1
4307,63.43,-11.28,-6.3,1
4308,63.44,10.83,-5.27,1
4309,63.45,-9.4,1.24,1
4310,63.47,-11.9,12.09,1
4311,63.48,-13.42,12.69,1
4312,63.49,13.94,9.66,1
4313,63.51,-1.42,4.21,1
4314,63.52,-6.11,-3.22,1
4315,63.53,18.53,-9.11,1
4316,63.54,7.8,-1.66,1
4317,63.56,3.04,3.5,1
4318,63.57,12.17,0.08,1
4319,63.59,21.46,7.43,1
4320,63.6,12.36,-10.93,1
4321,63.61,-8.04,-11.27,1
4322,63.63,0.99,-17.59,1
4323,63.64,18.05,-3.77,1
4324,63.65,12.88,-6.83,1
4325,63.67,7.41,-8.68,1
4326,63.68,14.84,1.17,1
4327,63.69,27.32,5.14,1
4328,63.71,5.53,-1.68,1
4329,63.72,1.22,-9.01,1
4330,63.73,10.96,0.19,1
4331,63.75,25.91,-13.58,1
4332,63.76,-7.89,-0.19,1
4333,63.77,11.7,-12.55,1
4334,63.78,-3.57,9.02,1
4335,63.8,28.5,-3.27,1
4336,63.81,6.94,0.58,1
4337,63.82,17.24,-0.41,1
4338,63.84,-1.88,9.05,1
4339,63.85,24.18,6.01,1
4340,63.86,-3.75,1.19,1
4341,63.88,13.22,-3.34,1
4342,63.89,30.29,11.51,1
4343,63.9,10.24,9.09,1
4344,63.92,2.17,1.94,1
4345,63.93,5.58,-2.05,1
4346,63.95,31.89,-2.59,1
4347,63.96,-7.17,10.45,1
4348,63.97,-5.06,5.08,1
4349,63.99,-3.97,-1.29,1
4350,64.0,16.1,4.6,1
4351,64.01,-1.08,1.0,1
4352,64.02,-8.64,5.12,1
4353,64.04,-7.49,5.28,1
4354,64.05,6.81,9.55,1
4355,64.06,1.91,7.63,1
4356,64.08,-5.31,-0.33,1
4357,64.09,-33.63,-2.94,1
4358,64.11,-22.08,-4.55,1
4359,64.12,-38.2,3.64,1
4360,64.13,35.63,11.86,1
4361,64.14,-22.34,36.62,1
4362,64.16,10.69,80.22,1
4363,64.17,26.84,181.79,1
4364,64.18,-15.83,112.42,1
4365,64.2,23.96,128.6,1
4366,64.21,23.99,232.57,1
4367,64.22,-42.75,238.25,1
4368,64.24,-4.77,102.76,1
4369,64.25,-10.79,15.39,1
4370,64.26,1.26,104.41,1
4371,64.28,-75.09,-21.74,1
4372,64.29,223.92,-88.72,1
4373,64.3,124.37,-56.14,1
4374,64.32,-70.62,-61.28,1
4375,64.33,143.49,-89.84,1
4376,64.34,-118.82,-109.27,1
4377,64.36,22.31,-164.96,1
4378,64.37,-8.16,-217.45,1
4379,64.38,-27.66,-143.18,1
4380,64.4,47.44,-242.35,1
4381,64.41,-106.06,-244.02,1
4382,64.42,84.68,-213.48,1
4383,64.44,-253.93,-102.44,1
4384,64.45,-2.82,-296.49,1
4385,64.46,-8.37,-387.55,1
4386,64.48,-60.58,-107.7,1
4387,64.49,319.8,-120.76,1
4388,64.5,129.13,42.73,1
4389,64.52,-125.42,58.72,1
4390,64.53,-303.83,-65.35,1
4391,64.54,-35.62,-19.96,1
4392,64.56,-45.49,-227.66,1
4393,64.57,298.24,30.93,1
4394,64.58,138.28,-345.97,1
4395,64.6,-13.8,157.86,1
4396,64.61,-156.71,305.07,1
4397,64.62,-279.56,6.56,1
4398,64.64,-190.27,-242.85,1
4399,64.65,-66.01,-6.58,1
4400,64.66,177.79,109.14,1
4401,64.68,28.16,147.76,1
4402,64.69,61.54,219.82,1
4403,64.7,-213.25,95.0,1
4404,64.72,-46.84,243.97,1
4405,64.73,64.54,357.38,1
4406,64.75,54.56,40.85,1
4407,64.76,-12.89,-187.45,1
4408,64.77,-60.97,-36.82,1
4409,64.79,228.79,200.37,1
4410,64.8,-18.96,-18.14,1
4411,64.81,-88.09,206.24,1
4412,64.82,-86.98,130.32,1
4413,64.84,-48.53,23.37,1
4414,64.85,36.16,-15.3,1
4415,64.86,-62.22,-72.48,1
4416,64.88,97.49,-0.91,1
4417,64.89,-29.22,53.41,1
4418,64.9,28.04,124.98,1
4419,64.92,-201.23,146.3,1
4420,64.93,-1.53,160.8,1
4421,64.94,-95.76,136.67,1
4422,64.96,-67.11,116.59,1
4423,64.97,-77.45,102.92,1
4424,64.98,-64.96,97.7,1
4425,65.0,-65.92,95.04,1
4426,65.01,-35.25,83.37,1
4427,65.02,-0.87,80.51,1
4428,65.04,72.03,88.19,1
4429,65.05,80.87,93.74,1
4430,65.06,124.37,138.52,1
4431,65.08,167.73,153.89,1
4432,65.09,177.5,176.57,1
4433,65.1,183.23,140.66,1
4434,65.12,185.11,148.57,1
4435,65.13,178.01,125.79,1
4436,65.14,149.15,107.06,1
4437,65.16,135.44,77.24,1
4438,65.17,124.69,50.77,1
4439,65.18,106.14,8.11,1
4440,65.2,92.54,-21.03,1
4441,65.21,75.25,-56.03,1
4442,65.22,52.81,-93.89,1
4443,65.24,56.85,-131.98,1
4444,65.25,21.6,-159.49,1
4445,65.26,10.71,-143.11,1
4446,65.28,-9.84,-155.36,1
4447,65.29,-14.54,-157.06,1
4448,65.3,-34.75,-191.65,1
4449,65.32,-54.07,-147.92,1
4450,65.33,-40.72,-150.52,1
4451,65.34,-34.32,-168.05,1
4452,65.36,-43.9,-164.45,1
4453,65.37,-67.39,-145.26,1
4454,65.38,-56.37,-164.12,1
4455,65.4,-80.46,-152.91,1
4456,65.41,-74.15,-153.16,1
4457,65.43,-64.96,-130.22,1
4458,65.44,-55.1,-146.19,1
4459,65.45,-56.18,-127.3,1
4460,65.46,-66.03,-119.26,1
4461,65.48,-88.61,-99.45,1
4462,65.49,-58.84,-99.3,1
4463,65.5,-75.07,-90.07,1
4464,65.52,-74.61,-83.32,1
4465,65.53,-71.51,-68.07,1
4466,65.54,-51.26,-68.02,1
4467,65.56,-57.2,-60.29,1
4468,65.57,-56.14,-33.8,1
4469,65.58,-47.74,-50.91,1
4470,65.6,-48.54,-12.57,1
4471,65.61,-48.84,-8.8,1
4472,65.62,-42.05,-10.44,1
4473,65.64,-34.77,8.58,1
4474,65.65,-8.84,24.36,1
4475,65.66,-26.87,20.55,1
4476,65.68,-22.92,32.98,1
4477,65.69,-12.79,50.59,1
4478,65.7,-2.21,44.92,1
4479,65.72,-7.11,48.35,1
4480,65.73,-10.51,72.75,1
4481,65.74,13.5,40.99,1
4482,65.76,14.01,52.42,1
4483,65.77,11.37,70.13,1
4484,65.78,5.98,69.0,1
4485,65.8,32.38,69.25,1
4486,65.81,14.21,59.39,1
4487,65.82,8.66,79.52,1
4488,65.84,11.19,79.19,1
4489,65.85,26.74,60.2,1
4490,65.86,16.25,71.24,1
4491,65.88,30.46,74.94,1
4492,65.89,13.98,80.06,1
4493,65.9,48.29,68.91,1
4494,65.92,19.82,62.23,1
4495,65.93,24.92,67.8,1
4496,65.94,11.58,62.75,1
4497,65.96,42.1,53.12,1
4498,65.97,37.39,45.12,1
4499,65.98,20.99,42.23,1
4500,66.0,16.95,42.0,1
4501,66.01,26.9,31.82,1
4502,66.02,12.94,41.72,1
4503,66.04,20.99,39.72,1
4504,66.05,14.54,28.98,1
4505,66.06,29.34,0.74,1
4506,66.08,19.52,14.83,1
4507,66.09,-27.57,19.67,1
4508,66.11,-14.17,19.1,1
4509,66.12,2.57,-4.34,1
4510,66.13,14.04,11.04,1
4511,66.14,16.74,3.75,1
4512,66.16,47.08,-3.5,2
4513,66.17,32.23,-20.75,2
4514,66.18,-12.96,8.4,2
4515,66.2,40.96,-11.7,2
4516,66.21,4.73,-7.29,2
4517,66.22,-1.78,-8.49,2
4518,66.24,24.11,-35.0,2
4519,66.25,74.75,-23.35,2
4520,66.26,162.65,-28.73,2
4521,66.28,250.57,-28.5,2
4522,66.29,251.78,-20.43,2
4523,66.3,148.9,-19.3,2
4524,66.32,114.51,-25.83,2
4525,66.33,13.69,-12.38,2
4526,66.34,-63.64,-3.06,2
4527,66.36,-121.43,5.33,2
4528,66.37,-113.53,-2.97,2
4529,66.38,-164.78,18.02,2
4530,66.4,-161.41,11.32,2
4531,66.41,-200.75,3.36,2
4532,66.42,-187.18,-14.73,2
4533,66.44,-179.68,-25.28,2
4534,66.45,-161.65,-9.92,2
4535,66.46,-147.33,-14.41,2
4536,66.48,-133.29,-40.59,2
4537,66.49,-126.21,-43.27,2
4538,66.5,-127.12,-32.18,2
4539,66.52,-96.01,-22.4,2
4540,66.53,-87.21,-43.07,2
4541,66.54,-64.36,-23.18,2
4542,66.56,-39.04,-37.06,1
4543,66.57,0.09,-16.91,1
4544,66.58,-3.09,-20.2,1
4545,66.6,5.15,-7.28,1
4546,66.61,8.65,7.39,1
4547,66.62,45.08,-2.05,1
4548,66.64,34.08,-11.93,1
4549,66.65,50.37,-2.75,1
4550,66.66,61.41,-4.48,1
4551,66.68,92.85,-7.96,1
4552,66.69,77.55,11.24,1
4553,66.7,67.36,-1.62,1
4554,66.72,81.0,-0.84,1
4555,66.73,96.41,-20.21,1
4556,66.75,85.76,4.69,1
4557,66.76,95.73,2.45,1
4558,66.77,74.64,2.11,1
4559,66.79,101.92,-3.0,1
4560,66.8,82.24,4.2,1
4561,66.81,58.81,12.21,1
4562,66.82,52.75,-1.41,1
4563,66.84,75.8,-4.67,1
4564,66.85,57.15,11.48,1
4565,66.86,41.73,6.56,1
4566,66.88,41.04,23.64,1
4567,66.89,46.33,17.6,1
4568,66.9,25.83,11.4,1
4569,66.92,21.42,7.46,1
4570,66.93,34.49,-15.32,1
4571,66.94,6.79,6.13,1
4572,66.96,16.36,14.26,1
4573,66.97,-4.39,9.96,1
4574,66.98,15.81,8.96,1
4575,67.0,-11.12,1.19,1
4576,67.01,3.9,12.18,1
4577,67.02,-14.93,13.69,1
4578,67.04,7.71,5.01,1
4579,67.05,-9.29,18.01,1
4580,67.06,-30.43,18.57,1
4581,67.08,-20.55,-1.05,1
4582,67.09,-9.5,20.01,1
4583,67.1,-23.87,18.79,1
4584,67.12,-46.78,11.01,1
4585,67.13,-30.63,-8.0,1
4586,67.14,-15.44,-10.67,1
4587,67.16,-24.54,18.9,1
4588,67.17,-25.46,-4.44,1
4589,67.18,-39.83,-23.91,1
4590,67.2,-12.07,0.75,1
4591,67.21,-32.08,2.19,1
4592,67.22,-32.32,-10.98,1
4593,67.24,-29.83,-15.27,1
4594,67.25,-32.94,3.27,1
4595,67.26,-36.79,1.82,1
4596,67.28,-47.81,-2.54,1
4597,67.29,-31.57,-12.78,1
4598,67.3,-34.1,-5.48,1
4599,67.32,-33.45,-1.23,1
4600,67.33,-28.74,4.21,1
4601,67.34,-0.35,11.11,1
4602,67.36,-18.82,-3.73,1
4603,67.37,-34.14,11.94,1
4604,67.38,-27.33,-7.31,1
4605,67.4,-5.51,-8.47,1
4606,67.41,-28.31,-2.6,1
4607,67.43,-14.95,-1.57,1
4608,67.44,-15.51,-10.54,1
4609,67.45,-4.5,1.35,1
4610,67.46,0.32,-4.66,1
4611,67.48,-11.02,-1.78,1
4612,67.49,1.97,1.61,1
4613,67.5,16.03,-2.36,1
4614,67.52,3.79,9.93,1
4615,67.53,-7.55,-1.44,1
4616,67.54,5.3,-8.08,1
4617,67.56,16.25,-12.78,1
4618,67.57,20.31,13.96,1
4619,67.58,-7.78,-0.5,1
4620,67.6,30.82,-15.28,1
4621,67.61,11.27,-0.69,1
4622,67.62,8.89,11.97,1
4623,67.64,-7.76,-22.82,1
4624,67.65,25.5,-20.43,1
4625,67.66,7.44,-0.36,1
4626,67.68,4.79,-2.38,1
4627,67.69,15.55,-14.59,1
4628,67.7,14.09,22.88,1
4629,67.72,14.29,17.93,1
4630,67.73,3.23,8.48,1
4631,67.74,5.32,4.58,1
4632,67.76,22.36,-1.71,1
4633,67.77,5.6,4.11,1
4634,67.79,3.49,-1.13,1
4635,67.8,12.56,3.4,1
4636,67.81,18.89,2.1,1
4637,67.82,6.29,2.55,1
4638,67.84,10.85,-23.11,1
4639,67.85,8.01,-8.27,1
4640,67.86,26.45,13.05,1
4641,67.88,9.52,-3.98,1
4642,67.89,-8.75,3.85,1
4643,67.9,0.87,7.24,1
4644,67.92,13.65,14.57,1
4645,67.93,7.51,-4.97,1
4646,67.94,-0.12,-22.59,1
4647,67.96,-14.55,-1.05,1
4648,67.97,23.34,1.1,1
4649,67.98,1.84,6.49,1
4650,68.0,-2.47,-1.48,1
4651,68.01,24.24,14.72,1
4652,68.02,-18.04,4.08,1
4653,68.04,-5.28,6.94,1
4654,68.05,-26.07,7.9,1
4655,68.06,10.83,10.46,1
4656,68.08,-14.61,0.48,1
4657,68.09,-44.36,-13.29,1
4658,68.11,-20.57,-7.07,1
4659,68.12,13.49,19.12,1
4660,68.13,-3.77,11.3,1
4661,68.14,-4.4,5.18,1
4662,68.16,17.55,-1.74,0
4663,68.17,16.51,6.86,0
4664,68.18,-10.28,4.01,0
4665,68.2,18.86,3.38,0
4666,68.21,-16.07,-1.12,0
4667,68.22,32.31,6.9,0
4668,68.24,4.04,-13.58,0
4669,68.25,-68.99,2.27,0
4670,68.26,-80.24,-19.08,0
4671,68.28,-123.89,-21.29,0
4672,68.29,-121.95,-44.67,0
4673,68.3,-179.41,-29.82,0
4674,68.32,-177.47,-31.83,0
4675,68.33,-146.38,-8.98,0
4676,68.34,-97.93,-3.24,0
4677,68.36,-57.85,9.04,0
4678,68.37,-7.35,23.45,0
4679,68.38,54.25,27.47,0
4680,68.4,121.39,20.26,0
4681,68.41,207.02,17.21,0
4682,68.42,268.67,29.44,0
4683,68.44,279.28,24.56,0
4684,68.45,264.52,10.33,0
4685,68.46,238.83,1.59,0
4686,68.48,232.59,14.66,0
4687,68.49,177.41,7.1,0
4688,68.5,141.17,-3.18,0
4689,68.52,96.18,-14.54,0
4690,68.53,98.16,-9.3,0
4691,68.54,47.8,-11.83,0
4692,68.56,20.7,1.81,1
4693,68.57,6.9,-5.07,1
4694,68.58,-12.19,-1.25,1
4695,68.6,-40.54,26.04,1
4696,68.61,-62.72,-0.86,1
4697,68.62,-79.07,-0.95,1
4698,68.64,-94.79,-16.12,1
4699,68.65,-125.26,-15.65,1
4700,68.66,-129.37,-22.01,1
4701,68.68,-109.66,-2.05,1
4702,68.69,-84.58,-21.98,1
4703,68.7,-95.29,-5.93,1
4704,68.72,-93.8,-2.91,1
4705,68.73,-81.23,-3.18,1
4706,68.75,-80.7,3.96,1
4707,68.76,-93.13,-10.62,1
4708,68.77,-72.97,1.13,1
4709,68.79,-59.89,-1.69,1
4710,68.8,-74.78,-0.98,1
4711,68.81,-72.74,-2.58,1
4712,68.82,-81.63,-6.58,1
4713,68.84,-37.73,-4.15,1
4714,68.85,-57.55,13.45,1
4715,68.86,-41.03,3.25,1
4716,68.88,-44.93,-6.43,1
4717,68.89,-17.95,-2.03,1
4718,68.9,-30.51,4.73,1
4719,68.92,-36.67,-5.76,1
4720,68.93,-20.25,4.8,1
4721,68.94,-5.3,-10.78,1
4722,68.96,-14.45,0.2,1
4723,68.97,-12.96,6.12,1
4724,68.98,-9.82,-3.31,1
4725,69.0,12.96,12.72,1
4726,69.01,-0.83,2.99,1
4727,69.02,9.11,-6.75,1
4728,69.04,9.05,-8.52,1
4729,69.05,36.36,8.06,1
4730,69.06,33.04,-8.07,1
4731,69.08,28.97,6.35,1
4732,69.09,25.4,29.35,1
4733,69.11,50.02,30.87,1
4734,69.12,26.1,18.17,1
4735,69.13,32.84,10.31,1
4736,69.14,50.53,-3.51,1
4737,69.16,35.8,3.18,1
4738,69.17,25.14,-7.24,1
4739,69.18,35.28,-4.85,1
4740,69.2,56.49,-7.64,1
4741,69.21,36.63,21.81,1
4742,69.22,28.76,5.37,1
4743,69.24,24.54,2.08,1
4744,69.25,49.13,-0.81,1
4745,69.26,29.66,-1.96,1
4746,69.28,23.1,-5.34,1
4747,69.29,7.69,-1.38,1
4748,69.3,37.26,-0.68,1
4749,69.32,32.7,-1.11,1
4750,69.33,23.79,10.92,1
4751,69.34,8.0,-2.77,1
4752,69.36,34.16,10.5,1
4753,69.37,14.12,-6.81,1
4754,69.38,6.66,-18.29,1
4755,69.4,2.29,6.88,1
4756,69.41,2.74,0.67,1
4757,69.43,16.5,-6.76,1
4758,69.44,2.64,-2.63,1
4759,69.45,13.41,-9.91,1
4760,69.46,22.66,-1.67,1
4761,69.48,9.09,-11.34,1
4762,69.49,0.69,-2.26,1
4763,69.5,6.46,-17.14,1
4764,69.52,5.33,2.03,1
4765,69.53,0.26,-18.33,1
4766,69.54,-19.1,-2.48,1
4767,69.56,-0.22,-8.26,1
4768,69.57,-12.95,-10.13,1
4769,69.58,-35.33,-5.25,1
4770,69.6,-19.36,-3.41,1
4771,69.61,-7.04,4.82,1
4772,69.62,-22.42,2.56,1
4773,69.64,-7.97,11.8,1
4774,69.65,-25.11,5.1,1
4775,69.66,5.01,7.69,1
4776,69.68,-24.83,-11.09,1
4777,69.69,-21.5,-11.4,1
4778,69.7,-13.84,-6.06,1
4779,69.72,-10.06,-8.3,1
4780,69.73,-13.83,10.01,1
4781,69.75,-17.79,0.95,1
4782,69.76,-17.26,15.83,1
4783,69.77,3.26,13.32,1
4784,69.79,-8.6,4.24,1
4785,69.8,-15.62,14.26,1
4786,69.81,-4.7,-3.42,1
4787,69.82,3.16,13.35,1
4788,69.84,-6.96,-8.64,1
4789,69.85,-14.54,-0.61,1
4790,69.86,-1.61,3.52,1
4791,69.88,2.28,-0.58,1
4792,69.89,-7.35,3.6,1
4793,69.9,-1.31,-21.27,1
4794,69.92,12.45,-3.76,1
4795,69.93,-1.24,-14.57,1
4796,69.94,-12.58,-5.83,1
4797,69.96,-21.77,14.56,1
4798,69.97,-0.39,16.49,1
4799,69.98,4.69,18.1,1
4800,70.0,-1.29,5.95,1
4801,70.01,-10.52,10.49,1
4802,70.02,11.43,8.11,1
4803,70.04,-0.5,5.73,1
4804,70.05,-10.53,-5.93,1
4805,70.06,-4.48,-3.5,1
4806,70.08,13.64,6.54,1
4807,70.09,-47.88,-4.67,1
4808,70.11,-21.1,-5.0,1
4809,70.12,-7.12,-7.54,1
4810,70.13,17.27,-4.37,1
4811,70.14,21.58,3.01,1
4812,70.16,22.12,-3.92,0
4813,70.17,14.87,6.38,0
4814,70.18,49.43,-14.19,0
4815,70.2,3.57,-7.8,0
4816,70.21,-1.01,-7.76,0
4817,70.22,23.87,-11.79,0
4818,70.24,11.68,-38.0,0
4819,70.25,-99.57,11.87,0
