,Timestamp,Data1,Data2,Label
0,6.0,-1.19,0.53,1
1,6.01,1.55,-1.45,1
2,6.03,-9.27,3.0,1
3,6.04,-18.65,2.63,1
4,6.05,-2.8,2.23,1
5,6.07,19.07,8.19,1
6,6.08,18.05,6.82,1
7,6.09,3.99,2.76,1
8,6.11,1.27,10.35,1
9,6.12,6.94,14.51,1
10,6.13,4.64,7.76,1
11,6.15,4.37,6.65,2
12,6.16,34.8,7.36,2
13,6.17,115.07,0.45,2
14,6.19,232.86,2.1,2
15,6.2,329.27,21.19,2
16,6.21,353.61,37.78,2
17,6.23,323.9,35.61,2
18,6.24,277.5,24.64,2
19,6.25,213.91,17.58,2
20,6.27,129.06,9.77,2
21,6.28,46.96,-4.6,2
22,6.29,-12.48,-16.46,2
23,6.31,-54.74,-19.86,2
24,6.32,-95.54,-23.44,2
25,6.33,-142.8,-30.52,2
26,6.35,-182.27,-36.43,2
27,6.36,-196.24,-43.68,2
28,6.37,-202.06,-54.26,2
29,6.39,-221.45,-58.39,2
30,6.4,-238.07,-53.79,2
31,6.41,-234.49,-50.9,2
32,6.43,-223.39,-47.57,2
33,6.44,-212.83,-35.07,2
34,6.45,-195.23,-17.64,2
35,6.47,-174.32,-0.74,2
36,6.48,-162.41,9.82,2
37,6.49,-160.77,9.92,2
38,6.51,-156.21,14.65,2
39,6.52,-133.88,29.37,2
40,6.53,-107.08,31.28,2
41,6.55,-100.87,18.48,2
42,6.56,-104.56,14.25,1
43,6.57,-97.73,18.45,1
44,6.59,-84.97,19.2,1
45,6.6,-71.58,20.12,1
46,6.61,-52.29,20.28,1
47,6.63,-26.41,17.4,1
48,6.64,-2.71,18.05,1
49,6.65,6.12,21.93,1
50,6.67,-0.72,22.09,1
51,6.68,-7.78,15.96,1
52,6.69,-2.27,9.95,1
53,6.71,9.05,8.4,1
54,6.72,14.63,5.31,1
55,6.73,18.04,5.75,1
56,6.75,24.48,12.07,1
57,6.76,27.67,10.92,1
58,6.77,25.5,3.48,1
59,6.79,27.35,-0.62,1
60,6.8,36.34,-2.21,1
61,6.81,42.88,0.78,1
62,6.82,40.63,9.3,1
63,6.84,37.01,10.68,1
64,6.85,43.81,3.64,1
65,6.86,57.89,6.22,1
66,6.88,62.16,14.4,1
67,6.89,55.03,9.8,1
68,6.91,56.8,1.42,1
69,6.92,70.07,1.74,1
70,6.93,72.94,2.57,1
71,6.95,60.94,-2.63,1
72,6.96,53.64,-12.35,1
73,6.97,57.34,-19.01,1
74,6.99,60.18,-13.14,1
75,7.0,58.51,-0.93,1
76,7.01,61.72,2.53,1
77,7.03,68.73,-0.9,1
78,7.04,66.56,1.21,1
79,7.05,58.19,6.1,1
80,7.07,55.53,-0.35,1
81,7.08,54.01,-10.05,1
82,7.09,47.95,-3.31,1
83,7.11,43.77,8.83,1
84,7.12,45.76,6.95,1
85,7.13,51.05,0.47,1
86,7.15,52.35,-1.2,1
87,7.16,47.47,-3.87,1
88,7.17,41.45,-4.71,1
89,7.19,38.88,-2.95,1
90,7.2,44.92,-8.61,1
91,7.21,56.63,-16.61,1
92,7.23,57.04,-14.63,1
93,7.24,42.43,-10.36,1
94,7.25,30.88,-11.61,1
95,7.27,32.79,-12.4,1
96,7.28,39.27,-12.8,1
97,7.29,39.11,-13.48,1
98,7.31,33.63,-7.14,1
99,7.32,31.86,0.42,1
100,7.33,33.46,-1.91,1
101,7.35,31.67,-7.91,1
102,7.36,26.82,-7.87,1
103,7.37,23.54,-3.48,1
104,7.39,22.29,2.69,1
105,7.4,19.32,9.61,1
106,7.41,15.15,11.07,1
107,7.43,8.62,5.35,1
108,7.44,-3.75,-3.08,1
109,7.45,-8.9,-9.81,1
110,7.47,5.5,-7.12,1
111,7.48,20.33,2.8,1
112,7.49,15.85,4.35,1
113,7.51,2.79,-2.84,1
114,7.52,-1.99,-5.83,1
115,7.53,-0.32,-4.72,1
116,7.55,-1.88,-4.33,1
117,7.56,-7.01,-5.76,1
118,7.57,-9.66,-10.84,1
119,7.59,-11.03,-14.45,1
120,7.6,-13.59,-9.35,1
121,7.61,-12.88,-4.02,1
122,7.63,-8.81,-8.22,1
123,7.64,-8.84,-15.02,1
124,7.65,-11.82,-13.47,1
125,7.67,-11.53,-3.69,1
126,7.68,-12.55,3.86,1
127,7.69,-18.2,1.54,1
128,7.71,-17.49,-2.86,1
129,7.72,-7.86,-4.84,1
130,7.73,-5.9,-7.94,1
131,7.75,-14.16,-2.31,1
132,7.76,-14.53,11.88,1
133,7.77,-7.64,10.2,1
134,7.79,-11.7,-4.69,1
135,7.8,-21.83,-5.0,1
136,7.81,-20.23,6.19,1
137,7.83,-16.41,9.01,1
138,7.84,-24.67,2.43,1
139,7.85,-29.04,-2.77,1
140,7.87,-18.81,0.72,1
141,7.88,-11.69,5.36,1
142,7.89,-17.88,3.28,1
143,7.91,-23.73,4.57,1
144,7.92,-19.86,12.38,1
145,7.93,-18.7,11.61,1
146,7.95,-25.1,1.29,1
147,7.96,-25.42,-5.85,1
148,7.97,-18.71,-6.97,1
149,7.99,-17.93,-4.05,1
150,8.0,-22.71,0.57,1
151,8.01,-28.39,2.86,1
152,8.03,-36.28,5.7,1
153,8.04,-39.31,9.94,1
154,8.05,-28.93,5.72,1
155,8.07,-15.56,-5.47,1
156,8.08,-16.08,-6.84,1
157,8.09,-24.71,2.84,1
158,8.1,-22.0,7.69,1
159,8.12,-10.39,2.41,1
160,8.13,-9.25,-2.18,1
161,8.15,-18.48,1.84,0
162,8.16,-21.98,5.74,0
163,8.17,-20.71,0.79,0
164,8.19,-24.75,-2.89,0
165,8.2,-23.91,-0.17,0
166,8.21,-6.12,-1.78,0
167,8.23,5.33,-4.72,0
168,8.24,-31.12,2.01,0
169,8.25,-118.86,10.47,0
170,8.27,-211.45,10.24,0
171,8.28,-271.93,9.59,0
172,8.29,-308.64,20.1,0
173,8.31,-332.06,39.32,0
174,8.32,-328.88,51.41,0
175,8.33,-298.05,44.79,0
176,8.35,-260.24,29.74,0
177,8.36,-220.45,18.03,0
178,8.37,-167.05,2.3,0
179,8.39,-98.77,-23.26,0
180,8.4,-11.4,-46.65,0
181,8.41,107.58,-53.12,0
182,8.43,235.26,-42.7,0
183,8.44,315.73,-33.97,0
184,8.45,331.15,-34.04,0
185,8.47,316.34,-26.54,0
186,8.48,303.42,-16.3,0
187,8.49,293.87,-16.46,0
188,8.51,277.91,-8.12,0
189,8.52,256.39,11.1,0
190,8.53,232.17,12.65,0
191,8.55,203.69,-0.55,1
192,8.56,180.56,-3.76,1
193,8.57,172.37,2.73,1
194,8.59,158.48,5.33,1
195,8.6,112.03,-1.62,1
196,8.61,56.28,-13.36,1
197,8.63,45.04,-15.47,1
198,8.64,77.89,-3.3,1
199,8.65,102.12,7.35,1
200,8.67,95.31,7.03,1
201,8.68,79.05,3.62,1
202,8.69,67.06,2.84,1
203,8.71,58.76,3.95,1
204,8.72,53.98,4.89,1
205,8.73,46.47,5.55,1
206,8.75,32.71,9.15,1
207,8.76,20.72,11.93,1
208,8.77,14.22,9.42,1
209,8.78,7.41,8.41,1
210,8.8,-3.55,9.04,1
211,8.81,-12.63,5.04,1
212,8.82,-15.08,3.65,1
213,8.84,-17.89,7.67,1
214,8.85,-24.33,8.5,1
215,8.87,-28.63,9.25,1
216,8.88,-30.79,13.19,1
217,8.89,-33.31,10.13,1
218,8.91,-33.13,0.94,1
219,8.92,-33.66,-3.32,1
220,8.93,-42.27,-1.92,1
221,8.95,-53.08,3.55,1
222,8.96,-54.94,8.61,1
223,8.97,-50.75,5.11,1
224,8.99,-52.27,1.01,1
225,9.0,-62.99,4.04,1
226,9.01,-75.73,2.84,1
227,9.03,-78.88,-4.51,1
228,9.04,-67.49,-6.38,1
229,9.05,-56.9,-2.5,1
230,9.07,-64.31,2.9,1
231,9.08,-75.99,10.81,1
232,9.09,-67.29,13.09,1
233,9.11,-44.75,2.59,1
234,9.12,-33.73,-6.22,1
235,9.13,-42.75,0.68,1
236,9.15,-58.91,15.82,1
237,9.16,-65.05,21.46,1
238,9.17,-60.21,11.79,1
239,9.19,-55.65,1.28,1
240,9.2,-51.94,-0.57,1
241,9.21,-43.86,-1.83,1
242,9.23,-39.64,-3.83,1
243,9.24,-48.19,0.18,1
244,9.25,-60.85,3.18,1
245,9.27,-65.47,-2.22,1
246,9.28,-63.19,-8.89,1
247,9.29,-60.1,-11.93,1
248,9.31,-52.99,-9.33,1
249,9.32,-33.89,-0.11,1
250,9.33,-13.42,5.4,1
251,9.35,-13.57,4.69,1
252,9.36,-30.18,7.69,1
253,9.37,-42.53,9.96,1
254,9.39,-47.66,7.92,1
255,9.4,-47.33,10.8,1
256,9.41,-35.32,12.52,1
257,9.43,-18.68,4.0,1
258,9.44,-11.95,-4.54,1
259,9.45,-15.37,-8.25,1
260,9.47,-21.76,-11.34,1
261,9.48,-24.99,-13.62,1
262,9.49,-24.03,-14.87,1
263,9.51,-26.32,-12.36,1
264,9.52,-31.11,-6.26,1
265,9.53,-29.14,-5.15,1
266,9.55,-19.26,-7.03,1
267,9.56,-4.04,-3.84,1
268,9.57,10.59,-4.08,1
269,9.59,14.53,-11.06,1
270,9.6,8.43,-10.65,1
271,9.61,1.08,-3.23,1
272,9.63,-2.61,-1.35,1
273,9.64,0.23,-5.87,1
274,9.65,3.96,-9.55,1
275,9.67,1.87,-3.6,1
276,9.68,2.76,7.67,1
277,9.69,10.4,6.68,1
278,9.71,13.98,-3.77,1
279,9.72,12.22,-6.38,1
280,9.73,12.26,-3.13,1
281,9.75,13.3,-0.65,1
282,9.76,13.78,4.72,1
283,9.77,13.24,9.16,1
284,9.79,7.05,7.3,1
285,9.8,0.51,6.11,1
286,9.81,7.57,5.78,1
287,9.83,19.8,-1.39,1
288,9.84,20.53,-6.33,1
289,9.85,17.25,-1.74,1
290,9.87,20.57,3.06,1
291,9.88,27.94,1.42,1
292,9.89,34.54,-7.76,1
293,9.91,35.53,-14.46,1
294,9.92,33.36,-3.8,1
295,9.93,33.48,10.41,1
296,9.95,32.51,7.48,1
297,9.96,28.98,-3.22,1
298,9.97,26.14,-8.33,1
299,9.99,21.99,-8.24,1
300,10.0,18.15,-2.55,1
301,10.01,17.96,0.32,1
302,10.02,15.05,-8.93,1
303,10.04,12.49,-13.97,1
304,10.05,19.05,-2.97,1
305,10.06,25.44,9.46,1
306,10.08,27.52,10.77,1
307,10.09,32.84,1.86,1
308,10.1,35.96,-7.59,1
309,10.12,35.49,-8.73,1
310,10.13,40.01,-8.01,1
311,10.15,43.66,-8.68,0
312,10.16,39.21,-3.37,0
313,10.17,31.05,1.9,0
314,10.19,15.62,2.36,0
315,10.2,-24.83,5.54,0
316,10.21,-106.13,0.69,0
317,10.23,-214.9,-20.53,0
318,10.24,-302.03,-34.71,0
319,10.25,-329.76,-35.42,0
320,10.27,-308.95,-39.65,0
321,10.28,-262.74,-39.86,0
322,10.29,-196.92,-26.44,0
323,10.31,-121.32,-13.57,0
324,10.32,-51.19,-4.91,0
325,10.33,10.19,2.08,0
326,10.35,63.14,3.04,0
327,10.36,103.07,11.03,0
328,10.37,133.3,29.19,0
329,10.39,169.96,32.97,0
330,10.4,211.73,24.16,0
331,10.41,230.72,22.05,0
332,10.43,219.62,19.03,0
333,10.44,208.65,5.81,0
334,10.45,218.9,-9.54,0
335,10.47,231.59,-14.31,0
336,10.48,220.06,-3.9,0
337,10.49,196.66,6.96,0
338,10.51,188.37,7.31,0
339,10.52,185.29,9.13,0
340,10.53,169.95,17.88,0
341,10.55,154.71,21.98,1
342,10.56,146.97,16.01,1
343,10.57,130.12,8.26,1
344,10.59,102.93,11.91,1
345,10.6,92.62,25.89,1
346,10.61,107.35,30.55,1
347,10.63,114.11,22.12,1
348,10.64,94.42,16.6,1
349,10.65,75.26,13.51,1
350,10.67,71.68,10.39,1
351,10.68,62.18,19.93,1
352,10.69,39.38,28.91,1
353,10.71,19.69,16.26,1
354,10.72,6.79,1.58,1
355,10.73,-2.67,2.29,1
356,10.75,-1.62,5.0,1
357,10.76,5.86,4.35,1
358,10.77,-5.25,5.9,1
359,10.78,-38.42,9.59,1
360,10.8,-60.37,14.17,1
361,10.81,-56.63,16.22,1
362,10.83,-49.3,11.94,1
363,10.84,-48.14,5.81,1
364,10.85,-46.27,-1.72,1
365,10.87,-47.24,-12.1,1
366,10.88,-55.85,-10.75,1
367,10.89,-64.44,3.19,1
368,10.91,-64.15,7.27,1
369,10.92,-62.95,2.33,1
370,10.93,-75.74,4.16,1
371,10.95,-91.86,4.72,1
372,10.96,-89.37,-6.44,1
373,10.97,-76.43,-17.04,1
374,10.99,-74.97,-14.91,1
375,11.0,-81.48,-5.77,1
376,11.01,-80.92,-2.88,1
377,11.03,-76.83,-10.3,1
378,11.04,-75.28,-13.9,1
379,11.05,-70.79,-6.96,1
380,11.07,-68.85,-4.42,1
381,11.08,-76.81,-10.79,1
382,11.09,-80.92,-14.79,1
383,11.11,-73.91,-15.77,1
384,11.12,-70.32,-20.0,1
385,11.13,-78.52,-24.73,1
386,11.15,-88.4,-22.48,1
387,11.16,-86.02,-12.39,1
388,11.17,-73.04,-4.59,1
389,11.19,-65.56,-9.86,1
390,11.2,-66.33,-18.39,1
391,11.21,-65.23,-15.0,1
392,11.23,-63.11,-9.66,1
393,11.24,-63.16,-12.46,1
394,11.25,-59.62,-10.88,1
395,11.27,-50.91,-3.29,1
396,11.28,-47.06,-3.94,1
397,11.29,-52.65,-7.05,1
398,11.31,-56.53,-0.12,1
399,11.32,-53.52,5.0,1
400,11.33,-48.63,-3.57,1
401,11.35,-42.27,-12.09,1
402,11.36,-37.07,-8.3,1
403,11.37,-36.56,-3.58,1
404,11.39,-36.55,-7.09,1
405,11.4,-35.24,-10.14,1
406,11.41,-31.87,-8.32,1
407,11.43,-25.77,-6.77,1
408,11.44,-24.14,-6.47,1
409,11.45,-25.24,-4.92,1
410,11.47,-21.36,-2.84,1
411,11.48,-16.98,-1.23,1
412,11.49,-16.29,2.3,1
413,11.51,-16.27,7.75,1
414,11.52,-12.05,9.52,1
415,11.53,-1.15,0.56,1
416,11.55,11.13,-14.65,1
417,11.56,21.46,-18.03,1
418,11.57,27.36,-4.47,1
419,11.59,18.16,6.01,1
420,11.6,-2.11,0.99,1
421,11.61,-9.28,-5.65,1
422,11.63,-1.51,-3.27,1
423,11.64,0.08,2.51,1
424,11.65,-2.05,4.8,1
425,11.67,7.44,0.86,1
426,11.68,19.03,-2.03,1
427,11.69,20.17,3.95,1
428,11.71,18.18,8.84,1
429,11.72,18.59,5.25,1
430,11.73,20.52,-0.74,1
431,11.75,24.83,-5.7,1
432,11.76,27.02,-2.15,1
433,11.77,24.28,10.72,1
434,11.79,20.96,16.53,1
435,11.8,19.27,12.32,1
436,11.81,23.47,11.37,1
437,11.83,35.62,13.37,1
438,11.84,45.63,9.26,1
439,11.85,45.46,0.22,1
440,11.87,40.25,-5.01,1
441,11.88,36.63,-1.38,1
442,11.89,31.84,7.51,1
443,11.91,18.33,11.96,1
444,11.92,7.36,8.78,1
445,11.93,19.08,5.72,1
446,11.94,37.92,5.31,1
447,11.96,36.1,4.68,1
448,11.97,23.6,4.68,1
449,11.98,22.5,1.65,1
450,12.0,31.33,-1.36,1
451,12.01,34.77,5.35,1
452,12.02,24.23,11.57,1
453,12.04,11.35,6.76,1
454,12.05,13.16,1.66,1
455,12.06,25.58,3.29,1
456,12.08,31.19,6.72,1
457,12.09,28.49,3.84,1
458,12.1,28.82,-6.27,1
459,12.12,32.93,-9.3,1
460,12.13,32.39,0.08,1
461,12.15,24.65,7.93,2
462,12.16,17.61,3.33,2
463,12.17,24.44,-9.35,2
464,12.19,39.42,-14.68,2
465,12.2,39.19,-3.99,2
466,12.21,38.21,12.76,2
467,12.23,89.38,20.29,2
468,12.24,193.11,15.74,2
469,12.25,288.72,11.36,2
470,12.27,347.28,20.56,2
471,12.28,375.21,39.89,2
472,12.29,360.73,49.43,2
473,12.31,306.08,33.43,2
474,12.32,250.93,3.05,2
475,12.33,215.75,-15.96,2
476,12.35,184.21,-20.55,2
477,12.36,139.62,-24.9,2
478,12.37,64.56,-28.76,2
479,12.39,-59.15,-26.02,2
480,12.4,-204.52,-20.0,2
481,12.41,-306.8,-16.38,2
482,12.43,-341.72,-16.25,2
483,12.44,-341.29,-13.66,2
484,12.45,-333.11,-4.81,2
485,12.47,-319.86,-0.6,2
486,12.48,-303.83,-9.52,2
487,12.49,-288.04,-17.08,2
488,12.51,-268.48,-6.95,2
489,12.52,-243.83,10.14,2
490,12.53,-217.27,13.31,2
491,12.55,-183.7,4.48,1
492,12.56,-140.59,5.39,1
493,12.57,-114.24,22.13,1
494,12.59,-125.26,28.88,1
495,12.6,-136.3,11.82,1
496,12.61,-110.99,-2.53,1
497,12.63,-78.87,2.07,1
498,12.64,-71.08,11.46,1
499,12.65,-68.88,12.95,1
500,12.67,-58.09,4.44,1
501,12.68,-53.57,-2.51,1
502,12.69,-52.71,2.26,1
503,12.71,-37.01,4.69,1
504,12.72,-16.82,-4.22,1
505,12.73,-12.06,-11.12,1
506,12.75,-12.58,-11.26,1
507,12.76,-6.23,-13.53,1
508,12.77,-3.77,-16.4,1
509,12.79,-4.79,-13.87,1
510,12.8,8.57,-7.74,1
511,12.81,32.67,-1.96,1
512,12.83,38.84,-0.74,1
513,12.84,23.04,-2.06,1
514,12.85,17.09,-0.92,1
515,12.87,34.98,-2.32,1
516,12.88,53.6,-6.92,1
517,12.89,56.16,-5.61,1
518,12.91,54.13,-1.87,1
519,12.92,60.34,-4.46,1
520,12.93,67.17,-10.02,1
521,12.95,64.49,-16.62,1
522,12.96,57.77,-18.98,1
523,12.97,55.07,-3.46,1
524,12.99,55.82,15.44,1
525,13.0,59.98,10.76,1
526,13.01,65.0,-2.51,1
527,13.03,65.45,0.26,1
528,13.04,63.92,6.47,1
529,13.05,66.48,2.29,1
530,13.07,74.6,-1.3,1
531,13.08,81.96,3.42,1
532,13.09,76.18,5.98,1
533,13.11,63.94,-3.33,1
534,13.12,63.18,-9.72,1
535,13.13,67.05,1.29,1
536,13.15,64.66,10.03,1
537,13.16,61.07,0.88,1
538,13.17,59.7,-6.36,1
539,13.19,58.46,-1.56,1
540,13.2,54.46,-1.03,1
541,13.21,49.31,-8.66,1
542,13.23,50.19,-14.18,1
543,13.24,53.84,-13.12,1
544,13.25,47.31,-5.2,1
545,13.27,35.4,6.08,1
546,13.28,36.26,10.51,1
547,13.29,45.0,3.34,1
548,13.31,44.21,-5.05,1
549,13.32,41.71,-2.74,1
550,13.33,46.96,4.76,1
551,13.35,46.88,7.71,1
552,13.36,38.3,11.64,1
553,13.37,33.27,18.56,1
554,13.39,26.8,14.61,1
555,13.4,15.46,1.76,1
556,13.41,17.15,-0.2,1
557,13.43,29.55,9.08,1
558,13.44,28.1,14.57,1
559,13.45,12.93,11.61,1
560,13.47,4.52,0.38,1
561,13.48,8.89,-11.57,1
562,13.49,13.89,-8.14,1
563,13.51,6.71,4.36,1
564,13.52,-9.35,6.6,1
565,13.53,-11.94,2.69,1
566,13.55,6.2,1.65,1
567,13.56,18.27,0.04,1
568,13.57,8.72,0.01,1
569,13.59,-1.04,1.39,1
570,13.6,0.42,-0.36,1
571,13.61,-5.87,1.99,1
572,13.63,-22.34,5.56,1
573,13.64,-29.08,-2.21,1
574,13.65,-23.12,-9.65,1
575,13.67,-15.4,-5.78,1
576,13.68,-9.51,-2.27,1
577,13.69,-9.41,-3.3,1
578,13.71,-19.08,-1.95,1
579,13.72,-27.17,2.08,1
580,13.73,-22.0,7.46,1
581,13.75,-17.44,11.4,1
582,13.76,-22.72,7.96,1
583,13.77,-21.76,-0.15,1
584,13.79,-12.94,-2.5,1
585,13.8,-10.47,-2.37,1
586,13.81,-9.69,-9.84,1
587,13.83,-12.59,-15.4,1
588,13.84,-31.83,-6.55,1
589,13.85,-45.2,6.01,1
590,13.86,-30.08,9.8,1
591,13.88,-14.09,11.09,1
592,13.89,-18.53,13.12,1
593,13.9,-25.81,10.54,1
594,13.92,-26.07,5.27,1
595,13.93,-23.77,0.5,1
596,13.94,-21.35,-8.03,1
597,13.96,-22.74,-16.79,1
598,13.97,-26.15,-14.06,1
599,13.98,-25.22,-6.08,1
600,14.0,-24.02,-8.4,1
601,14.01,-29.04,-13.22,1
602,14.02,-35.57,-8.63,1
603,14.04,-34.78,0.0,1
604,14.05,-31.67,9.77,1
605,14.07,-36.78,14.44,1
606,14.08,-34.93,3.94,1
607,14.09,-11.07,-7.93,1
608,14.11,2.23,-5.61,1
609,14.12,-18.06,0.5,1
610,14.13,-32.11,8.63,1
611,14.15,-19.67,37.44,1
612,14.16,-12.33,94.86,1
613,14.17,-14.26,194.6,1
614,14.19,-23.69,334.26,1
615,14.2,-112.77,417.24,1
616,14.21,-308.13,370.85,1
617,14.23,-445.52,284.74,1
618,14.24,-405.06,249.89,1
619,14.25,-321.03,231.53,1
620,14.27,-303.33,189.47,1
621,14.28,-283.95,144.31,1
622,14.29,-227.95,113.7,1
623,14.31,-180.33,87.04,1
624,14.32,-109.39,57.14,1
625,14.33,96.99,28.96,1
626,14.35,367.52,4.97,1
627,14.36,434.76,-17.41,1
628,14.37,324.42,-38.83,1
629,14.39,282.28,-58.02,1
630,14.4,197.78,-75.28,1
631,14.41,8.26,-91.31,1
632,14.43,59.88,-105.75,1
633,14.44,328.6,-117.98,1
634,14.45,404.62,-128.83,1
635,14.47,260.63,-139.36,1
636,14.48,91.5,-148.91,1
637,14.49,19.77,-156.03,1
638,14.51,136.85,-161.75,1
639,14.52,248.53,-167.11,1
640,14.53,150.08,-171.45,1
641,14.55,55.49,-174.2,1
642,14.56,98.16,-176.04,1
643,14.57,122.96,-176.88,1
644,14.59,79.77,-176.91,1
645,14.6,20.7,-177.3,1
646,14.61,60.06,-177.62,1
647,14.63,257.75,-188.71,1
648,14.64,349.4,-229.13,1
649,14.65,218.75,-259.68,1
650,14.67,140.07,-212.76,1
651,14.68,59.38,-143.31,1
652,14.69,-259.02,-164.05,1
653,14.71,-512.04,-311.15,1
654,14.72,-358.33,-568.39,1
655,14.73,-15.36,-710.83,1
656,14.75,133.76,-480.02,1
657,14.76,-43.85,-177.41,1
658,14.77,-311.53,-221.54,1
659,14.79,-270.28,-322.6,1
660,14.8,-2.15,-179.12,1
661,14.81,9.58,-89.38,1
662,14.83,-231.3,-140.24,1
663,14.84,-291.67,-154.36,1
664,14.85,-151.38,-140.65,1
665,14.87,-118.64,-27.8,1
666,14.88,-119.71,79.76,1
667,14.89,78.11,-80.46,1
668,14.91,213.26,-306.66,1
669,14.92,-28.48,-350.51,1
670,14.93,-319.87,-324.34,1
671,14.95,-200.14,-251.88,1
672,14.96,150.05,-113.22,1
673,14.97,299.61,-78.78,1
674,14.99,303.38,-150.82,1
675,15.0,406.95,-165.64,1
676,15.01,513.33,-135.88,1
677,15.03,444.65,-111.53,1
678,15.04,280.93,-56.93,1
679,15.05,174.09,3.6,1
680,15.07,116.2,26.27,1
681,15.08,26.79,41.38,1
682,15.09,-73.72,82.73,1
683,15.11,-113.15,131.94,1
684,15.12,-112.53,170.15,1
685,15.13,-132.56,222.73,1
686,15.15,-155.5,314.72,1
687,15.16,-140.67,405.02,1
688,15.17,-114.06,437.32,1
689,15.19,-120.28,440.33,1
690,15.2,-144.95,472.54,1
691,15.21,-149.2,514.71,1
692,15.23,-135.12,516.02,1
693,15.24,-126.49,486.13,1
694,15.25,-126.2,475.58,1
695,15.27,-127.22,488.41,1
696,15.28,-125.28,481.55,1
697,15.29,-111.08,452.75,1
698,15.31,-94.77,433.95,1
699,15.32,-97.6,424.39,1
700,15.33,-101.02,404.73,1
701,15.35,-83.82,378.53,1
702,15.36,-66.64,360.64,1
703,15.37,-62.52,354.11,1
704,15.39,-64.48,347.0,1
705,15.4,-72.05,329.63,1
706,15.41,-74.51,317.3,1
707,15.43,-59.18,317.34,1
708,15.44,-46.08,301.83,1
709,15.45,-53.06,265.77,1
710,15.47,-61.29,242.29,1
711,15.48,-56.51,237.34,1
712,15.49,-48.27,222.48,1
713,15.51,-41.36,187.98,1
714,15.52,-36.21,155.19,1
715,15.53,-35.66,141.75,1
716,15.55,-35.41,135.32,1
717,15.56,-31.44,114.11,1
718,15.57,-23.48,85.28,1
719,15.59,-10.29,70.39,1
720,15.6,-2.26,63.52,1
721,15.61,-9.72,44.2,1
722,15.63,-15.94,15.77,1
723,15.64,-2.88,-3.55,1
724,15.65,10.85,-10.44,1
725,15.67,5.07,-14.79,1
726,15.68,0.21,-22.73,1
727,15.69,15.01,-34.5,1
728,15.71,23.04,-51.68,1
729,15.72,7.47,-71.85,1
730,15.73,-5.38,-85.43,1
731,15.75,2.67,-93.51,1
732,15.76,19.87,-107.21,1
733,15.77,30.2,-120.26,1
734,15.78,29.35,-118.43,1
735,15.8,25.32,-110.81,1
736,15.81,24.93,-112.59,1
737,15.82,24.07,-119.52,1
738,15.84,22.32,-126.14,1
739,15.85,25.52,-137.69,1
740,15.86,31.08,-157.26,1
741,15.88,33.6,-176.32,1
742,15.89,32.42,-181.34,1
743,15.9,28.76,-173.51,1
744,15.92,28.68,-171.76,1
745,15.93,33.56,-184.13,1
746,15.94,37.11,-194.99,1
747,15.96,40.58,-194.05,1
748,15.97,47.02,-185.2,1
749,15.98,49.31,-179.28,1
750,16.0,45.69,-188.88,1
751,16.01,44.46,-202.45,1
752,16.03,43.67,-197.43,1
753,16.04,35.46,-182.86,1
754,16.05,25.95,-175.76,1
755,16.07,27.36,-172.35,1
756,16.08,37.38,-172.19,1
757,16.09,43.7,-174.06,1
758,16.11,43.14,-168.63,1
759,16.12,40.95,-163.01,1
760,16.13,40.38,-168.16,1
761,16.15,44.45,-173.16,1
762,16.16,51.31,-164.68,2
763,16.17,46.66,-146.39,2
764,16.19,44.31,-132.74,2
765,16.2,105.15,-130.13,2
766,16.21,245.88,-124.17,2
767,16.23,378.58,-108.19,2
768,16.24,422.39,-97.03,2
769,16.25,389.38,-89.51,2
770,16.27,316.88,-82.87,2
771,16.28,224.56,-98.87,2
772,16.29,143.04,-132.87,2
773,16.31,87.0,-146.91,2
774,16.32,24.89,-132.31,2
775,16.33,-54.44,-116.52,2
776,16.35,-109.0,-113.32,2
777,16.36,-122.79,-112.12,2
778,16.37,-128.56,-109.99,2
779,16.39,-150.84,-107.95,2
780,16.4,-181.61,-100.0,2
781,16.41,-194.28,-89.78,2
782,16.42,-184.97,-82.34,2
783,16.44,-179.97,-76.93,2
784,16.45,-182.71,-69.24,2
785,16.46,-174.67,-52.06,2
786,16.48,-163.07,-36.6,2
787,16.49,-164.39,-36.64,2
788,16.5,-166.82,-33.46,2
789,16.52,-155.35,-13.4,2
790,16.53,-144.06,4.8,2
791,16.54,-146.58,7.94,2
792,16.56,-147.2,5.64,1
793,16.57,-124.74,8.5,1
794,16.58,-86.96,11.55,1
795,16.6,-61.57,7.61,1
796,16.61,-58.22,6.17,1
797,16.62,-63.12,11.3,1
798,16.64,-63.2,17.56,1
799,16.65,-52.23,32.83,1
800,16.67,-34.04,50.76,1
801,16.68,-20.25,47.17,1
802,16.69,-16.63,32.1,1
803,16.71,-20.91,37.46,1
804,16.72,-16.89,55.19,1
805,16.73,8.57,53.75,1
806,16.75,25.79,38.28,1
807,16.76,8.91,36.86,1
808,16.77,-5.91,49.06,1
809,16.79,8.11,58.15,1
810,16.8,25.22,61.57,1
811,16.81,39.3,65.17,1
812,16.83,60.27,71.12,1
813,16.84,64.1,71.97,1
814,16.85,42.07,62.21,1
815,16.87,27.64,54.93,1
816,16.88,28.26,57.71,1
817,16.89,24.41,58.06,1
818,16.91,21.22,52.94,1
819,16.92,26.57,46.4,1
820,16.93,31.83,35.23,1
821,16.95,33.28,32.31,1
822,16.96,31.1,50.36,1
823,16.97,30.39,68.05,1
824,16.99,37.35,68.28,1
825,17.0,41.27,63.5,1
826,17.01,35.0,58.68,1
827,17.03,34.02,47.97,1
828,17.04,45.76,39.63,1
829,17.05,53.88,43.55,1
830,17.06,51.27,53.21,1
831,17.08,45.75,55.31,1
832,17.09,42.35,49.24,1
833,17.1,45.23,49.14,1
834,17.12,50.51,59.22,1
835,17.13,45.94,63.77,1
836,17.14,30.4,55.92,1
837,17.16,18.44,45.22,1
838,17.17,23.66,36.54,1
839,17.18,37.52,37.02,1
840,17.2,40.67,49.25,1
841,17.21,36.72,57.95,1
842,17.22,39.32,62.62,1
843,17.24,42.99,71.04,1
844,17.25,39.6,68.71,1
845,17.26,36.69,52.88,1
846,17.28,40.11,40.34,1
847,17.29,44.23,35.53,1
848,17.3,44.21,37.06,1
849,17.32,40.8,39.48,1
850,17.33,34.08,38.74,1
851,17.35,23.38,43.25,1
852,17.36,16.22,48.29,1
853,17.37,19.5,40.65,1
854,17.39,21.77,27.05,1
855,17.4,17.5,16.32,1
856,17.41,16.67,13.66,1
857,17.43,13.27,25.28,1
858,17.44,2.8,34.81,1
859,17.45,-1.85,27.24,1
860,17.47,-3.96,19.39,1
861,17.48,-7.99,17.27,1
862,17.49,0.02,6.54,1
863,17.51,14.85,-1.71,1
864,17.52,13.83,7.14,1
865,17.53,3.56,17.66,1
866,17.55,3.19,17.61,1
867,17.56,1.08,13.96,1
868,17.57,-9.66,12.05,1
869,17.59,-10.36,11.22,1
870,17.6,-2.24,8.71,1
871,17.61,-3.4,5.83,1
872,17.63,-12.52,10.17,1
873,17.64,-15.02,17.44,1
874,17.65,-5.82,12.27,1
875,17.67,-2.49,-2.1,1
876,17.68,-19.08,-6.6,1
877,17.69,-30.15,-1.17,1
878,17.7,-14.36,-4.57,1
879,17.72,0.25,-16.87,1
880,17.73,-8.33,-14.78,1
881,17.75,-22.51,1.85,1
882,17.76,-28.22,7.67,1
883,17.77,-25.3,-2.38,1
884,17.78,-17.55,-13.2,1
885,17.8,-16.32,-17.55,1
886,17.81,-22.1,-13.71,1
887,17.82,-20.66,-4.21,1
888,17.84,-13.67,-3.48,1
889,17.85,-18.05,-15.97,1
890,17.86,-34.12,-21.65,1
891,17.88,-40.1,-17.21,1
892,17.89,-24.58,-20.35,1
893,17.9,-10.64,-24.55,1
894,17.92,-20.77,-18.78,1
895,17.93,-35.99,-14.08,1
896,17.94,-31.06,-14.43,1
897,17.96,-20.22,-18.02,1
898,17.97,-23.68,-25.57,1
899,17.99,-26.37,-27.12,1
900,18.0,-15.93,-20.1,1
901,18.01,-9.53,-17.68,1
902,18.03,-13.28,-22.73,1
903,18.04,-19.43,-23.87,1
904,18.05,-27.35,-17.42,1
905,18.07,-30.2,-15.93,1
906,18.08,-24.44,-25.88,1
907,18.09,-16.75,-33.52,1
908,18.11,-9.99,-25.85,1
909,18.12,-8.29,-10.4,1
910,18.13,-9.69,-4.29,1
911,18.15,-7.1,-10.22,1
912,18.16,-6.44,-16.13,0
913,18.17,-11.52,-14.15,0
914,18.19,-16.54,-9.96,0
915,18.2,-15.29,-16.09,0
916,18.21,-3.33,-25.94,0
917,18.23,7.83,-19.84,0
918,18.24,5.86,-6.54,0
919,18.25,1.71,-7.97,0
920,18.27,1.94,-14.46,0
921,18.28,-11.71,-7.35,0
922,18.29,-63.46,-1.1,0
923,18.31,-153.39,-11.85,0
924,18.32,-250.66,-20.27,0
925,18.33,-325.64,-15.59,0
926,18.34,-364.5,-16.58,0
927,18.36,-360.35,-24.2,0
928,18.37,-322.13,-25.92,0
929,18.38,-273.27,-31.19,0
930,18.4,-229.87,-45.53,0
931,18.41,-192.55,-51.18,0
932,18.42,-156.25,-41.71,0
933,18.44,-105.25,-30.47,0
934,18.45,-3.64,-25.1,0
935,18.46,149.65,-22.01,0
936,18.48,278.41,-14.44,0
937,18.49,324.93,0.28,0
938,18.5,327.23,15.47,0
939,18.52,335.42,20.18,0
940,18.53,340.32,11.76,0
941,18.54,320.25,0.86,0
942,18.56,288.74,0.54,1
943,18.57,267.46,9.92,1
944,18.58,251.01,16.48,1
945,18.6,228.97,12.64,1
946,18.61,208.92,3.45,1
947,18.63,193.86,0.04,1
948,18.64,172.81,-0.58,1
949,18.65,148.21,-4.25,1
950,18.67,135.62,4.59,1
951,18.68,129.27,22.24,1
952,18.69,114.2,15.83,1
953,18.71,99.54,-8.42,1
954,18.72,94.72,-11.69,1
955,18.73,86.31,9.41,1
956,18.75,69.24,25.84,1
957,18.76,53.74,21.21,1
958,18.77,38.7,7.69,1
959,18.79,22.15,8.63,1
960,18.8,12.85,20.43,1
961,18.81,11.33,20.96,1
962,18.83,12.75,14.8,1
963,18.84,12.27,13.16,1
964,18.85,-0.0,7.28,1
965,18.87,-20.18,0.78,1
966,18.88,-31.9,3.25,1
967,18.89,-35.57,2.67,1
968,18.91,-42.99,-8.92,1
969,18.92,-53.87,-18.21,1
970,18.93,-60.04,-13.73,1
971,18.95,-62.4,-4.02,1
972,18.96,-68.57,-1.71,1
973,18.97,-75.47,-0.77,1
974,18.98,-75.51,6.55,1
975,19.0,-73.46,10.58,1
976,19.01,-71.49,3.37,1
977,19.02,-64.13,-4.46,1
978,19.04,-58.25,-4.22,1
979,19.05,-63.41,-1.23,1
980,19.06,-71.56,4.74,1
981,19.08,-72.56,16.61,1
982,19.09,-71.01,20.27,1
983,19.1,-74.12,11.87,1
984,19.12,-76.12,9.28,1
985,19.13,-69.48,11.9,1
986,19.14,-62.41,7.9,1
987,19.16,-64.03,3.68,1
988,19.17,-68.45,1.56,1
989,19.18,-70.66,-4.51,1
990,19.2,-72.56,-8.48,1
991,19.21,-72.2,-3.02,1
992,19.22,-67.82,6.56,1
993,19.24,-62.97,9.41,1
994,19.25,-61.02,5.1,1
995,19.265,-62.92,1.98,1
996,19.28,-65.36,-2.25,1
997,19.29,-61.53,-7.81,1
998,19.31,-51.57,-1.39,1
999,19.32,-47.67,10.34,1
1000,19.33,-54.83,6.02,1
1001,19.35,-57.09,-4.78,1
1002,19.36,-45.79,-2.7,1
1003,19.37,-36.36,0.74,1
1004,19.39,-38.51,-4.41,1
1005,19.4,-39.61,-6.19,1
1006,19.41,-30.79,-0.38,1
1007,19.43,-21.02,7.03,1
1008,19.44,-16.29,7.94,1
1009,19.45,-12.61,-0.16,1
1010,19.47,-14.05,-5.84,1
1011,19.48,-24.83,-5.86,1
1012,19.49,-33.45,-10.33,1
1013,19.51,-28.58,-11.21,1
1014,19.52,-16.35,3.72,1
1015,19.53,-10.08,16.37,1
1016,19.55,-13.41,11.07,1
1017,19.56,-15.98,2.68,1
1018,19.57,-9.17,4.02,1
1019,19.59,-2.24,5.38,1
1020,19.6,-5.43,-4.08,1
1021,19.61,-9.38,-16.1,1
1022,19.62,-3.57,-15.27,1
1023,19.64,3.24,-2.87,1
1024,19.65,-0.61,6.38,1
1025,19.67,-4.82,7.1,1
1026,19.68,6.65,4.76,1
1027,19.69,21.62,2.37,1
1028,19.7,21.57,1.35,1
1029,19.72,17.0,1.28,1
1030,19.73,21.86,1.33,1
1031,19.75,27.6,6.35,1
1032,19.76,25.74,12.34,1
1033,19.77,19.91,4.9,1
1034,19.78,11.98,-8.45,1
1035,19.8,5.28,-9.38,1
1036,19.81,7.28,-8.5,1
1037,19.82,14.06,-13.66,1
1038,19.84,17.38,-4.67,1
1039,19.85,21.53,13.23,1
1040,19.86,29.53,15.66,1
1041,19.88,31.97,9.34,1
1042,19.89,24.27,6.96,1
1043,19.9,16.54,5.1,1
1044,19.92,19.45,2.89,1
1045,19.93,27.46,1.37,1
1046,19.95,30.07,4.77,1
1047,19.96,29.49,12.16,1
1048,19.97,28.99,7.15,1
1049,19.99,28.18,-9.52,1
1050,20.0,28.15,-12.99,1
1051,20.01,28.45,-1.32,1
1052,20.03,28.26,2.26,1
1053,20.04,21.15,-4.56,1
1054,20.05,8.72,-7.15,1
1055,20.07,8.87,-1.95,1
1056,20.08,22.07,8.76,1
1057,20.09,31.13,18.54,1
1058,20.11,31.8,17.2,1
1059,20.12,30.68,6.63,1
1060,20.13,28.5,-3.0,1
1061,20.15,21.03,-6.34,1
1062,20.16,15.63,-4.99,0
1063,20.17,21.61,-7.24,0
1064,20.19,28.07,-16.28,0
1065,20.2,13.33,-16.65,0
1066,20.21,-51.22,-4.88,0
1067,20.23,-175.21,-6.83,0
1068,20.24,-295.37,-27.97,0
1069,20.25,-336.01,-47.62,0
1070,20.26,-309.51,-57.5,0
1071,20.28,-265.35,-57.41,0
1072,20.29,-211.41,-48.07,0
1073,20.3,-141.93,-32.8,0
1074,20.32,-67.2,-14.79,0
1075,20.33,0.99,-3.62,0
1076,20.34,60.47,1.21,0
1077,20.36,112.33,13.77,0
1078,20.37,152.69,26.43,0
1079,20.38,179.59,23.02,0
1080,20.4,199.73,15.72,0
1081,20.41,217.34,17.89,0
1082,20.42,230.4,22.47,0
1083,20.44,234.6,25.36,0
1084,20.45,229.7,24.16,0
1085,20.46,220.91,15.38,0
1086,20.48,207.45,8.51,0
1087,20.49,190.01,12.3,0
1088,20.5,180.34,20.06,0
1089,20.52,176.89,17.01,0
1090,20.53,163.88,0.21,0
1091,20.54,142.82,-5.89,0
1092,20.56,129.42,14.0,1
1093,20.57,129.56,27.66,1
1094,20.59,134.94,12.12,1
1095,20.6,130.3,0.3,1
1096,20.61,109.4,13.86,1
1097,20.63,88.84,27.96,1
1098,20.64,86.19,22.71,1
1099,20.65,87.58,7.4,1
1100,20.67,71.44,-1.19,1
1101,20.68,44.94,-0.03,1
1102,20.69,24.11,1.46,1
1103,20.71,14.55,-2.33,1
1104,20.72,13.34,-5.92,1
1105,20.73,7.16,-4.13,1
1106,20.75,-11.17,0.9,1
1107,20.76,-29.9,5.37,1
1108,20.77,-37.49,2.76,1
1109,20.79,-37.16,-4.32,1
1110,20.8,-37.24,1.58,1
1111,20.81,-38.83,18.15,1
1112,20.83,-40.17,21.69,1
1113,20.84,-46.22,13.25,1
1114,20.85,-60.23,8.16,1
1115,20.87,-77.84,6.0,1
1116,20.88,-90.99,7.03,1
1117,20.89,-88.77,13.95,1
1118,20.9,-75.59,17.41,1
1119,20.92,-66.86,9.74,1
1120,20.93,-59.05,-0.67,1
1121,20.94,-52.07,-1.63,1
1122,20.96,-61.48,-0.27,1
1123,20.97,-80.63,-11.37,1
1124,20.98,-85.44,-24.23,1
1125,21.0,-71.99,-18.05,1
1126,21.01,-58.93,-1.22,1
1127,21.02,-59.09,2.57,1
1128,21.04,-68.91,-1.75,1
1129,21.05,-81.83,2.44,1
1130,21.06,-86.55,4.09,1
1131,21.08,-79.29,-5.95,1
1132,21.09,-74.43,-12.67,1
1133,21.1,-75.77,-11.07,1
1134,21.12,-73.44,-9.69,1
1135,21.13,-66.83,-10.81,1
1136,21.14,-60.34,-9.36,1
1137,21.16,-55.02,-1.03,1
1138,21.17,-54.57,4.38,1
1139,21.18,-60.22,-0.16,1
1140,21.2,-63.59,0.96,1
1141,21.21,-58.85,8.33,1
1142,21.23,-51.48,3.53,1
1143,21.24,-48.16,-3.7,1
1144,21.25,-48.5,1.27,1
1145,21.27,-50.02,2.27,1
1146,21.28,-50.44,-6.8,1
1147,21.29,-45.9,-13.41,1
1148,21.31,-40.69,-16.42,1
1149,21.32,-45.19,-15.88,1
1150,21.33,-51.64,-9.86,1
1151,21.35,-43.33,-8.83,1
1152,21.36,-29.01,-18.28,1
1153,21.37,-25.01,-24.53,1
1154,21.39,-24.15,-17.73,1
1155,21.4,-20.22,-8.15,1
1156,21.41,-19.76,-7.44,1
1157,21.43,-20.78,-15.83,1
1158,21.44,-26.31,-25.71,1
1159,21.45,-39.56,-25.16,1
1160,21.47,-36.22,-14.51,1
1161,21.48,-10.51,-5.76,1
1162,21.49,1.83,-2.3,1
1163,21.51,-8.84,-3.76,1
1164,21.52,-15.96,-5.97,1
1165,21.53,-12.46,1.39,1
1166,21.54,-11.96,8.12,1
1167,21.56,-13.65,-2.37,1
1168,21.57,-6.79,-17.48,1
1169,21.58,2.38,-19.59,1
1170,21.6,2.07,-9.07,1
1171,21.61,-0.82,5.3,1
1172,21.62,5.68,9.16,1
1173,21.64,18.72,3.16,1
1174,21.65,24.56,4.16,1
1175,21.67,15.97,9.4,1
1176,21.68,4.07,8.77,1
1177,21.69,2.57,7.62,1
1178,21.7,9.38,2.8,1
1179,21.72,15.86,-9.31,1
1180,21.73,18.63,-14.85,1
1181,21.75,16.33,-10.54,1
1182,21.76,10.8,-4.81,1
1183,21.77,9.46,0.51,1
1184,21.78,14.45,0.13,1
1185,21.8,21.39,-2.46,1
1186,21.81,26.74,4.13,1
1187,21.82,28.44,8.44,1
1188,21.84,28.98,1.46,1
1189,21.85,29.16,0.09,1
1190,21.865,25.23,8.89,1
1191,21.88,21.0,11.59,1
1192,21.89,24.04,7.06,1
1193,21.91,33.21,3.13,1
1194,21.92,37.25,0.37,1
1195,21.93,31.23,2.2,1
1196,21.95,29.78,5.78,1
1197,21.96,36.66,1.75,1
1198,21.97,35.27,0.8,1
1199,21.99,25.92,12.31,1
1200,22.0,19.32,20.83,1
1201,22.01,15.19,17.3,1
1202,22.03,13.66,11.5,1
1203,22.04,13.94,15.37,1
1204,22.05,13.47,24.93,1
1205,22.07,18.24,19.52,1
1206,22.08,27.95,2.75,1
1207,22.09,30.04,0.74,1
1208,22.11,23.54,7.76,1
1209,22.12,19.26,6.99,1
1210,22.13,23.24,8.7,1
1211,22.15,32.99,16.09,1
1212,22.16,32.63,16.31,2
1213,22.17,23.8,11.63,2
1214,22.18,66.69,18.04,2
1215,22.2,196.65,40.26,2
1216,22.21,335.37,57.06,2
1217,22.22,397.25,50.35,2
1218,22.24,388.89,35.12,2
1219,22.25,349.67,26.62,2
1220,22.26,300.76,12.24,2
1221,22.28,254.88,-11.64,2
1222,22.29,216.94,-20.57,2
1223,22.3,181.59,-8.87,2
1224,22.32,143.63,-5.06,2
1225,22.33,82.12,-23.04,2
1226,22.34,-41.71,-43.36,2
1227,22.36,-201.83,-45.2,2
1228,22.37,-303.25,-33.04,2
1229,22.38,-325.52,-24.5,2
1230,22.4,-332.64,-20.49,2
1231,22.41,-343.03,-16.95,2
1232,22.42,-330.65,-20.92,2
1233,22.44,-303.54,-26.58,2
1234,22.45,-282.11,-17.64,2
1235,22.46,-258.44,-1.82,2
1236,22.48,-231.04,-2.45,2
1237,22.49,-212.55,-18.12,2
1238,22.5,-198.22,-25.34,2
1239,22.52,-180.3,-17.33,2
1240,22.53,-162.23,-8.68,2
1241,22.55,-142.69,-7.29,1
1242,22.56,-117.63,-4.93,1
1243,22.57,-97.0,1.24,1
1244,22.59,-92.46,0.41,1
1245,22.6,-92.46,-5.8,1
1246,22.61,-80.45,-5.81,1
1247,22.63,-61.89,-1.34,1
1248,22.64,-43.48,3.43,1
1249,22.65,-23.22,4.48,1
1250,22.67,-12.16,-2.28,1
1251,22.68,-19.79,-4.87,1
1252,22.69,-30.47,3.2,1
1253,22.71,-24.95,6.2,1
1254,22.72,-7.28,-1.06,1
1255,22.73,8.55,-6.41,1
1256,22.75,19.41,-4.89,1
1257,22.76,24.59,-1.89,1
1258,22.77,22.82,-5.65,1
1259,22.79,24.37,-14.73,1
1260,22.8,38.47,-9.88,1
1261,22.81,55.31,10.3,1
1262,22.82,59.82,16.16,1
1263,22.84,54.96,0.41,1
1264,22.85,56.47,-10.05,1
1265,22.86,66.83,-1.23,1
1266,22.88,70.6,10.32,1
1267,22.89,63.01,8.72,1
1268,22.9,60.14,2.4,1
1269,22.92,68.46,5.52,1
1270,22.93,73.57,11.03,1
1271,22.94,71.18,6.52,1
1272,22.96,72.07,-1.47,1
1273,22.97,77.22,-0.89,1
1274,22.98,76.08,7.7,1
1275,23.0,69.0,14.51,1
1276,23.01,66.63,11.81,1
1277,23.02,66.79,4.05,1
1278,23.04,61.48,4.58,1
1279,23.05,58.19,12.46,1
1280,23.06,67.69,10.26,1
1281,23.08,81.65,-0.48,1
1282,23.09,83.35,-0.98,1
1283,23.1,74.08,4.13,1
1284,23.12,65.05,3.94,1
1285,23.13,56.12,4.98,1
1286,23.14,46.84,6.04,1
1287,23.16,46.64,-0.48,1
1288,23.17,59.95,-6.7,1
1289,23.19,69.75,-6.09,1
1290,23.2,61.13,-3.25,1
1291,23.21,45.7,-1.54,1
1292,23.23,33.13,-3.3,1
1293,23.24,23.95,-8.11,1
1294,23.25,31.73,-9.83,1
1295,23.27,48.96,-3.64,1
1296,23.28,43.77,8.56,1
1297,23.29,23.26,12.56,1
1298,23.31,23.36,-3.09,1
1299,23.32,41.36,-20.47,1
1300,23.33,42.57,-15.0,1
1301,23.35,22.28,3.02,1
1302,23.36,14.84,7.47,1
1303,23.37,28.2,-1.34,1
1304,23.39,28.01,-2.04,1
1305,23.4,7.46,10.81,1
1306,23.41,-2.85,21.97,1
1307,23.43,6.64,20.63,1
1308,23.44,19.44,12.04,1
1309,23.45,22.7,6.48,1
1310,23.46,15.6,4.82,1
1311,23.48,6.15,2.8,1
1312,23.49,-0.73,2.65,1
1313,23.5,-6.15,6.31,1
1314,23.52,-8.12,8.69,1
1315,23.53,-7.6,8.05,1
1316,23.54,-13.18,6.29,1
1317,23.56,-23.5,4.63,1
1318,23.57,-25.18,8.17,1
1319,23.58,-16.21,13.43,1
1320,23.6,-5.64,9.23,1
1321,23.61,2.43,2.2,1
1322,23.62,2.65,2.48,1
1323,23.64,-8.88,4.12,1
1324,23.65,-22.74,2.64,1
1325,23.67,-26.94,0.11,1
1326,23.68,-20.84,-0.47,1
1327,23.69,-15.4,4.4,1
1328,23.7,-18.5,9.03,1
1329,23.72,-23.16,6.27,1
1330,23.73,-25.67,0.72,1
1331,23.75,-29.93,-3.76,1
1332,23.76,-27.94,-6.44,1
1333,23.77,-20.19,-4.49,1
1334,23.78,-20.79,-4.47,1
1335,23.8,-24.66,-13.04,1
1336,23.81,-21.67,-16.54,1
1337,23.83,-20.11,-8.65,1
1338,23.84,-22.35,-6.34,1
1339,23.85,-21.07,-11.33,1
1340,23.87,-21.42,-9.62,1
1341,23.88,-26.75,-2.38,1
1342,23.89,-27.22,2.89,1
1343,23.91,-26.75,3.49,1
1344,23.92,-36.06,-0.22,1
1345,23.93,-41.71,-0.62,1
1346,23.95,-32.24,2.15,1
1347,23.96,-22.09,-4.11,1
1348,23.97,-20.12,-15.92,1
1349,23.99,-20.25,-14.62,1
1350,24.0,-23.86,0.48,1
1351,24.01,-30.48,8.55,1
1352,24.03,-33.94,2.73,1
1353,24.04,-39.73,-4.07,1
1354,24.05,-45.61,-5.71,1
1355,24.07,-36.21,-6.23,1
1356,24.08,-20.28,-5.67,1
1357,24.09,-18.37,-5.26,1
1358,24.1,-25.95,-8.15,1
1359,24.12,-27.47,-10.36,1
1360,24.13,-20.24,-5.74,1
1361,24.14,-15.08,3.37,1
1362,24.16,-15.14,15.42,1
1363,24.17,-6.95,61.75,1
1364,24.18,34.78,172.75,1
1365,24.2,141.05,289.98,1
1366,24.21,231.5,343.29,1
1367,24.22,82.89,355.53,1
1368,24.24,-297.93,348.02,1
1369,24.25,-530.05,303.1,1
1370,24.26,-429.19,244.66,1
1371,24.28,-265.08,205.42,1
1372,24.29,-269.66,174.9,1
1373,24.3,-312.32,138.39,1
1374,24.32,-171.06,102.38,1
1375,24.33,30.5,72.99,1
1376,24.34,76.78,45.99,1
1377,24.36,119.15,19.05,1
1378,24.37,254.95,-5.81,1
1379,24.38,280.12,-27.4,1
1380,24.4,144.61,-47.59,1
1381,24.41,25.26,-66.89,1
1382,24.42,56.89,-83.96,1
1383,24.44,215.25,-98.63,1
1384,24.45,306.62,-112.0,1
1385,24.46,143.98,-124.63,1
1386,24.48,-70.84,-135.56,1
1387,24.49,78.15,-144.71,1
1388,24.51,414.66,-153.2,1
1389,24.52,397.31,-160.81,1
1390,24.53,111.16,-166.44,1
1391,24.55,-16.33,-170.02,1
1392,24.56,-14.71,-187.65,1
1393,24.57,-61.36,-244.02,1
1394,24.59,-20.89,-294.63,1
1395,24.6,101.18,-306.59,1
1396,24.61,30.18,-387.7,1
1397,24.63,-80.57,-524.15,1
1398,24.64,18.67,-585.94,1
1399,24.65,11.32,-638.56,1
1400,24.67,-153.21,-613.36,1
1401,24.68,-91.77,-320.73,1
1402,24.69,92.79,-117.3,1
1403,24.71,147.38,-427.05,1
1404,24.72,156.56,-794.11,1
1405,24.73,117.7,-573.1,1
1406,24.75,-65.37,-79.81,1
1407,24.76,-204.98,28.12,1
1408,24.77,-80.47,-79.91,1
1409,24.78,110.0,-5.76,1
1410,24.8,116.32,52.9,1
1411,24.81,48.96,59.2,1
1412,24.82,-20.94,231.12,1
1413,24.84,-191.84,297.6,1
1414,24.85,-272.7,102.66,1
1415,24.86,-40.65,-27.9,1
1416,24.88,208.84,-46.24,1
1417,24.89,131.92,-33.94,1
1418,24.9,-113.16,157.94,1
1419,24.92,-197.41,302.11,1
1420,24.93,-106.34,33.45,1
1421,24.94,-14.81,-268.56,1
1422,24.96,27.93,-125.9,1
1423,24.97,14.51,250.66,1
1424,24.98,-63.81,473.36,1
1425,25.0,-122.0,419.5,1
1426,25.01,-79.5,217.45,1
1427,25.02,-3.25,45.73,1
1428,25.04,-47.0,-5.23,1
1429,25.05,-184.79,136.46,1
1430,25.06,-200.03,324.79,1
1431,25.08,-70.36,255.44,1
1432,25.09,-0.67,-15.92,1
1433,25.1,-11.96,-158.9,1
1434,25.12,49.77,-133.21,1
1435,25.13,161.9,-138.39,1
1436,25.15,174.0,-179.46,1
1437,25.16,88.36,-137.69,1
1438,25.17,25.59,-52.99,1
1439,25.19,6.52,-25.97,1
1440,25.2,-28.6,-24.28,1
1441,25.21,-68.29,18.48,1
1442,25.23,-66.01,54.69,1
1443,25.24,-46.13,30.73,1
1444,25.25,-47.77,12.23,1
1445,25.27,-50.59,68.92,1
1446,25.28,-31.18,156.34,1
1447,25.29,-10.83,210.45,1
1448,25.31,-10.66,245.48,1
1449,25.32,-20.78,287.66,1
1450,25.33,-22.18,325.38,1
1451,25.35,-11.47,350.61,1
1452,25.36,-2.16,366.03,1
1453,25.37,-4.92,369.11,1
1454,25.38,-11.08,362.98,1
1455,25.4,-10.0,352.18,1
1456,25.41,-4.06,334.67,1
1457,25.42,1.2,316.45,1
1458,25.44,2.8,308.8,1
1459,25.45,2.25,306.44,1
1460,25.46,8.12,299.69,1
1461,25.48,16.33,289.02,1
1462,25.49,10.26,273.77,1
1463,25.5,-5.18,252.84,1
1464,25.52,-9.26,230.33,1
1465,25.53,-2.98,207.64,1
1466,25.54,1.06,184.95,1
1467,25.56,4.93,166.38,1
1468,25.57,9.24,154.15,1
1469,25.58,10.4,144.87,1
1470,25.6,10.79,130.43,1
1471,25.61,10.84,110.55,1
1472,25.62,11.99,94.36,1
1473,25.64,18.4,81.28,1
1474,25.65,23.73,67.74,1
1475,25.67,18.43,57.51,1
1476,25.68,10.37,45.64,1
1477,25.69,11.77,30.0,1
1478,25.7,15.23,22.68,1
1479,25.72,12.05,18.45,1
1480,25.73,10.26,0.57,1
1481,25.75,12.76,-22.94,1
1482,25.76,14.66,-33.58,1
1483,25.77,14.95,-34.33,1
1484,25.79,14.23,-40.59,1
1485,25.8,15.64,-55.46,1
1486,25.81,15.28,-69.55,1
1487,25.83,6.32,-76.67,1
1488,25.84,1.93,-83.41,1
1489,25.85,10.8,-91.93,1
1490,25.87,15.51,-95.36,1
1491,25.88,10.1,-100.78,1
1492,25.89,7.63,-111.49,1
1493,25.91,10.18,-115.84,1
1494,25.92,14.83,-119.75,1
1495,25.93,21.68,-132.77,1
1496,25.95,23.69,-142.35,1
1497,25.96,19.01,-142.07,1
1498,25.97,16.68,-143.71,1
1499,25.99,17.09,-147.11,1
1500,26.0,16.48,-144.19,1
1501,26.01,15.12,-142.83,1
1502,26.02,11.02,-149.29,1
1503,26.04,5.52,-158.36,1
1504,26.05,4.28,-163.44,1
1505,26.06,9.41,-159.25,1
1506,26.08,16.28,-152.42,1
1507,26.09,18.34,-157.59,1
1508,26.1,16.72,-171.57,1
1509,26.12,17.33,-175.37,1
1510,26.13,18.8,-166.58,1
1511,26.14,18.79,-159.72,1
1512,26.16,18.81,-156.31,2
1513,26.17,13.29,-149.39,2
1514,26.18,4.39,-143.69,2
1515,26.2,14.66,-142.18,2
1516,26.21,66.34,-137.05,2
1517,26.22,163.79,-124.94,2
1518,26.24,282.87,-117.53,2
1519,26.25,373.93,-124.74,2
1520,26.26,388.23,-130.48,2
1521,26.28,320.04,-121.35,2
1522,26.29,226.63,-113.71,2
1523,26.3,157.56,-115.62,2
1524,26.32,94.47,-116.11,2
1525,26.33,14.61,-114.16,2
1526,26.34,-57.23,-112.1,2
1527,26.36,-93.21,-108.2,2
1528,26.37,-110.79,-104.42,2
1529,26.38,-141.18,-100.73,2
1530,26.4,-173.41,-93.86,2
1531,26.41,-184.89,-85.78,2
1532,26.43,-186.66,-81.55,2
1533,26.44,-191.48,-76.27,2
1534,26.45,-192.39,-63.0,2
1535,26.47,-189.4,-53.36,2
1536,26.48,-189.93,-57.46,2
1537,26.49,-184.45,-61.74,2
1538,26.51,-165.56,-53.63,2
1539,26.52,-151.4,-41.72,2
1540,26.53,-154.67,-33.72,2
1541,26.55,-163.56,-23.26,1
1542,26.56,-164.99,-15.72,1
1543,26.57,-156.43,-21.74,1
1544,26.59,-143.23,-22.94,1
1545,26.6,-130.38,-7.04,1
1546,26.61,-118.56,0.91,1
1547,26.63,-106.47,-6.58,1
1548,26.64,-89.5,-5.94,1
1549,26.65,-64.92,6.55,1
1550,26.67,-43.33,17.38,1
1551,26.68,-37.67,21.85,1
1552,26.69,-39.02,22.82,1
1553,26.7,-29.98,26.15,1
1554,26.72,-18.51,28.92,1
1555,26.73,-20.29,24.63,1
1556,26.75,-22.58,20.95,1
1557,26.76,-8.92,23.3,1
1558,26.77,7.22,27.66,1
1559,26.78,11.19,35.73,1
1560,26.8,14.8,43.07,1
1561,26.81,24.9,37.98,1
1562,26.82,25.37,32.53,1
1563,26.84,12.68,44.35,1
1564,26.85,9.83,56.31,1
1565,26.86,30.48,51.23,1
1566,26.88,51.3,40.94,1
1567,26.89,48.16,38.74,1
1568,26.9,40.2,48.99,1
1569,26.92,47.38,62.75,1
1570,26.93,52.54,61.44,1
1571,26.94,44.07,48.82,1
1572,26.96,39.81,46.69,1
1573,26.97,47.34,59.16,1
1574,26.98,54.27,69.94,1
1575,27.0,55.39,66.87,1
1576,27.01,55.54,53.38,1
1577,27.02,56.77,42.19,1
1578,27.04,60.62,40.04,1
1579,27.05,65.15,42.92,1
1580,27.065,66.43,51.36,1
1581,27.08,66.96,65.04,1
1582,27.09,67.29,67.78,1
1583,27.11,62.34,57.92,1
1584,27.12,54.05,54.03,1
1585,27.13,48.56,53.16,1
1586,27.15,49.64,42.43,1
1587,27.16,58.17,32.11,1
1588,27.17,67.71,35.79,1
1589,27.19,68.43,47.6,1
1590,27.2,57.76,52.62,1
1591,27.21,41.38,49.22,1
1592,27.23,31.87,48.81,1
1593,27.24,35.25,51.45,1
1594,27.25,41.56,49.07,1
1595,27.27,44.04,45.56,1
1596,27.28,48.24,44.13,1
1597,27.29,49.48,42.48,1
1598,27.3,41.34,44.47,1
1599,27.32,35.32,46.51,1
1600,27.33,32.55,42.06,1
1601,27.34,22.93,38.35,1
1602,27.36,14.31,40.18,1
1603,27.37,16.62,42.14,1
1604,27.38,17.9,42.43,1
1605,27.4,10.1,38.83,1
1606,27.41,6.68,26.02,1
1607,27.42,13.39,12.85,1
1608,27.44,22.49,15.38,1
1609,27.45,28.87,28.33,1
1610,27.46,23.97,32.75,1
1611,27.48,8.8,26.34,1
1612,27.49,0.24,20.35,1
1613,27.5,1.72,17.27,1
1614,27.52,5.32,11.72,1
1615,27.53,10.35,7.0,1
1616,27.54,13.46,10.32,1
1617,27.56,12.83,14.41,1
1618,27.57,11.6,11.75,1
1619,27.58,6.45,9.81,1
1620,27.6,-3.4,10.46,1
1621,27.61,-9.37,7.31,1
1622,27.62,-4.96,3.65,1
1623,27.64,5.73,3.5,1
1624,27.65,9.49,0.43,1
1625,27.67,1.68,-4.57,1
1626,27.68,-6.52,-2.95,1
1627,27.69,-8.27,-0.16,1
1628,27.7,-10.04,-0.42,1
1629,27.72,-15.12,0.61,1
1630,27.73,-15.14,0.02,1
1631,27.75,-9.76,-1.63,1
1632,27.76,-11.84,0.43,1
1633,27.77,-20.64,-1.13,1
1634,27.79,-24.39,-7.7,1
1635,27.8,-24.89,-9.84,1
1636,27.81,-25.9,-8.5,1
1637,27.83,-19.76,-8.5,1
1638,27.84,-10.65,-7.68,1
1639,27.85,-11.93,-7.88,1
1640,27.87,-18.56,-6.8,1
1641,27.88,-20.82,0.28,1
1642,27.89,-22.36,1.09,1
1643,27.91,-27.62,-7.76,1
1644,27.92,-36.88,-10.45,1
1645,27.93,-39.12,-9.78,1
1646,27.94,-23.59,-16.21,1
1647,27.96,-7.75,-22.48,1
1648,27.97,-10.31,-23.08,1
1649,27.98,-19.16,-18.57,1
1650,28.0,-19.29,-12.0,1
1651,28.01,-16.7,-14.54,1
1652,28.02,-18.72,-24.1,1
1653,28.04,-24.52,-21.17,1
1654,28.05,-34.1,-6.5,1
1655,28.06,-39.7,-0.76,1
1656,28.08,-30.38,-10.34,1
1657,28.09,-17.97,-20.67,1
1658,28.1,-19.07,-14.68,1
1659,28.12,-26.51,1.11,1
1660,28.13,-26.23,2.12,1
1661,28.14,-17.86,-10.66,1
1662,28.16,-11.96,-11.68,0
1663,28.17,-14.76,-1.91,0
1664,28.18,-19.5,-5.13,0
1665,28.2,-17.79,-19.64,0
1666,28.21,-10.59,-22.11,0
1667,28.22,-6.41,-13.85,0
1668,28.24,-27.04,-17.93,0
1669,28.25,-100.83,-29.28,0
1670,28.26,-219.24,-21.64,0
1671,28.28,-327.32,-7.43,0
1672,28.29,-380.05,-15.68,0
1673,28.3,-374.88,-27.91,0
1674,28.32,-332.65,-18.83,0
1675,28.33,-280.32,-10.2,0
1676,28.34,-236.57,-23.82,0
1677,28.36,-201.08,-40.83,0
1678,28.37,-165.32,-38.88,0
1679,28.39,-111.53,-25.41,0
1680,28.4,0.08,-13.87,0
1681,28.41,168.87,-6.3,0
1682,28.43,301.95,-2.07,0
1683,28.44,334.89,-0.91,0
1684,28.45,327.54,-3.69,0
1685,28.47,340.19,-4.16,0
1686,28.48,344.88,3.19,0
1687,28.49,312.94,5.91,0
1688,28.51,269.91,-0.78,0
1689,28.52,244.11,-2.92,0
1690,28.53,231.87,-1.14,0
1691,28.55,218.6,-4.59,1
1692,28.56,202.41,-6.68,1
1693,28.57,185.33,-5.21,1
1694,28.58,160.38,-3.92,1
1695,28.6,127.28,3.11,1
1696,28.61,105.04,10.29,1
1697,28.62,100.79,4.84,1
1698,28.64,99.04,-4.26,1
1699,28.65,90.0,-7.42,1
1700,28.67,77.1,-9.68,1
1701,28.68,66.98,-9.23,1
1702,28.69,58.03,-2.73,1
1703,28.7,43.23,1.6,1
1704,28.72,29.75,3.14,1
1705,28.73,24.8,8.2,1
1706,28.75,19.25,9.75,1
1707,28.76,9.63,2.78,1
1708,28.77,0.02,-4.49,1
1709,28.78,-12.5,-9.2,1
1710,28.8,-25.35,-9.8,1
1711,28.81,-31.94,-4.32,1
1712,28.82,-34.97,-3.13,1
1713,28.84,-33.68,-7.06,1
1714,28.85,-28.48,-1.96,1
1715,28.86,-33.33,7.77,1
1716,28.88,-45.91,5.84,1
1717,28.89,-51.18,-5.31,1
1718,28.9,-55.84,-8.46,1
1719,28.92,-64.49,1.57,1
1720,28.93,-63.25,5.17,1
1721,28.94,-52.4,-6.33,1
1722,28.96,-50.71,-10.05,1
1723,28.97,-65.13,-0.31,1
1724,28.98,-80.53,6.39,1
1725,29.0,-81.9,9.74,1
1726,29.01,-71.35,9.68,1
1727,29.03,-61.11,3.47,1
1728,29.04,-59.82,2.8,1
1729,29.05,-65.98,5.79,1
1730,29.07,-73.01,0.07,1
1731,29.08,-72.82,-4.57,1
1732,29.09,-62.13,4.36,1
1733,29.11,-55.23,16.51,1
1734,29.12,-62.37,15.75,1
1735,29.13,-66.11,4.04,1
1736,29.15,-60.69,-3.6,1
1737,29.16,-63.9,-1.18,1
1738,29.17,-68.62,1.46,1
1739,29.19,-58.76,-1.31,1
1740,29.2,-51.47,-0.78,1
1741,29.21,-59.62,4.16,1
1742,29.22,-65.0,2.99,1
1743,29.24,-56.26,-0.38,1
1744,29.25,-44.51,4.07,1
1745,29.26,-38.72,8.28,1
1746,29.28,-36.82,1.69,1
1747,29.29,-37.55,-9.4,1
1748,29.3,-44.0,-11.37,1
1749,29.32,-48.7,0.55,1
1750,29.33,-35.69,14.91,1
1751,29.34,-13.95,16.95,1
1752,29.36,-11.28,9.59,1
1753,29.37,-29.02,4.94,1
1754,29.38,-41.56,3.81,1
1755,29.4,-35.92,4.68,1
1756,29.41,-23.63,7.06,1
1757,29.42,-17.87,4.43,1
1758,29.44,-21.18,-2.28,1
1759,29.45,-26.29,-5.9,1
1760,29.46,-23.11,-7.56,1
1761,29.48,-15.26,-6.66,1
1762,29.49,-11.47,-0.8,1
1763,29.5,-5.29,3.25,1
1764,29.52,5.69,2.33,1
1765,29.53,9.06,1.31,1
1766,29.54,1.72,0.47,1
1767,29.56,-6.67,-0.59,1
1768,29.57,-10.52,1.45,1
1769,29.58,-6.99,6.11,1
1770,29.6,1.7,8.45,1
1771,29.61,8.09,0.59,1
1772,29.62,11.23,-11.66,1
1773,29.64,16.12,-6.14,1
1774,29.65,24.08,11.95,1
1775,29.67,27.84,14.08,1
1776,29.68,18.29,2.93,1
1777,29.69,3.75,-2.09,1
1778,29.71,1.19,-3.68,1
1779,29.72,10.4,-4.72,1
1780,29.73,19.61,1.13,1
1781,29.75,19.72,5.71,1
1782,29.76,15.6,3.48,1
1783,29.77,21.6,3.87,1
1784,29.79,27.72,6.22,1
1785,29.8,18.29,5.7,1
1786,29.81,11.93,6.15,1
1787,29.83,20.32,6.05,1
1788,29.84,23.03,3.25,1
1789,29.85,11.62,0.91,1
1790,29.86,5.53,-2.42,1
1791,29.88,16.81,-2.84,1
1792,29.89,30.72,3.73,1
1793,29.9,32.74,5.0,1
1794,29.92,25.36,-1.53,1
1795,29.93,18.07,-0.07,1
1796,29.94,20.21,10.62,1
1797,29.96,29.98,15.13,1
1798,29.97,37.8,5.97,1
1799,29.98,39.1,-5.89,1
1800,30.0,35.47,-8.47,1
1801,30.01,32.37,-3.99,1
1802,30.02,27.18,0.74,1
1803,30.04,13.5,2.79,1
1804,30.05,-0.09,1.55,1
1805,30.06,-2.73,-1.59,1
1806,30.08,4.68,-3.32,1
1807,30.09,14.85,-3.61,1
1808,30.1,20.51,-5.2,1
1809,30.12,23.26,-4.45,1
1810,30.13,25.11,-1.75,1
1811,30.14,20.2,-1.69,1
1812,30.16,15.09,2.06,0
1813,30.17,12.65,6.22,0
1814,30.18,-21.4,-2.17,0
1815,30.2,-111.87,-9.98,0
1816,30.21,-227.37,-3.97,0
1817,30.22,-317.42,-5.26,0
1818,30.24,-344.17,-23.13,0
1819,30.25,-297.74,-35.35,0
1820,30.26,-217.06,-32.5,0
1821,30.28,-148.3,-19.94,0
1822,30.29,-91.34,-2.36,0
1823,30.3,-27.71,9.38,0
1824,30.32,33.69,13.06,0
1825,30.33,73.84,18.22,0
1826,30.35,102.99,21.86,0
1827,30.36,143.64,16.02,0
1828,30.37,185.94,6.11,0
1829,30.39,201.41,-2.64,0
1830,30.4,193.15,-8.7,0
1831,30.41,192.52,-6.85,0
1832,30.43,209.54,0.88,0
1833,30.44,227.71,6.75,0
1834,30.45,235.35,6.67,0
1835,30.47,227.28,-0.02,0
1836,30.48,207.41,-3.75,0
1837,30.49,187.82,1.04,0
1838,30.5,172.05,4.56,0
1839,30.52,166.97,4.67,0
1840,30.53,175.75,4.67,0
1841,30.54,170.66,0.72,0
1842,30.56,138.66,0.03,1
1843,30.57,114.57,12.82,1
1844,30.58,111.81,23.64,1
1845,30.6,101.35,16.83,1
1846,30.61,80.74,4.83,1
1847,30.62,71.46,0.68,1
1848,30.64,66.87,6.28,1
1849,30.65,50.64,18.15,1
1850,30.67,27.65,20.0,1
1851,30.68,5.17,12.96,1
1852,30.69,-20.38,14.07,1
1853,30.7,-39.54,12.67,1
1854,30.72,-32.41,1.25,1
1855,30.73,-8.66,-1.34,1
1856,30.75,-0.9,3.83,1
1857,30.76,-13.94,-0.49,1
1858,30.77,-24.51,-8.43,1
1859,30.78,-23.33,-8.41,1
1860,30.8,-21.5,-7.28,1
1861,30.81,-28.15,-10.25,1
1862,30.82,-40.68,-10.98,1
1863,30.84,-49.41,-2.52,1
1864,30.85,-48.03,9.71,1
1865,30.86,-40.66,8.71,1
1866,30.88,-39.43,-3.9,1
1867,30.89,-50.23,-9.24,1
1868,30.9,-65.36,-5.49,1
1869,30.92,-77.34,0.48,1
1870,30.93,-84.98,7.8,1
1871,30.94,-85.59,7.49,1
1872,30.96,-79.47,-3.59,1
1873,30.97,-74.24,-10.63,1
1874,30.99,-77.16,-9.6,1
1875,31.0,-82.5,-7.85,1
1876,31.01,-77.55,-4.04,1
1877,31.03,-69.75,-0.9,1
1878,31.04,-72.06,-1.01,1
1879,31.05,-76.65,0.05,1
1880,31.07,-74.69,-2.58,1
1881,31.08,-70.0,-8.64,1
1882,31.09,-68.26,-8.21,1
1883,31.11,-74.59,-6.88,1
1884,31.12,-82.16,-10.31,1
1885,31.13,-77.6,-9.5,1
1886,31.14,-67.7,-0.8,1
1887,31.16,-66.43,4.32,1
1888,31.17,-67.63,-5.68,1
1889,31.18,-63.36,-17.05,1
1890,31.2,-58.51,-7.54,1
1891,31.21,-55.45,7.94,1
1892,31.22,-55.14,2.95,1
1893,31.24,-55.65,-8.21,1
1894,31.25,-48.05,-2.81,1
1895,31.26,-36.98,5.4,1
1896,31.28,-39.02,0.56,1
1897,31.29,-51.42,-7.17,1
1898,31.3,-54.55,-9.08,1
1899,31.32,-46.07,-6.77,1
1900,31.33,-40.21,-4.06,1
1901,31.34,-42.04,-6.74,1
1902,31.36,-44.19,-8.77,1
1903,31.37,-41.03,-1.06,1
1904,31.38,-34.71,4.78,1
1905,31.4,-27.86,-1.05,1
1906,31.41,-22.82,-6.03,1
1907,31.42,-22.26,-2.9,1
1908,31.44,-22.46,-1.23,1
1909,31.45,-21.15,-3.74,1
1910,31.46,-19.88,-4.98,1
1911,31.48,-14.48,-4.24,1
1912,31.49,-6.65,-0.39,1
1913,31.5,-8.26,4.07,1
1914,31.52,-16.26,1.29,1
1915,31.53,-14.97,-4.97,1
1916,31.54,-7.89,-3.78,1
1917,31.56,-6.57,2.22,1
1918,31.57,-3.34,2.81,1
1919,31.58,5.28,-5.77,1
1920,31.6,7.76,-14.83,1
1921,31.61,7.22,-11.87,1
1922,31.63,13.42,-2.69,1
1923,31.64,16.49,-1.67,1
1924,31.65,11.35,-9.46,1
1925,31.67,10.76,-13.08,1
1926,31.68,16.59,-1.95,1
1927,31.69,20.56,10.13,1
1928,31.71,22.08,5.6,1
1929,31.72,21.49,1.82,1
1930,31.73,17.34,11.87,1
1931,31.75,14.0,12.54,1
1932,31.76,16.2,-5.28,1
1933,31.77,20.78,-18.98,1
1934,31.78,22.06,-18.19,1
1935,31.8,21.73,-11.83,1
1936,31.81,26.26,-4.78,1
1937,31.82,34.73,0.88,1
1938,31.84,38.09,1.53,1
1939,31.85,34.87,1.9,1
1940,31.86,30.84,5.19,1
1941,31.88,26.01,2.5,1
1942,31.89,19.03,-3.99,1
1943,31.9,15.35,-3.05,1
1944,31.92,23.86,0.67,1
1945,31.93,40.19,2.31,1
1946,31.94,45.16,12.46,1
1947,31.96,33.35,27.37,1
1948,31.97,19.3,23.81,1
1949,31.98,14.75,4.84,1
1950,32.0,22.46,-2.49,1
1951,32.01,33.5,4.23,1
1952,32.03,31.23,7.63,1
1953,32.04,18.19,8.11,1
1954,32.05,11.65,14.58,1
1955,32.06,16.38,15.52,1
1956,32.08,25.03,1.72,1
1957,32.09,31.44,-6.16,1
1958,32.11,31.91,2.93,1
1959,32.12,25.33,10.73,1
1960,32.13,16.11,8.72,1
1961,32.15,12.66,5.31,1
1962,32.16,15.43,8.0,2
1963,32.17,25.62,22.09,2
1964,32.19,84.35,38.9,2
1965,32.2,219.92,42.19,2
1966,32.21,358.51,36.18,2
1967,32.22,412.16,27.41,2
1968,32.24,391.2,13.96,2
1969,32.25,348.01,8.62,2
1970,32.27,303.91,16.86,2
1971,32.28,259.72,16.45,2
1972,32.29,218.13,1.86,2
1973,32.31,180.74,-8.59,2
1974,32.32,132.74,-16.03,2
1975,32.33,35.55,-25.95,2
1976,32.35,-122.1,-24.47,2
1977,32.36,-268.05,-15.01,2
1978,32.37,-325.86,-20.08,2
1979,32.39,-319.67,-33.85,2
1980,32.4,-317.03,-31.52,2
1981,32.41,-326.04,-16.93,2
1982,32.43,-318.79,-13.72,2
1983,32.44,-294.24,-19.31,2
1984,32.45,-271.09,-16.53,2
1985,32.47,-254.11,-12.6,2
1986,32.48,-232.02,-18.1,2
1987,32.49,-206.08,-18.94,2
1988,32.51,-188.07,-5.43,2
1989,32.52,-174.79,4.61,2
1990,32.53,-157.14,-1.61,2
1991,32.54,-136.31,-8.85,2
1992,32.56,-115.11,-6.95,1
1993,32.57,-97.68,-3.44,1
1994,32.59,-88.29,2.04,1
1995,32.6,-77.22,10.46,1
1996,32.61,-56.98,9.46,1
1997,32.63,-41.64,-3.88,1
1998,32.64,-35.57,-14.05,1
1999,32.65,-21.04,-8.85,1
2000,32.67,-1.03,0.14,1
2001,32.68,2.45,-3.49,1
2002,32.69,-4.14,-9.94,1
2003,32.71,0.51,-3.98,1
2004,32.72,11.92,4.83,1
2005,32.73,17.89,5.64,1
2006,32.75,24.03,2.42,1
2007,32.76,33.78,-3.9,1
2008,32.77,39.46,-11.23,1
2009,32.79,40.61,-10.95,1
2010,32.8,45.99,-6.62,1
2011,32.81,51.26,-7.38,1
2012,32.83,43.34,-8.98,1
2013,32.84,31.43,-5.33,1
2014,32.85,33.27,1.78,1
2015,32.87,47.58,4.86,1
2016,32.88,63.41,-1.86,1
2017,32.89,68.51,-5.98,1
2018,32.9,59.68,3.37,1
2019,32.92,55.33,11.86,1
2020,32.93,62.99,8.8,1
2021,32.95,65.03,-0.31,1
2022,32.96,62.53,-7.71,1
2023,32.97,66.48,-3.39,1
2024,32.99,68.16,11.08,1
2025,33.0,64.32,19.24,1
2026,33.01,57.87,16.99,1
2027,33.03,48.1,12.57,1
2028,33.04,48.84,9.32,1
2029,33.05,69.71,9.43,1
2030,33.06,88.42,11.28,1
2031,33.08,84.52,5.48,1
2032,33.09,68.38,-3.11,1
2033,33.11,58.08,1.69,1
2034,33.12,55.96,10.9,1
2035,33.13,51.31,4.87,1
2036,33.15,43.71,-3.79,1
2037,33.16,47.4,2.82,1
2038,33.17,59.05,10.16,1
2039,33.19,56.05,4.53,1
2040,33.2,41.98,0.76,1
2041,33.21,40.2,5.61,1
2042,33.22,45.6,3.95,1
2043,33.24,40.59,-5.23,1
2044,33.25,33.8,-6.58,1
2045,33.27,34.09,0.43,1
2046,33.28,30.41,4.63,1
2047,33.29,20.0,4.47,1
2048,33.31,17.72,5.0,1
2049,33.32,25.33,10.32,1
2050,33.33,26.65,19.52,1
2051,33.35,19.42,19.74,1
2052,33.36,16.6,4.49,1
2053,33.37,20.78,-6.96,1
2054,33.38,20.28,-1.86,1
2055,33.4,11.12,0.37,1
2056,33.41,4.09,-6.4,1
2057,33.43,3.64,0.95,1
2058,33.44,4.73,15.5,1
2059,33.45,8.37,9.96,1
2060,33.47,16.2,-4.67,1
2061,33.48,16.7,-7.54,1
2062,33.49,5.78,-1.99,1
2063,33.51,-4.88,3.7,1
2064,33.52,-10.92,4.9,1
2065,33.53,-14.01,5.61,1
2066,33.54,-14.54,8.42,1
2067,33.56,-11.38,3.38,1
2068,33.57,-3.69,-3.51,1
2069,33.59,-5.3,-0.63,1
2070,33.6,-20.63,3.8,1
2071,33.61,-23.64,3.8,1
2072,33.63,-12.58,1.85,1
2073,33.64,-10.59,-0.78,1
2074,33.65,-13.86,-1.34,1
2075,33.67,-11.91,-1.4,1
2076,33.68,-12.82,-1.65,1
2077,33.69,-19.67,4.11,1
2078,33.71,-23.06,10.68,1
2079,33.72,-21.56,4.76,1
2080,33.73,-21.68,-5.68,1
2081,33.75,-20.9,-1.48,1
2082,33.76,-14.85,10.63,1
2083,33.77,-9.14,8.51,1
2084,33.79,-12.54,-6.75,1
2085,33.8,-23.43,-15.91,1
2086,33.81,-28.76,-12.98,1
2087,33.83,-25.28,-8.43,1
2088,33.84,-24.21,-8.06,1
2089,33.85,-32.0,-4.69,1
2090,33.87,-42.13,2.17,1
2091,33.88,-41.21,-1.61,1
2092,33.89,-25.38,-12.96,1
2093,33.9,-8.73,-11.57,1
2094,33.92,-8.65,-2.73,1
2095,33.93,-22.05,-3.94,1
2096,33.95,-27.35,-8.61,1
2097,33.96,-22.68,-8.93,1
2098,33.97,-23.93,-8.16,1
2099,33.99,-26.29,-6.31,1
2100,34.0,-23.47,-8.75,1
2101,34.01,-25.63,-16.16,1
2102,34.03,-30.06,-14.39,1
2103,34.04,-30.58,-3.51,1
2104,34.05,-34.9,0.78,1
2105,34.06,-40.19,-0.77,1
2106,34.08,-36.99,1.28,1
2107,34.09,-27.49,10.34,1
2108,34.11,-15.54,20.78,1
2109,34.12,-7.61,25.31,1
2110,34.13,-10.17,78.4,1
2111,34.15,-14.88,255.42,1
2112,34.16,35.14,448.18,1
2113,34.17,118.95,456.63,1
2114,34.19,1.22,329.27,1
2115,34.2,-296.68,257.87,1
2116,34.21,-402.61,253.02,1
2117,34.23,-312.5,222.34,1
2118,34.24,-238.61,167.46,1
2119,34.25,-188.72,131.54,1
2120,34.27,-178.53,108.75,1
2121,34.28,-159.09,78.67,1
2122,34.29,-53.84,45.98,1
2123,34.31,34.44,19.27,1
2124,34.32,39.02,-3.65,1
2125,34.33,76.72,-25.86,1
2126,34.35,219.64,-46.32,1
2127,34.36,305.06,-64.98,1
2128,34.37,250.13,-82.03,1
2129,34.38,213.1,-97.18,1
2130,34.4,205.49,-110.72,1
2131,34.41,175.63,-123.53,1
2132,34.43,249.84,-135.08,1
2133,34.44,387.5,-144.78,1
2134,34.45,362.17,-153.09,1
2135,34.47,142.96,-160.41,1
2136,34.48,-102.02,-166.04,1
2137,34.49,-210.36,-170.14,1
2138,34.51,-125.59,-192.88,1
2139,34.52,85.55,-249.55,1
2140,34.53,263.95,-287.94,1
2141,34.54,291.65,-278.91,1
2142,34.56,202.09,-300.21,1
2143,34.57,93.46,-419.84,1
2144,34.59,30.6,-584.65,1
2145,34.6,44.02,-649.02,1
2146,34.61,20.54,-556.18,1
2147,34.63,-177.37,-462.91,1
2148,34.64,-324.9,-469.79,1
2149,34.65,-173.39,-379.72,1
2150,34.67,47.6,-110.66,1
2151,34.68,56.59,41.09,1
2152,34.69,-53.37,-119.47,1
2153,34.71,-129.8,-363.82,1
2154,34.72,-192.45,-320.15,1
2155,34.73,-114.17,-43.36,1
2156,34.75,188.09,85.64,1
2157,34.76,291.96,116.88,1
2158,34.77,-5.45,207.43,1
2159,34.79,-203.01,73.36,1
2160,34.8,-54.73,-172.25,1
2161,34.81,87.92,-71.34,1
2162,34.83,33.69,81.89,1
2163,34.84,-97.77,-81.08,1
2164,34.85,-189.97,-167.9,1
2165,34.87,-129.67,88.98,1
2166,34.88,29.11,348.2,1
2167,34.89,10.46,311.68,1
2168,34.91,-206.07,128.02,1
2169,34.92,-292.16,55.61,1
2170,34.93,-115.67,70.72,1
2171,34.95,18.65,33.94,1
2172,34.96,-112.94,-40.18,1
2173,34.97,-271.1,-91.98,1
2174,34.99,-232.07,-134.76,1
2175,35.0,-127.67,-160.43,1
2176,35.01,-93.66,-130.91,1
2177,35.03,-105.65,-82.87,1
2178,35.04,-161.77,-74.29,1
2179,35.05,-243.84,-70.37,1
2180,35.06,-237.17,-26.48,1
2181,35.08,-111.17,19.55,1
2182,35.09,14.31,47.5,1
2183,35.11,64.05,86.21,1
2184,35.12,84.58,112.8,1
2185,35.13,115.97,108.46,1
2186,35.15,138.75,128.91,1
2187,35.16,139.81,190.38,1
2188,35.17,128.97,242.12,1
2189,35.19,104.95,270.23,1
2190,35.2,62.68,293.13,1
2191,35.21,25.68,314.3,1
2192,35.22,30.21,340.9,1
2193,35.24,65.87,371.98,1
2194,35.25,91.78,387.78,1
2195,35.27,104.3,393.52,1
2196,35.28,110.54,400.35,1
2197,35.29,98.86,388.98,1
2198,35.31,78.55,361.99,1
2199,35.32,66.39,348.07,1
2200,35.33,62.2,342.4,1
2201,35.35,66.6,327.75,1
2202,35.36,72.27,307.75,1
2203,35.37,66.49,292.9,1
2204,35.38,57.95,290.27,1
2205,35.4,55.52,291.38,1
2206,35.41,52.0,277.81,1
2207,35.43,43.06,248.16,1
2208,35.44,38.47,217.78,1
2209,35.45,55.71,199.78,1
2210,35.47,76.54,189.4,1
2211,35.48,62.13,169.47,1
2212,35.49,34.02,144.03,1
2213,35.51,29.97,130.77,1
2214,35.52,28.11,121.85,1
2215,35.53,11.6,106.41,1
2216,35.55,1.74,96.69,1
2217,35.56,0.3,89.79,1
2218,35.57,-5.23,67.45,1
2219,35.59,-8.07,39.99,1
2220,35.6,-2.97,24.4,1
2221,35.61,4.64,14.91,1
2222,35.63,7.97,5.77,1
2223,35.64,0.25,-4.6,1
2224,35.65,-11.54,-16.6,1
2225,35.67,-13.08,-27.13,1
2226,35.68,-7.39,-43.06,1
2227,35.69,-4.34,-66.85,1
2228,35.71,-3.02,-80.22,1
2229,35.72,-0.46,-81.23,1
2230,35.73,1.43,-89.34,1
2231,35.75,0.1,-98.99,1
2232,35.76,-4.53,-95.86,1
2233,35.77,-8.48,-92.25,1
2234,35.79,-7.17,-96.44,1
2235,35.8,-4.85,-104.74,1
2236,35.81,-5.22,-119.82,1
2237,35.83,-5.48,-133.43,1
2238,35.84,-6.54,-134.88,1
2239,35.85,-9.51,-132.31,1
2240,35.87,-8.91,-134.6,1
2241,35.88,-3.82,-138.74,1
2242,35.89,2.25,-141.85,1
2243,35.9,6.95,-146.5,1
2244,35.92,5.17,-155.48,1
2245,35.93,-4.0,-166.56,1
2246,35.95,-13.28,-169.74,1
2247,35.96,-18.95,-163.43,1
2248,35.97,-20.15,-162.0,1
2249,35.99,-15.01,-163.68,1
2250,36.0,-7.24,-154.73,1
2251,36.01,-6.74,-144.57,1
2252,36.03,-13.64,-145.26,1
2253,36.04,-17.4,-151.48,1
2254,36.05,-17.92,-155.91,1
2255,36.06,-22.8,-156.38,1
2256,36.08,-26.84,-155.02,1
2257,36.09,-22.27,-150.65,1
2258,36.11,-13.67,-138.91,1
2259,36.12,-9.06,-125.78,1
2260,36.13,-8.67,-121.7,1
2261,36.15,1.69,-122.98,1
2262,36.16,48.91,-113.42,2
2263,36.17,149.45,-91.09,2
2264,36.19,277.49,-82.45,2
2265,36.2,368.83,-103.77,2
2266,36.21,376.54,-127.71,2
2267,36.23,314.67,-131.84,2
2268,36.24,231.25,-133.2,2
2269,36.25,158.97,-140.25,2
2270,36.27,97.58,-136.58,2
2271,36.28,29.42,-121.09,2
2272,36.29,-43.72,-113.27,2
2273,36.31,-100.62,-115.05,2
2274,36.32,-136.83,-108.47,2
2275,36.33,-164.45,-95.87,2
2276,36.35,-185.75,-89.21,2
2277,36.36,-196.95,-80.68,2
2278,36.37,-205.83,-69.44,2
2279,36.38,-218.49,-68.29,2
2280,36.4,-220.09,-69.55,2
2281,36.41,-205.71,-59.46,2
2282,36.43,-195.56,-46.15,2
2283,36.44,-199.41,-34.1,2
2284,36.45,-204.44,-18.55,2
2285,36.47,-198.81,-12.23,2
2286,36.48,-184.14,-17.94,2
2287,36.49,-167.9,-10.9,2
2288,36.51,-152.74,8.84,2
2289,36.52,-137.66,12.36,2
2290,36.53,-120.02,0.79,2
2291,36.54,-102.52,-0.3,2
2292,36.56,-92.6,8.86,1
2293,36.57,-87.63,10.8,1
2294,36.59,-75.1,4.48,1
2295,36.6,-55.64,0.14,1
2296,36.61,-42.79,4.55,1
2297,36.63,-40.09,18.93,1
2298,36.64,-36.3,33.58,1
2299,36.65,-22.81,33.32,1
2300,36.67,-8.89,23.06,1
2301,36.68,-3.44,22.69,1
2302,36.69,2.07,31.46,1
2303,36.71,11.85,34.09,1
2304,36.72,18.52,32.47,1
2305,36.73,19.92,39.96,1
2306,36.75,20.41,52.46,1
2307,36.76,22.65,52.14,1
2308,36.77,25.69,39.56,1
2309,36.79,30.5,33.09,1
2310,36.8,35.21,42.64,1
2311,36.81,34.74,55.77,1
2312,36.83,30.97,53.88,1
2313,36.84,32.17,43.75,1
2314,36.85,42.28,46.96,1
2315,36.87,56.66,60.76,1
2316,36.88,67.4,62.72,1
2317,36.89,66.2,51.96,1
2318,36.9,56.77,49.58,1
2319,36.92,58.77,57.33,1
2320,36.93,74.83,56.66,1
2321,36.95,78.11,46.75,1
2322,36.96,60.65,41.41,1
2323,36.97,50.34,46.45,1
2324,36.99,57.01,59.64,1
2325,37.0,62.1,68.74,1
2326,37.01,62.48,62.15,1
2327,37.03,65.99,51.79,1
2328,37.04,67.65,49.63,1
2329,37.05,66.49,45.56,1
2330,37.06,70.09,38.74,1
2331,37.08,75.49,41.15,1
2332,37.09,72.5,47.52,1
2333,37.11,62.04,49.35,1
2334,37.12,53.88,54.63,1
2335,37.13,54.13,65.92,1
2336,37.15,59.93,69.37,1
2337,37.16,61.26,62.14,1
2338,37.17,53.29,57.15,1
2339,37.19,44.34,53.23,1
2340,37.2,45.97,42.18,1
2341,37.21,55.87,35.17,1
2342,37.22,59.66,42.27,1
2343,37.24,51.63,48.73,1
2344,37.25,39.72,40.59,1
2345,37.27,31.39,29.55,1
2346,37.28,28.76,30.75,1
2347,37.29,30.38,40.28,1
2348,37.31,32.9,45.24,1
2349,37.32,32.62,41.53,1
2350,37.33,28.46,35.33,1
2351,37.35,24.43,30.31,1
2352,37.36,22.33,28.21,1
2353,37.37,20.45,32.24,1
2354,37.38,23.21,33.62,1
2355,37.4,29.59,20.37,1
2356,37.41,26.91,1.93,1
2357,37.43,19.34,-4.89,1
2358,37.44,22.02,-0.87,1
2359,37.45,22.27,5.31,1
2360,37.47,7.04,9.58,1
2361,37.48,-5.46,11.21,1
2362,37.49,-0.6,12.34,1
2363,37.51,10.99,11.65,1
2364,37.52,12.33,5.98,1
2365,37.53,-1.36,-1.14,1
2366,37.54,-14.6,-7.65,1
2367,37.56,-14.59,-10.63,1
2368,37.57,-12.5,-0.78,1
2369,37.59,-16.38,16.23,1
2370,37.6,-16.24,19.67,1
2371,37.61,-9.74,9.42,1
2372,37.63,-6.13,4.87,1
2373,37.64,-9.54,6.64,1
2374,37.65,-15.29,3.81,1
2375,37.67,-18.68,1.98,1
2376,37.68,-19.15,6.34,1
2377,37.69,-15.29,6.31,1
2378,37.71,-11.68,-3.95,1
2379,37.72,-17.54,-12.79,1
2380,37.73,-26.19,-10.52,1
2381,37.75,-22.46,-4.84,1
2382,37.76,-13.81,-6.38,1
2383,37.77,-14.83,-15.31,1
2384,37.79,-18.3,-21.73,1
2385,37.8,-18.51,-16.29,1
2386,37.81,-24.8,-5.22,1
2387,37.83,-34.17,-2.27,1
2388,37.84,-30.22,-8.01,1
2389,37.85,-15.69,-14.91,1
2390,37.87,-11.35,-17.27,1
2391,37.88,-19.66,-10.51,1
2392,37.89,-24.49,-3.39,1
2393,37.9,-22.98,-11.77,1
2394,37.92,-24.0,-23.0,1
2395,37.93,-25.61,-15.07,1
2396,37.95,-18.46,0.23,1
2397,37.96,-7.72,-1.11,1
2398,37.97,-8.49,-17.97,1
2399,37.99,-17.9,-27.26,1
2400,38.0,-19.31,-20.48,1
2401,38.01,-16.79,-17.13,1
2402,38.03,-27.2,-18.35,1
2403,38.04,-40.03,-9.3,1
2404,38.05,-38.48,-6.62,1
2405,38.06,-33.88,-18.09,1
2406,38.08,-35.52,-19.16,1
2407,38.09,-31.39,-11.53,1
2408,38.11,-17.96,-12.0,1
2409,38.12,-8.57,-15.77,1
2410,38.13,-6.88,-21.31,1
2411,38.15,-2.21,-27.79,1
2412,38.16,2.86,-22.58,0
2413,38.17,-4.08,-6.86,0
2414,38.19,-14.76,3.51,0
2415,38.2,-9.97,-3.16,0
2416,38.21,-4.68,-16.0,0
2417,38.22,-53.02,-5.51,0
2418,38.24,-169.68,23.14,0
2419,38.25,-285.51,27.79,0
2420,38.27,-339.09,3.68,0
2421,38.28,-351.38,-5.97,0
2422,38.29,-354.58,18.84,0
2423,38.31,-332.57,36.17,0
2424,38.32,-279.53,0.78,0
2425,38.33,-228.81,-62.24,0
2426,38.35,-191.92,-97.63,0
2427,38.36,-136.92,-98.99,0
2428,38.37,-32.41,-89.94,0
2429,38.38,105.78,-74.35,0
2430,38.4,223.73,-49.24,0
2431,38.41,293.61,-30.84,0
2432,38.43,326.01,-30.89,0
2433,38.44,330.09,-32.11,0
2434,38.45,317.72,-20.6,0
2435,38.47,305.59,-8.67,0
2436,38.48,286.79,-5.64,0
2437,38.49,254.5,-5.36,0
2438,38.51,228.76,-0.57,0
2439,38.52,219.52,10.97,0
2440,38.53,207.68,18.64,0
2441,38.54,186.13,10.3,0
2442,38.56,159.78,1.78,1
2443,38.57,113.85,11.87,1
2444,38.59,57.94,18.94,1
2445,38.6,44.57,5.64,1
2446,38.61,77.27,-4.05,1
2447,38.63,96.86,4.0,1
2448,38.64,83.23,12.05,1
2449,38.65,69.51,8.68,1
2450,38.67,70.54,2.21,1
2451,38.68,66.22,1.18,1
2452,38.69,45.96,6.8,1
2453,38.71,31.0,14.75,1
2454,38.72,31.39,14.86,1
2455,38.73,27.29,4.31,1
2456,38.75,12.16,-5.36,1
2457,38.76,0.95,-3.87,1
2458,38.77,-2.49,5.51,1
2459,38.79,-10.09,8.63,1
2460,38.8,-23.65,0.6,1
2461,38.81,-27.12,-4.06,1
2462,38.83,-20.67,-0.28,1
2463,38.84,-24.52,1.6,1
2464,38.85,-35.19,3.82,1
2465,38.87,-35.56,11.72,1
2466,38.88,-36.7,16.7,1
2467,38.89,-52.04,15.75,1
2468,38.9,-60.67,14.61,1
2469,38.92,-44.28,15.81,1
2470,38.93,-25.92,18.17,1
2471,38.95,-31.98,18.51,1
2472,38.96,-50.33,17.44,1
2473,38.97,-57.11,13.49,1
2474,38.99,-57.55,1.99,1
2475,39.0,-69.14,-7.71,1
2476,39.01,-80.97,-3.42,1
2477,39.03,-71.55,5.25,1
2478,39.04,-53.2,1.68,1
2479,39.05,-51.9,-7.3,1
2480,39.06,-64.2,-4.73,1
2481,39.08,-70.92,3.41,1
2482,39.09,-70.11,4.81,1
2483,39.11,-70.14,6.88,1
2484,39.12,-68.98,15.28,1
2485,39.13,-64.24,20.27,1
2486,39.15,-62.45,18.17,1
2487,39.16,-64.57,13.96,1
2488,39.17,-62.3,9.32,1
2489,39.19,-50.09,7.7,1
2490,39.2,-39.58,6.89,1
2491,39.21,-47.01,0.08,1
2492,39.22,-58.37,-1.95,1
2493,39.24,-50.42,8.16,1
2494,39.25,-37.42,14.33,1
2495,39.27,-39.89,11.87,1
2496,39.28,-46.72,10.69,1
2497,39.29,-45.48,6.29,1
2498,39.31,-44.38,-2.99,1
2499,39.32,-47.4,-4.89,1
2500,39.33,-47.35,-0.16,1
2501,39.35,-45.42,-0.79,1
2502,39.36,-45.49,-5.04,1
2503,39.37,-37.63,-3.16,1
2504,39.38,-18.84,-0.56,1
2505,39.4,-7.98,-6.38,1
2506,39.41,-15.08,-9.0,1
2507,39.43,-22.8,0.41,1
2508,39.44,-16.05,7.31,1
2509,39.45,-5.17,5.08,1
2510,39.47,-4.6,6.37,1
2511,39.48,-8.88,12.5,1
2512,39.49,-6.98,9.93,1
2513,39.51,-1.49,0.48,1
2514,39.52,0.76,1.56,1
2515,39.53,0.4,11.96,1
2516,39.54,-1.41,13.73,1
2517,39.56,-4.26,6.0,1
2518,39.57,-2.7,0.92,1
2519,39.59,4.79,0.08,1
2520,39.6,10.97,-3.96,1
2521,39.61,10.54,-12.0,1
2522,39.63,5.95,-14.75,1
2523,39.64,3.08,-6.42,1
2524,39.65,5.06,3.32,1
2525,39.67,8.86,4.03,1
2526,39.68,12.76,-2.78,1
2527,39.69,21.59,-9.88,1
2528,39.71,28.74,-9.62,1
2529,39.72,20.58,-3.98,1
2530,39.73,5.2,-2.25,1
2531,39.75,-0.02,-3.83,1
2532,39.76,5.35,0.25,1
2533,39.77,14.46,8.77,1
2534,39.79,23.41,8.38,1
2535,39.8,27.1,-3.95,1
2536,39.81,21.04,-10.55,1
2537,39.83,14.38,2.92,1
2538,39.84,22.9,17.59,1
2539,39.85,39.06,7.09,1
2540,39.87,39.12,-13.78,1
2541,39.88,23.86,-14.58,1
2542,39.89,17.78,-0.33,1
2543,39.9,26.97,5.98,1
2544,39.92,34.84,0.83,1
2545,39.93,34.94,-6.53,1
2546,39.95,29.63,-14.5,1
2547,39.96,18.99,-21.45,1
2548,39.97,11.59,-18.24,1
2549,39.99,12.04,-7.13,1
2550,40.0,14.09,-2.35,1
2551,40.01,16.52,-5.33,1
2552,40.03,17.65,-10.38,1
2553,40.04,16.23,-13.81,1
2554,40.05,17.85,-7.79,1
2555,40.065,18.85,7.11,1
2556,40.08,18.33,15.35,1
2557,40.09,26.78,7.19,1
2558,40.11,34.0,-7.45,1
2559,40.12,23.52,-10.69,1
2560,40.13,12.58,-1.06,1
2561,40.15,20.95,5.68,1
2562,40.16,33.53,-0.95,0
2563,40.17,31.35,-13.25,0
2564,40.19,6.5,-11.69,0
2565,40.2,-71.48,0.79,0
2566,40.21,-215.66,-6.43,0
2567,40.22,-347.33,-30.98,0
2568,40.24,-375.79,-35.32,0
2569,40.25,-316.84,-19.65,0
2570,40.27,-240.9,-13.3,0
2571,40.28,-179.76,-15.87,0
2572,40.29,-125.75,-8.02,0
2573,40.31,-61.86,9.07,0
2574,40.32,15.08,15.21,0
2575,40.33,82.71,7.11,0
2576,40.35,117.77,6.24,0
2577,40.36,135.99,12.98,0
2578,40.37,167.68,5.9,0
2579,40.38,200.73,-7.91,0
2580,40.4,210.57,-8.1,0
2581,40.41,213.4,-2.05,0
2582,40.43,225.72,-4.02,0
2583,40.44,225.96,-6.02,0
2584,40.45,208.71,2.49,0
2585,40.47,203.14,7.41,0
2586,40.48,210.07,-1.92,0
2587,40.49,202.09,-3.44,0
2588,40.51,179.89,11.39,0
2589,40.52,163.52,13.73,0
2590,40.53,152.5,-0.47,0
2591,40.54,141.17,-0.99,0
2592,40.56,137.65,16.61,1
2593,40.57,135.14,29.25,1
2594,40.59,117.77,26.21,1
2595,40.6,100.57,18.44,1
2596,40.61,96.34,17.7,1
2597,40.63,84.06,19.48,1
2598,40.64,59.04,16.29,1
2599,40.65,45.03,14.05,1
2600,40.67,45.78,19.37,1
2601,40.68,43.96,22.19,1
2602,40.69,31.76,11.61,1
2603,40.71,14.89,0.24,1
2604,40.72,3.26,4.31,1
2605,40.73,-2.3,16.0,1
2606,40.75,-12.16,20.63,1
2607,40.76,-26.35,18.19,1
2608,40.77,-30.79,11.95,1
2609,40.79,-24.77,1.12,1
2610,40.8,-25.63,-4.54,1
2611,40.81,-37.88,5.24,1
2612,40.83,-45.25,15.71,1
2613,40.84,-43.25,9.01,1
2614,40.85,-46.89,-2.35,1
2615,40.87,-59.65,-1.57,1
2616,40.88,-67.89,3.33,1
2617,40.89,-69.91,1.3,1
2618,40.9,-76.66,-4.24,1
2619,40.92,-86.28,-4.7,1
2620,40.93,-87.93,2.07,1
2621,40.95,-84.41,4.93,1
2622,40.96,-84.9,-2.78,1
2623,40.97,-84.96,-8.83,1
2624,40.99,-81.03,-4.19,1
2625,41.0,-79.45,3.64,1
2626,41.01,-80.6,4.08,1
2627,41.03,-83.64,-3.02,1
2628,41.04,-87.91,-9.5,1
2629,41.05,-90.15,-11.2,1
2630,41.06,-95.18,-11.57,1
2631,41.08,-104.7,-14.63,1
2632,41.09,-106.32,-17.45,1
2633,41.11,-93.6,-13.42,1
2634,41.12,-74.95,-9.82,1
2635,41.13,-58.49,-13.95,1
2636,41.15,-47.23,-11.39,1
2637,41.16,-45.88,1.13,1
2638,41.17,-52.23,1.66,1
2639,41.19,-54.72,-9.46,1
2640,41.2,-48.78,-8.04,1
2641,41.21,-43.77,2.4,1
2642,41.22,-47.53,-0.12,1
2643,41.24,-53.76,-10.09,1
2644,41.25,-54.47,-13.21,1
2645,41.27,-51.93,-16.1,1
2646,41.28,-49.69,-17.47,1
2647,41.29,-48.17,-5.76,1
2648,41.31,-47.17,5.53,1
2649,41.32,-46.77,0.0,1
2650,41.33,-47.48,-9.8,1
2651,41.35,-45.0,-13.97,1
2652,41.36,-36.31,-15.08,1
2653,41.37,-27.1,-8.03,1
2654,41.38,-22.95,2.93,1
2655,41.4,-20.37,4.18,1
2656,41.41,-18.98,-6.11,1
2657,41.43,-22.45,-17.33,1
2658,41.44,-22.01,-14.08,1
2659,41.45,-17.6,3.4,1
2660,41.47,-22.91,13.47,1
2661,41.48,-28.67,4.9,1
2662,41.49,-18.79,-8.17,1
2663,41.51,-4.76,-7.33,1
2664,41.52,-1.53,4.75,1
2665,41.53,-1.52,8.33,1
2666,41.54,4.03,0.75,1
2667,41.56,8.55,-4.94,1
2668,41.57,11.77,-6.76,1
2669,41.59,13.24,-6.39,1
2670,41.6,5.57,-0.33,1
2671,41.61,2.59,7.83,1
2672,41.63,14.5,7.87,1
2673,41.64,21.67,-3.5,1
2674,41.65,16.84,-17.08,1
2675,41.67,15.45,-16.65,1
2676,41.68,21.09,1.45,1
2677,41.69,24.6,13.96,1
2678,41.71,24.57,5.06,1
2679,41.72,27.98,-5.76,1
2680,41.73,33.84,-4.74,1
2681,41.75,30.25,-5.61,1
2682,41.76,19.39,-11.89,1
2683,41.77,18.58,-8.14,1
2684,41.79,28.34,0.51,1
2685,41.8,33.29,-4.68,1
2686,41.81,28.62,-10.53,1
2687,41.83,22.96,-1.16,1
2688,41.84,24.81,6.67,1
2689,41.85,26.98,4.95,1
2690,41.87,19.13,9.36,1
2691,41.88,12.16,19.77,1
2692,41.89,15.93,19.14,1
2693,41.9,18.64,8.16,1
2694,41.92,14.13,1.87,1
2695,41.93,13.99,3.18,1
2696,41.95,24.08,2.44,1
2697,41.96,34.54,-1.62,1
2698,41.97,35.86,-1.24,1
2699,41.99,29.68,4.0,1
2700,42.0,27.35,7.64,1
2701,42.01,33.79,8.65,1
2702,42.03,36.33,7.06,1
2703,42.04,29.34,-0.19,1
2704,42.05,22.99,-9.9,1
2705,42.06,14.86,-11.92,1
2706,42.08,2.45,-3.96,1
2707,42.09,-0.81,3.93,1
2708,42.11,5.85,7.63,1
2709,42.12,14.27,12.27,1
2710,42.13,26.27,14.27,1
2711,42.15,35.74,9.0,1
2712,42.16,33.33,5.19,2
2713,42.17,27.49,5.36,2
2714,42.19,25.03,3.42,2
2715,42.2,18.48,5.29,2
2716,42.21,11.88,15.59,2
2717,42.22,27.05,27.23,2
2718,42.24,78.15,38.44,2
2719,42.25,157.18,52.99,2
2720,42.27,243.09,68.12,2
2721,42.28,306.7,72.42,2
2722,42.29,328.2,53.71,2
2723,42.31,326.77,17.89,2
2724,42.32,325.61,-11.43,2
2725,42.33,306.03,-26.89,2
2726,42.35,256.27,-40.32,2
2727,42.36,205.46,-50.5,2
2728,42.37,171.2,-46.4,2
2729,42.38,128.31,-33.03,2
2730,42.4,31.7,-27.11,2
2731,42.41,-122.59,-30.14,2
2732,42.43,-259.47,-30.36,2
2733,42.44,-314.89,-27.77,2
2734,42.45,-323.21,-25.5,2
2735,42.47,-335.06,-19.22,2
2736,42.48,-341.43,-13.01,2
2737,42.49,-326.67,-14.15,2
2738,42.51,-302.53,-15.88,2
2739,42.52,-276.86,-9.19,2
2740,42.53,-247.62,-3.32,2
2741,42.54,-224.28,-11.62,2
2742,42.56,-210.23,-20.37,1
2743,42.57,-190.75,-11.31,1
2744,42.59,-163.74,-2.01,1
2745,42.6,-144.84,-7.61,1
2746,42.61,-133.56,-10.03,1
2747,42.63,-118.04,0.08,1
2748,42.64,-99.63,6.44,1
2749,42.65,-86.93,-0.66,1
2750,42.66,-80.12,-6.78,1
2751,42.68,-70.44,-0.9,1
2752,42.69,-55.84,2.75,1
2753,42.71,-42.94,1.53,1
2754,42.72,-31.45,8.59,1
2755,42.73,-19.38,12.2,1
2756,42.75,-10.12,3.43,1
2757,42.76,-6.06,-1.08,1
2758,42.77,-5.43,1.75,1
2759,42.79,-4.34,0.13,1
2760,42.8,-4.83,-3.74,1
2761,42.81,-1.9,-0.12,1
2762,42.83,16.6,3.77,1
2763,42.84,37.07,-0.59,1
2764,42.85,36.53,-1.88,1
2765,42.87,27.82,3.53,1
2766,42.88,36.33,4.36,1
2767,42.89,55.83,3.34,1
2768,42.9,58.91,8.82,1
2769,42.92,43.67,13.34,1
2770,42.93,41.3,8.85,1
2771,42.95,63.51,3.79,1
2772,42.96,82.41,5.23,1
2773,42.97,76.64,5.24,1
2774,42.99,60.91,0.92,1
2775,43.0,57.84,4.74,1
2776,43.01,64.92,17.05,1
2777,43.03,67.92,18.46,1
2778,43.04,67.68,5.61,1
2779,43.05,70.92,-2.8,1
2780,43.06,77.28,-0.5,1
2781,43.08,78.82,4.53,1
2782,43.09,68.26,6.44,1
2783,43.11,53.81,2.43,1
2784,43.12,55.58,-0.21,1
2785,43.13,73.43,6.92,1
2786,43.15,83.38,11.04,1
2787,43.16,74.31,5.54,1
2788,43.17,60.27,8.07,1
2789,43.19,58.59,13.02,1
2790,43.2,64.73,2.48,1
2791,43.21,57.35,-1.87,1
2792,43.22,41.31,12.39,1
2793,43.24,44.35,13.37,1
2794,43.25,57.82,-3.29,1
2795,43.27,52.33,-7.53,1
2796,43.28,39.23,-1.87,1
2797,43.29,40.37,-1.95,1
2798,43.3,42.81,2.01,1
2799,43.32,32.89,10.06,1
2800,43.33,24.58,10.01,1
2801,43.35,30.21,6.12,1
2802,43.36,37.8,3.32,1
2803,43.37,31.5,0.12,1
2804,43.38,20.99,-1.29,1
2805,43.4,24.73,-0.03,1
2806,43.41,33.88,2.6,1
2807,43.43,27.65,3.18,1
2808,43.44,15.61,-0.18,1
2809,43.45,18.0,-2.49,1
2810,43.47,22.15,-2.73,1
2811,43.48,11.83,-6.27,1
2812,43.49,3.5,-8.66,1
2813,43.51,10.16,-3.9,1
2814,43.52,16.41,2.16,1
2815,43.53,12.79,8.35,1
2816,43.54,8.25,15.33,1
2817,43.56,4.66,10.19,1
2818,43.57,-6.4,-5.78,1
2819,43.59,-20.2,-10.46,1
2820,43.6,-19.02,-2.86,1
2821,43.61,0.2,0.64,1
2822,43.63,17.42,-3.09,1
2823,43.64,17.55,-8.74,1
2824,43.65,4.24,-9.26,1
2825,43.67,-11.32,-1.28,1
2826,43.68,-17.24,3.09,1
2827,43.69,-12.56,-1.5,1
2828,43.71,-7.32,-1.01,1
2829,43.72,-7.98,3.56,1
2830,43.73,-14.48,-0.38,1
2831,43.75,-20.04,-5.84,1
2832,43.76,-20.01,-5.11,1
2833,43.77,-17.76,-9.68,1
2834,43.79,-16.68,-20.43,1
2835,43.8,-18.73,-18.51,1
2836,43.81,-20.93,-2.99,1
2837,43.83,-18.96,5.9,1
2838,43.84,-20.21,3.67,1
2839,43.85,-27.01,0.87,1
2840,43.87,-26.36,-1.4,1
2841,43.88,-21.01,-4.29,1
2842,43.89,-26.96,-0.4,1
2843,43.9,-33.44,9.13,1
2844,43.92,-26.38,13.54,1
2845,43.93,-21.4,8.72,1
2846,43.94,-25.15,-3.25,1
2847,43.96,-25.6,-14.25,1
2848,43.97,-26.76,-17.13,1
2849,43.99,-35.31,-16.78,1
2850,44.0,-40.16,-18.4,1
2851,44.01,-34.26,-17.07,1
2852,44.03,-27.55,-6.43,1
2853,44.04,-25.9,8.45,1
2854,44.05,-24.79,12.45,1
2855,44.06,-27.29,3.65,1
2856,44.08,-32.85,-1.38,1
2857,44.09,-30.16,-0.19,1
2858,44.11,-23.9,-5.86,1
2859,44.12,-22.64,-11.12,1
2860,44.13,-19.06,-2.7,1
2861,44.15,-12.74,7.03,1
2862,44.16,-10.7,14.98,1
2863,44.17,-9.54,44.76,1
2864,44.19,-10.96,91.6,1
2865,44.2,-24.88,159.04,1
2866,44.21,-1.26,296.94,1
2867,44.22,148.94,435.72,1
2868,44.24,324.59,422.17,1
2869,44.25,252.97,305.68,1
2870,44.27,-115.42,245.32,1
2871,44.28,-479.07,237.28,1
2872,44.29,-502.85,203.77,1
2873,44.31,-232.21,152.12,1
2874,44.32,-82.0,117.84,1
2875,44.33,-216.97,93.38,1
2876,44.35,-347.83,63.07,1
2877,44.36,-302.0,32.14,1
2878,44.37,-206.52,7.54,1
2879,44.38,-164.08,-14.06,1
2880,44.4,-69.18,-35.86,1
2881,44.41,245.58,-56.33,1
2882,44.43,564.11,-74.36,1
2883,44.44,466.86,-90.14,1
2884,44.45,95.23,-104.25,1
2885,44.47,-57.82,-117.37,1
2886,44.48,85.19,-129.19,1
2887,44.49,213.49,-138.89,1
2888,44.51,99.77,-147.38,1
2889,44.52,-97.03,-158.89,1
2890,44.53,-32.12,-174.53,1
2891,44.54,198.91,-199.8,1
2892,44.56,181.45,-251.47,1
2893,44.57,-19.95,-309.46,1
2894,44.58,13.88,-322.95,1
2895,44.6,261.63,-317.23,1
2896,44.61,319.46,-344.18,1
2897,44.62,83.26,-308.5,1
2898,44.64,-163.54,-176.2,1
2899,44.65,-132.41,-183.42,1
2900,44.67,174.98,-333.86,1
2901,44.68,355.12,-346.91,1
2902,44.69,99.57,-345.01,1
2903,44.71,-223.28,-489.51,1
2904,44.72,-150.83,-446.75,1
2905,44.73,12.49,-124.99,1
2906,44.75,-86.64,94.39,1
2907,44.76,-88.78,25.86,1
2908,44.77,115.67,-181.5,1
2909,44.79,70.4,-241.45,1
2910,44.8,-184.88,-33.15,1
2911,44.81,-132.62,133.38,1
2912,44.83,137.97,24.92,1
2913,44.84,92.05,-145.29,1
2914,44.85,-85.12,-330.6,1
2915,44.87,113.81,-574.01,1
2916,44.88,373.01,-460.83,1
2917,44.89,227.99,-10.17,1
2918,44.9,-25.46,31.51,1
2919,44.92,-109.0,-343.71,1
2920,44.93,-170.14,-363.19,1
2921,44.95,-178.42,30.11,1
2922,44.96,-62.22,200.74,1
2923,44.97,20.29,66.76,1
2924,44.99,-37.37,60.77,1
2925,45.0,-177.22,136.17,1
2926,45.01,-249.84,-19.36,1
2927,45.03,-213.5,-220.33,1
2928,45.04,-192.14,-183.54,1
2929,45.05,-197.16,-36.64,1
2930,45.06,-127.66,54.27,1
2931,45.08,-21.94,117.25,1
2932,45.09,9.58,130.28,1
2933,45.11,-17.45,50.2,1
2934,45.12,-23.75,-21.91,1
2935,45.13,-7.05,-6.07,1
2936,45.15,0.73,50.34,1
2937,45.16,7.28,97.76,1
2938,45.17,20.42,139.16,1
2939,45.19,31.69,200.89,1
2940,45.2,34.8,282.13,1
2941,45.21,21.14,338.34,1
2942,45.22,4.98,355.33,1
2943,45.24,13.22,370.44,1
2944,45.25,27.33,401.88,1
2945,45.26,16.22,433.14,1
2946,45.28,-4.33,450.9,1
2947,45.29,-5.53,452.63,1
2948,45.31,10.76,439.25,1
2949,45.32,24.47,424.32,1
2950,45.33,25.05,422.66,1
2951,45.35,18.71,421.73,1
2952,45.36,14.33,396.77,1
2953,45.37,11.19,352.01,1
2954,45.38,10.85,317.8,1
2955,45.4,27.81,311.07,1
2956,45.41,50.45,316.16,1
2957,45.43,39.93,314.48,1
2958,45.44,9.36,310.34,1
2959,45.45,7.08,304.55,1
2960,45.47,23.32,282.83,1
2961,45.48,19.44,243.73,1
2962,45.49,3.63,212.3,1
2963,45.51,3.56,207.47,1
2964,45.52,13.77,209.47,1
2965,45.53,12.85,190.54,1
2966,45.54,2.04,157.79,1
2967,45.56,-0.01,135.27,1
2968,45.57,10.5,124.02,1
2969,45.59,15.8,107.54,1
2970,45.6,7.07,86.57,1
2971,45.61,0.62,68.81,1
2972,45.63,7.93,49.92,1
2973,45.64,17.44,31.43,1
2974,45.65,15.31,18.4,1
2975,45.67,0.88,6.02,1
2976,45.68,-11.61,-7.52,1
2977,45.69,-10.44,-16.86,1
2978,45.71,-3.51,-22.77,1
2979,45.72,2.08,-34.8,1
2980,45.73,9.25,-53.7,1
2981,45.75,10.75,-63.08,1
2982,45.76,1.72,-61.83,1
2983,45.77,1.96,-73.13,1
2984,45.79,16.12,-94.85,1
2985,45.8,17.85,-106.69,1
2986,45.81,8.0,-115.58,1
2987,45.83,13.44,-131.03,1
2988,45.84,27.28,-140.41,1
2989,45.85,25.0,-136.31,1
2990,45.86,9.17,-128.87,1
2991,45.88,-2.62,-131.02,1
2992,45.89,-3.42,-144.68,1
2993,45.9,0.59,-158.73,1
2994,45.92,1.54,-163.65,1
2995,45.93,0.99,-165.0,1
2996,45.95,3.3,-171.44,1
2997,45.96,3.75,-174.86,1
2998,45.97,1.31,-166.9,1
2999,45.99,2.4,-161.41,1
3000,46.0,5.65,-170.09,1
3001,46.01,7.22,-179.54,1
3002,46.03,7.61,-174.77,1
3003,46.04,4.35,-162.99,1
3004,46.05,-3.76,-158.14,1
3005,46.06,-10.23,-162.11,1
3006,46.08,-7.37,-171.1,1
3007,46.09,3.92,-176.78,1
3008,46.11,11.73,-174.1,1
3009,46.12,9.47,-174.1,1
3010,46.13,5.26,-178.31,1
3011,46.15,3.86,-171.76,1
3012,46.16,5.0,-156.92,2
3013,46.17,11.15,-147.53,2
3014,46.19,14.51,-140.26,2
3015,46.2,12.73,-128.58,2
3016,46.21,46.77,-121.38,2
3017,46.22,157.93,-124.31,2
3018,46.24,301.44,-127.34,2
3019,46.25,382.27,-125.16,2
3020,46.27,370.52,-120.51,2
3021,46.28,305.79,-117.16,2
3022,46.29,222.58,-122.8,2
3023,46.31,136.16,-130.55,2
3024,46.32,64.43,-119.78,2
3025,46.33,10.59,-99.03,2
3026,46.35,-39.67,-94.98,2
3027,46.36,-85.72,-100.62,2
3028,46.37,-118.63,-98.59,2
3029,46.38,-147.47,-95.37,2
3030,46.4,-176.76,-93.84,2
3031,46.41,-193.29,-85.12,2
3032,46.43,-194.12,-70.1,2
3033,46.44,-192.84,-57.17,2
3034,46.45,-196.52,-50.34,2
3035,46.47,-194.32,-47.43,2
3036,46.48,-181.12,-43.66,2
3037,46.49,-176.59,-36.78,2
3038,46.5,-185.98,-30.18,2
3039,46.52,-183.52,-24.84,2
3040,46.53,-163.52,-16.92,2
3041,46.54,-151.08,-9.1,2
3042,46.56,-154.0,-4.35,1
3043,46.57,-152.56,2.82,1
3044,46.59,-133.62,11.02,1
3045,46.6,-112.5,13.0,1
3046,46.61,-104.45,8.91,1
3047,46.63,-97.06,5.06,1
3048,46.64,-78.29,9.11,1
3049,46.65,-57.27,20.68,1
3050,46.67,-43.92,30.76,1
3051,46.68,-39.56,33.57,1
3052,46.69,-39.77,31.78,1
3053,46.71,-36.14,32.39,1
3054,46.72,-26.38,34.31,1
3055,46.73,-14.41,32.73,1
3056,46.75,-0.87,31.81,1
3057,46.76,13.89,33.79,1
3058,46.77,25.19,38.15,1
3059,46.79,27.64,51.93,1
3060,46.8,20.15,71.64,1
3061,46.81,12.58,73.77,1
3062,46.83,24.24,55.06,1
3063,46.84,55.23,43.04,1
3064,46.85,72.04,47.08,1
3065,46.87,59.02,52.33,1
3066,46.88,42.31,51.77,1
3067,46.89,37.99,48.72,1
3068,46.9,35.22,48.14,1
3069,46.92,32.62,47.84,1
3070,46.93,40.64,43.01,1
3071,46.95,52.78,40.46,1
3072,46.96,54.45,43.94,1
3073,46.97,51.48,45.18,1
3074,46.99,52.98,45.25,1
3075,47.0,52.15,49.17,1
3076,47.01,50.76,50.21,1
3077,47.03,57.67,44.87,1
3078,47.04,61.16,40.0,1
3079,47.05,51.67,41.59,1
3080,47.06,45.12,48.6,1
3081,47.08,50.32,52.29,1
3082,47.09,55.24,48.8,1
3083,47.11,54.42,45.79,1
3084,47.12,55.68,46.74,1
3085,47.13,60.56,46.35,1
3086,47.14,63.24,41.21,1
3087,47.16,63.36,39.15,1
3088,47.17,64.23,49.55,1
3089,47.18,64.81,63.22,1
3090,47.2,62.98,69.03,1
3091,47.21,57.0,68.22,1
3092,47.22,47.7,58.12,1
3093,47.24,43.66,39.88,1
3094,47.25,51.64,29.73,1
3095,47.27,62.01,39.04,1
3096,47.28,59.66,56.95,1
3097,47.29,45.41,62.92,1
3098,47.31,33.05,54.15,1
3099,47.32,29.26,42.76,1
3100,47.33,29.1,34.84,1
3101,47.35,27.14,30.09,1
3102,47.36,23.75,30.23,1
3103,47.37,25.21,36.69,1
3104,47.38,28.8,40.47,1
3105,47.4,22.23,33.36,1
3106,47.41,9.07,28.86,1
3107,47.43,4.93,34.53,1
3108,47.44,12.9,35.5,1
3109,47.45,20.73,28.07,1
3110,47.47,19.38,21.96,1
3111,47.48,15.47,22.79,1
3112,47.49,17.5,27.98,1
3113,47.51,19.72,26.25,1
3114,47.52,16.46,17.79,1
3115,47.53,12.21,15.47,1
3116,47.54,8.54,18.68,1
3117,47.56,3.28,16.35,1
3118,47.57,2.76,9.88,1
3119,47.59,12.89,9.51,1
3120,47.6,22.46,12.71,1
3121,47.61,15.79,7.8,1
3122,47.63,-3.67,-0.37,1
3123,47.64,-18.43,1.96,1
3124,47.65,-22.96,7.46,1
3125,47.67,-21.5,3.48,1
3126,47.68,-11.85,-1.89,1
3127,47.69,-0.14,-0.42,1
3128,47.71,-4.16,3.76,1
3129,47.72,-20.49,8.85,1
3130,47.73,-25.88,8.98,1
3131,47.75,-18.39,-3.34,1
3132,47.76,-12.52,-14.19,1
3133,47.77,-12.27,-9.0,1
3134,47.78,-15.28,-0.81,1
3135,47.8,-20.21,-3.22,1
3136,47.81,-24.96,-10.9,1
3137,47.82,-30.2,-14.08,1
3138,47.84,-35.54,-8.75,1
3139,47.85,-34.46,-7.05,1
3140,47.86,-23.61,-18.09,1
3141,47.88,-13.46,-24.5,1
3142,47.89,-13.28,-18.64,1
3143,47.9,-17.46,-17.09,1
3144,47.92,-23.24,-21.16,1
3145,47.93,-31.48,-18.68,1
3146,47.95,-31.22,-13.47,1
3147,47.96,-21.42,-15.4,1
3148,47.97,-18.32,-18.87,1
3149,47.99,-22.53,-13.34,1
3150,48.0,-21.89,-4.5,1
3151,48.01,-18.48,-7.03,1
3152,48.03,-20.2,-23.01,1
3153,48.04,-27.78,-31.82,1
3154,48.05,-39.0,-17.28,1
3155,48.06,-47.14,1.45,1
3156,48.08,-43.43,-0.88,1
3157,48.09,-32.93,-15.94,1
3158,48.11,-28.81,-22.69,1
3159,48.12,-30.45,-19.48,1
3160,48.13,-27.68,-13.24,1
3161,48.15,-17.23,-10.63,1
3162,48.16,-6.75,-18.9,0
3163,48.17,-9.65,-28.67,0
3164,48.19,-22.03,-25.83,0
3165,48.2,-25.06,-20.23,0
3166,48.21,-17.74,-18.38,0
3167,48.22,-13.17,-12.81,0
3168,48.24,-12.93,-13.64,0
3169,48.25,-9.4,-28.2,0
3170,48.27,-0.53,-35.27,0
3171,48.28,5.49,-26.49,0
3172,48.29,0.62,-19.69,0
3173,48.31,-11.29,-23.9,0
3174,48.32,-16.72,-25.76,0
3175,48.33,-18.3,-14.2,0
3176,48.35,-45.55,-5.85,0
3177,48.36,-116.29,-16.55,0
3178,48.37,-210.97,-34.56,0
3179,48.38,-291.75,-46.26,0
3180,48.4,-332.24,-47.12,0
3181,48.41,-340.24,-37.21,0
3182,48.42,-333.25,-31.27,0
3183,48.44,-303.61,-41.32,0
3184,48.45,-252.73,-52.9,0
3185,48.46,-206.18,-44.88,0
3186,48.48,-170.18,-19.08,0
3187,48.49,-113.56,6.58,0
3188,48.5,2.58,22.41,0
3189,48.52,159.84,29.53,0
3190,48.53,273.6,30.57,0
3191,48.54,305.35,28.05,0
3192,48.56,306.75,23.92,1
3193,48.57,316.15,22.53,1
3194,48.59,320.12,29.24,1
3195,48.6,308.35,36.85,1
3196,48.61,287.86,29.83,1
3197,48.63,266.67,15.31,1
3198,48.64,249.39,16.17,1
3199,48.65,234.16,27.77,1
3200,48.67,214.89,33.31,1
3201,48.68,189.26,31.11,1
3202,48.69,155.92,19.46,1
3203,48.71,121.3,3.19,1
3204,48.72,106.27,-5.72,1
3205,48.73,114.5,-6.6,1
3206,48.75,120.35,-2.76,1
3207,48.76,109.91,0.53,1
3208,48.77,95.88,-6.22,1
3209,48.79,84.77,-17.37,1
3210,48.8,71.71,-18.53,1
3211,48.81,59.58,-11.18,1
3212,48.83,49.88,-3.7,1
3213,48.84,35.62,-0.22,1
3214,48.85,19.74,-2.97,1
3215,48.87,11.27,-6.69,1
3216,48.88,7.04,-6.54,1
3217,48.89,-0.04,-8.97,1
3218,48.9,-6.29,-15.82,1
3219,48.92,-9.71,-17.8,1
3220,48.93,-18.54,-15.38,1
3221,48.95,-30.12,-14.44,1
3222,48.96,-32.3,-10.57,1
3223,48.97,-31.19,-5.24,1
3224,48.99,-35.31,-7.06,1
3225,49.0,-37.29,-10.09,1
3226,49.01,-37.97,-4.76,1
3227,49.03,-44.45,2.35,1
3228,49.04,-51.85,4.36,1
3229,49.05,-55.64,4.21,1
3230,49.06,-60.18,1.74,1
3231,49.08,-68.02,-2.46,1
3232,49.09,-71.37,-3.16,1
3233,49.1,-63.77,1.45,1
3234,49.12,-55.4,8.04,1
3235,49.13,-56.45,8.92,1
3236,49.14,-61.74,5.25,1
3237,49.16,-65.74,9.15,1
3238,49.17,-70.4,16.92,1
3239,49.19,-77.43,13.02,1
3240,49.2,-81.57,0.52,1
3241,49.21,-76.49,-2.46,1
3242,49.22,-71.36,9.92,1
3243,49.24,-73.71,23.07,1
3244,49.25,-73.26,18.0,1
3245,49.27,-70.15,-3.83,1
3246,49.28,-73.65,-13.89,1
3247,49.29,-74.51,2.98,1
3248,49.31,-61.32,18.76,1
3249,49.32,-45.5,9.06,1
3250,49.33,-45.75,-9.36,1
3251,49.35,-58.73,-8.85,1
3252,49.36,-64.66,10.59,1
3253,49.37,-58.48,23.57,1
3254,49.38,-54.11,16.12,1
3255,49.4,-57.74,1.18,1
3256,49.41,-59.57,-9.65,1
3257,49.43,-55.37,-15.13,1
3258,49.44,-49.72,-12.67,1
3259,49.45,-41.69,0.11,1
3260,49.47,-31.16,20.44,1
3261,49.48,-25.29,30.68,1
3262,49.49,-27.87,20.86,1
3263,49.51,-35.66,8.74,1
3264,49.52,-37.45,3.04,1
3265,49.53,-21.61,-0.62,1
3266,49.54,-1.11,3.03,1
3267,49.56,-2.33,7.06,1
3268,49.57,-18.78,-0.05,1
3269,49.59,-22.37,0.4,1
3270,49.6,-12.64,15.31,1
3271,49.61,-8.63,14.05,1
3272,49.63,-14.69,-3.39,1
3273,49.64,-16.47,-4.57,1
3274,49.65,-4.92,4.8,1
3275,49.67,5.29,-3.63,1
3276,49.68,2.96,-23.11,1
3277,49.69,0.01,-23.76,1
3278,49.7,1.88,-2.32,1
3279,49.72,1.71,14.29,1
3280,49.73,1.8,11.38,1
3281,49.74,7.73,0.61,1
3282,49.76,16.23,-4.77,1
3283,49.77,18.78,-4.04,1
3284,49.78,13.46,-3.07,1
3285,49.8,9.41,-6.94,1
3286,49.81,8.22,-11.62,1
3287,49.83,2.49,-8.75,1
3288,49.84,-0.07,-1.4,1
3289,49.85,7.6,1.98,1
3290,49.87,14.71,1.0,1
3291,49.88,19.08,-0.39,1
3292,49.89,27.57,2.98,1
3293,49.9,35.77,10.69,1
3294,49.92,35.38,13.26,1
3295,49.93,27.19,9.42,1
3296,49.95,21.02,4.34,1
3297,49.96,22.22,-2.91,1
3298,49.97,25.0,-6.75,1
3299,49.99,24.3,-1.76,1
3300,50.0,24.3,3.42,1
3301,50.01,27.33,5.21,1
3302,50.03,26.34,5.57,1
3303,50.04,18.86,-1.82,1
3304,50.05,13.52,-11.16,1
3305,50.06,11.22,-7.76,1
3306,50.08,4.6,3.86,1
3307,50.09,5.43,9.47,1
3308,50.11,29.91,2.35,1
3309,50.12,55.21,-10.61,1
3310,50.13,50.48,-12.66,1
3311,50.15,30.34,-6.0,1
3312,50.16,24.32,-4.69,0
3313,50.17,29.26,-3.78,0
3314,50.19,29.53,-4.02,0
3315,50.2,28.81,-16.88,0
3316,50.21,25.21,-29.05,0
3317,50.22,-21.86,-31.03,0
3318,50.24,-141.25,-33.76,0
3319,50.25,-279.3,-34.57,0
3320,50.27,-349.85,-22.79,0
3321,50.28,-335.56,-3.4,0
3322,50.29,-284.91,8.09,0
3323,50.31,-228.43,8.43,0
3324,50.32,-154.6,10.75,0
3325,50.33,-70.16,15.38,0
3326,50.34,-0.99,11.1,0
3327,50.36,53.93,5.3,0
3328,50.37,95.23,10.89,0
3329,50.38,118.16,16.29,0
3330,50.4,144.43,6.74,0
3331,50.41,184.94,-5.21,0
3332,50.42,215.7,-2.69,0
3333,50.44,221.21,8.01,0
3334,50.45,218.27,12.02,0
3335,50.46,223.31,8.29,0
3336,50.48,222.47,6.85,0
3337,50.49,208.37,11.47,0
3338,50.51,204.17,17.46,0
3339,50.52,213.92,18.19,0
3340,50.53,209.74,13.03,0
3341,50.54,181.48,5.31,0
3342,50.56,148.95,-1.73,1
3343,50.57,135.16,-0.56,1
3344,50.59,140.43,9.91,1
3345,50.6,140.59,13.47,1
3346,50.61,126.52,1.24,1
3347,50.63,116.46,-12.4,1
3348,50.64,109.95,-9.76,1
3349,50.65,90.34,9.44,1
3350,50.67,69.71,25.62,1
3351,50.68,63.87,24.54,1
3352,50.69,57.47,16.65,1
3353,50.71,44.61,14.26,1
3354,50.72,41.19,14.74,1
3355,50.73,41.38,17.6,1
3356,50.75,30.89,21.83,1
3357,50.76,15.64,18.27,1
3358,50.77,3.88,8.88,1
3359,50.79,-4.1,4.07,1
3360,50.8,-12.0,3.89,1
3361,50.81,-23.66,2.89,1
3362,50.83,-36.43,-3.56,1
3363,50.84,-44.41,-11.22,1
3364,50.85,-47.22,-8.59,1
3365,50.87,-49.45,-0.61,1
3366,50.88,-55.43,-1.76,1
3367,50.89,-66.25,-7.56,1
3368,50.9,-72.43,-5.07,1
3369,50.92,-62.87,2.54,1
3370,50.93,-50.77,2.79,1
3371,50.95,-57.23,-0.01,1
3372,50.96,-73.95,7.26,1
3373,50.97,-80.02,15.67,1
3374,50.98,-78.94,11.11,1
3375,51.0,-82.86,3.57,1
3376,51.01,-89.3,3.29,1
3377,51.02,-96.92,1.61,1
3378,51.04,-103.97,-4.53,1
3379,51.05,-97.37,-4.83,1
3380,51.06,-77.55,-0.98,1
3381,51.08,-65.2,-6.12,1
3382,51.09,-72.09,-17.47,1
3383,51.1,-84.86,-18.62,1
3384,51.12,-84.23,-9.99,1
3385,51.13,-74.5,-3.96,1
3386,51.15,-75.13,-3.47,1
3387,51.16,-83.26,-8.5,1
3388,51.17,-77.05,-17.06,1
3389,51.19,-61.81,-20.86,1
3390,51.2,-61.64,-17.51,1
3391,51.21,-70.46,-13.48,1
3392,51.22,-71.63,-15.05,1
3393,51.24,-70.15,-20.55,1
3394,51.25,-70.04,-22.16,1
3395,51.27,-66.98,-17.7,1
3396,51.28,-59.31,-14.11,1
3397,51.29,-47.05,-15.97,1
3398,51.31,-38.12,-17.63,1
3399,51.32,-43.12,-13.2,1
3400,51.33,-53.39,-5.76,1
3401,51.35,-49.95,-1.42,1
3402,51.36,-36.99,-0.17,1
3403,51.37,-35.24,-0.24,1
3404,51.38,-42.59,-2.5,1
3405,51.4,-38.74,-3.56,1
3406,51.41,-23.44,-2.2,1
3407,51.43,-17.25,-8.07,1
3408,51.44,-25.05,-21.44,1
3409,51.45,-30.35,-24.29,1
3410,51.47,-24.89,-13.17,1
3411,51.48,-11.66,-6.25,1
3412,51.49,2.9,-2.99,1
3413,51.51,3.19,9.11,1
3414,51.52,-14.49,18.64,1
3415,51.53,-28.39,11.09,1
3416,51.54,-20.34,-4.56,1
3417,51.56,-3.38,-11.1,1
3418,51.57,-0.48,-4.11,1
3419,51.59,-4.75,2.99,1
3420,51.6,-1.67,2.09,1
3421,51.61,-4.2,2.49,1
3422,51.62,-13.95,4.59,1
3423,51.64,-6.99,1.44,1
3424,51.65,11.54,-3.69,1
3425,51.66,13.69,-6.8,1
3426,51.68,5.11,-5.56,1
3427,51.69,9.24,3.34,1
3428,51.7,22.38,12.3,1
3429,51.72,24.45,8.34,1
3430,51.73,16.14,-3.73,1
3431,51.74,17.46,-5.98,1
3432,51.76,24.33,-2.69,1
3433,51.77,16.42,-8.99,1
3434,51.79,8.66,-12.15,1
3435,51.8,24.93,-0.09,1
3436,51.81,42.1,8.78,1
3437,51.83,31.77,2.43,1
3438,51.84,17.07,-4.42,1
3439,51.85,26.85,0.23,1
3440,51.87,42.16,9.74,1
3441,51.88,34.93,11.75,1
3442,51.89,18.05,4.37,1
3443,51.9,20.18,-1.42,1
3444,51.92,33.28,1.22,1
3445,51.93,31.54,5.9,1
3446,51.95,21.36,9.08,1
3447,51.96,18.24,13.28,1
3448,51.97,20.25,14.29,1
3449,51.99,29.34,11.88,1
3450,52.0,40.42,9.73,1
3451,52.01,38.37,3.82,1
3452,52.03,28.56,-0.38,1
3453,52.04,27.22,6.14,1
3454,52.05,34.32,13.32,1
3455,52.06,35.98,11.26,1
3456,52.08,21.53,8.4,1
3457,52.09,5.45,10.68,1
3458,52.11,11.92,6.61,1
3459,52.12,30.42,-6.27,1
3460,52.13,33.17,-7.6,1
3461,52.15,26.72,8.04,1
3462,52.16,27.23,19.09,2
3463,52.17,23.65,11.95,2
3464,52.19,12.51,0.17,2
3465,52.2,12.13,2.62,2
3466,52.21,25.92,15.59,2
3467,52.22,55.91,24.57,2
3468,52.24,127.69,27.76,2
3469,52.25,238.67,30.68,2
3470,52.26,336.74,35.96,2
3471,52.28,384.71,40.92,2
3472,52.29,380.97,41.0,2
3473,52.3,336.44,33.29,2
3474,52.32,279.9,17.69,2
3475,52.33,237.42,1.58,2
3476,52.34,203.96,-9.05,2
3477,52.36,167.22,-19.62,2
3478,52.37,123.7,-28.36,2
3479,52.38,46.16,-27.9,2
3480,52.4,-97.7,-26.91,2
3481,52.41,-259.1,-28.53,2
3482,52.43,-340.63,-24.24,2
3483,52.44,-341.29,-19.98,2
3484,52.45,-336.67,-22.84,2
3485,52.47,-341.95,-25.88,2
3486,52.48,-328.63,-24.89,2
3487,52.49,-305.01,-24.94,2
3488,52.51,-282.75,-26.73,2
3489,52.52,-254.89,-23.85,2
3490,52.53,-230.66,-13.83,2
3491,52.54,-219.77,-3.38,2
3492,52.56,-211.87,-3.65,1
3493,52.57,-195.24,-12.53,1
3494,52.59,-168.62,-15.17,1
3495,52.6,-139.72,-11.74,1
3496,52.61,-118.14,-13.08,1
3497,52.63,-106.42,-14.93,1
3498,52.64,-98.79,-7.62,1
3499,52.65,-86.06,3.88,1
3500,52.67,-68.19,8.74,1
3501,52.68,-54.19,3.43,1
3502,52.69,-44.75,-4.0,1
3503,52.71,-33.11,-3.1,1
3504,52.72,-16.36,1.21,1
3505,52.73,4.72,-1.11,1
3506,52.75,21.67,-4.07,1
3507,52.76,25.56,1.87,1
3508,52.77,23.95,10.66,1
3509,52.79,31.28,6.23,1
3510,52.8,46.24,-11.14,1
3511,52.81,55.16,-15.72,1
3512,52.83,53.2,1.82,1
3513,52.84,48.35,15.09,1
3514,52.85,47.83,9.53,1
3515,52.87,50.09,1.06,1
3516,52.88,50.79,1.4,1
3517,52.89,48.23,5.39,1
3518,52.9,45.62,3.53,1
3519,52.92,54.99,-3.68,1
3520,52.93,75.78,-0.92,1
3521,52.94,81.4,13.63,1
3522,52.96,63.02,18.91,1
3523,52.97,49.78,13.83,1
3524,52.98,54.92,15.44,1
3525,53.0,60.21,18.64,1
3526,53.01,60.08,10.86,1
3527,53.02,68.78,1.23,1
3528,53.04,84.69,1.75,1
3529,53.05,86.9,3.77,1
3530,53.06,69.87,-1.86,1
3531,53.08,57.26,-1.2,1
3532,53.09,66.44,14.42,1
3533,53.11,80.57,19.87,1
3534,53.12,76.46,5.63,1
3535,53.13,59.89,0.68,1
3536,53.15,52.65,7.07,1
3537,53.16,62.54,-0.9,1
3538,53.17,73.37,-12.44,1
3539,53.19,68.95,-2.22,1
3540,53.2,58.14,16.99,1
3541,53.21,56.06,16.34,1
3542,53.22,56.32,-0.98,1
3543,53.24,48.91,-6.01,1
3544,53.25,39.42,5.87,1
3545,53.27,35.48,10.37,1
3546,53.28,36.71,0.6,1
3547,53.29,40.34,-3.94,1
3548,53.31,42.7,6.19,1
3549,53.32,35.28,12.51,1
3550,53.33,18.1,-0.11,1
3551,53.35,11.53,-16.96,1
3552,53.36,24.27,-17.56,1
3553,53.37,33.33,-5.72,1
3554,53.38,23.61,2.26,1
3555,53.4,11.84,1.11,1
3556,53.41,12.47,-1.75,1
3557,53.43,14.99,-0.45,1
3558,53.44,9.29,4.49,1
3559,53.45,2.37,10.05,1
3560,53.47,1.73,10.86,1
3561,53.48,4.28,6.44,1
3562,53.49,5.69,7.21,1
3563,53.51,9.01,10.97,1
3564,53.52,12.5,1.92,1
3565,53.53,6.23,-9.74,1
3566,53.54,-2.16,-3.97,1
3567,53.56,0.29,8.08,1
3568,53.57,3.15,8.93,1
3569,53.58,-5.53,2.77,1
3570,53.6,-17.88,-2.27,1
3571,53.61,-21.28,-3.47,1
3572,53.62,-16.6,1.01,1
3573,53.64,-13.16,6.37,1
3574,53.65,-13.74,3.56,1
3575,53.66,-12.75,-3.23,1
3576,53.68,-8.2,-5.18,1
3577,53.69,-7.69,-5.19,1
3578,53.7,-13.8,-6.29,1
3579,53.72,-16.14,-4.96,1
3580,53.73,-13.97,-2.6,1
3581,53.75,-17.47,-0.13,1
3582,53.76,-22.9,5.37,1
3583,53.77,-22.8,7.68,1
3584,53.79,-19.95,3.51,1
3585,53.8,-19.62,2.17,1
3586,53.81,-22.64,4.56,1
3587,53.83,-24.81,0.75,1
3588,53.84,-26.63,-10.23,1
3589,53.85,-31.62,-13.67,1
3590,53.87,-36.02,-1.26,1
3591,53.88,-34.89,9.55,1
3592,53.89,-30.38,2.95,1
3593,53.9,-25.0,-14.29,1
3594,53.92,-18.04,-26.33,1
3595,53.93,-13.64,-23.42,1
3596,53.95,-19.14,-13.71,1
3597,53.96,-29.68,-12.9,1
3598,53.97,-32.16,-19.28,1
3599,53.99,-30.32,-20.19,1
3600,54.0,-32.36,-12.65,1
3601,54.01,-28.72,-3.89,1
3602,54.03,-19.32,-2.7,1
3603,54.04,-21.5,-7.07,1
3604,54.05,-30.88,-7.89,1
3605,54.06,-29.86,-8.36,1
3606,54.08,-25.69,-13.43,1
3607,54.09,-27.79,-9.53,1
3608,54.11,-22.9,9.07,1
3609,54.12,-10.82,27.93,1
3610,54.13,-8.39,59.23,1
3611,54.15,-15.78,163.34,1
3612,54.16,-21.38,344.44,1
3613,54.17,-21.21,461.35,1
3614,54.18,-9.91,410.09,1
3615,54.2,32.4,300.25,1
3616,54.21,89.45,256.79,1
3617,54.22,41.91,243.52,1
3618,54.24,-185.71,202.83,1
3619,54.25,-412.69,155.72,1
3620,54.26,-386.61,124.97,1
3621,54.28,-136.79,98.13,1
3622,54.29,60.62,66.69,1
3623,54.3,16.74,37.04,1
3624,54.32,-158.38,12.7,1
3625,54.33,-205.61,-9.98,1
3626,54.34,-39.2,-32.47,1
3627,54.36,176.89,-52.66,1
3628,54.37,256.0,-70.29,1
3629,54.38,184.86,-86.63,1
3630,54.4,83.35,-101.8,1
3631,54.41,42.05,-115.06,1
3632,54.43,55.64,-126.5,1
3633,54.44,65.4,-136.78,1
3634,54.45,3.72,-145.91,1
3635,54.47,-68.01,-153.96,1
3636,54.48,46.3,-160.8,1
3637,54.49,289.93,-166.47,1
3638,54.51,340.98,-171.06,1
3639,54.52,178.19,-174.49,1
3640,54.53,68.57,-178.24,1
3641,54.54,117.4,-185.7,1
3642,54.56,216.89,-196.22,1
3643,54.57,175.54,-257.75,1
3644,54.59,-42.87,-445.92,1
3645,54.6,-191.9,-642.35,1
3646,54.61,-88.41,-639.23,1
3647,54.63,105.1,-496.05,1
3648,54.64,182.17,-383.96,1
3649,54.65,169.8,-321.71,1
3650,54.67,100.84,-332.93,1
3651,54.68,-1.01,-355.55,1
3652,54.69,-2.04,-181.0,1
3653,54.71,32.09,-12.26,1
3654,54.72,-113.6,-170.08,1
3655,54.73,-300.48,-338.67,1
3656,54.75,-216.28,-238.75,1
3657,54.76,11.66,-105.29,1
3658,54.77,37.02,-46.17,1
3659,54.79,-87.0,30.49,1
3660,54.8,-150.3,109.66,1
3661,54.81,-204.75,133.39,1
3662,54.82,-267.48,85.67,1
3663,54.84,-250.89,-38.56,1
3664,54.85,-234.77,-181.56,1
3665,54.86,-234.46,-216.05,1
3666,54.88,-157.8,-194.98,1
3667,54.89,-133.94,-190.0,1
3668,54.9,-191.3,-63.9,1
3669,54.92,-33.19,119.54,1
3670,54.93,275.51,131.34,1
3671,54.94,258.28,31.54,1
3672,54.96,-51.17,-13.6,1
3673,54.97,-146.0,-41.05,1
3674,54.98,57.92,-101.68,1
3675,55.0,201.1,-102.99,1
3676,55.01,175.9,-13.82,1
3677,55.02,192.59,50.37,1
3678,55.04,260.25,38.64,1
3679,55.05,201.53,24.57,1
3680,55.06,45.99,41.71,1
3681,55.08,-38.27,54.02,1
3682,55.09,-28.0,58.02,1
3683,55.11,-19.03,83.09,1
3684,55.12,-42.34,124.44,1
3685,55.13,-50.48,156.5,1
3686,55.15,-24.26,189.88,1
3687,55.16,1.11,255.65,1
3688,55.17,-0.87,345.54,1
3689,55.19,-10.79,423.27,1
3690,55.2,-6.17,469.94,1
3691,55.21,1.37,479.82,1
3692,55.22,-2.42,467.93,1
3693,55.24,-6.68,465.03,1
3694,55.25,2.32,470.23,1
3695,55.27,17.61,464.85,1
3696,55.28,23.48,448.13,1
3697,55.29,21.24,428.24,1
3698,55.31,26.98,414.6,1
3699,55.32,38.94,396.73,1
3700,55.33,32.24,350.48,1
3701,55.35,10.69,299.34,1
3702,55.36,11.53,284.95,1
3703,55.37,32.17,291.11,1
3704,55.38,33.11,287.66,1
3705,55.4,11.96,268.88,1
3706,55.41,-0.08,230.35,1
3707,55.43,8.98,193.8,1
3708,55.44,28.44,188.71,1
3709,55.45,40.99,191.34,1
3710,55.46,28.59,173.91,1
3711,55.48,-0.08,154.14,1
3712,55.49,-13.08,144.73,1
3713,55.5,-4.0,135.23,1
3714,55.52,9.9,121.48,1
3715,55.53,16.4,103.91,1
3716,55.54,10.38,85.66,1
3717,55.56,-3.17,74.73,1
3718,55.57,-13.26,68.2,1
3719,55.58,-14.69,53.54,1
3720,55.6,-8.83,29.23,1
3721,55.61,-4.46,4.07,1
3722,55.62,-8.88,-16.0,1
3723,55.64,-17.12,-28.97,1
3724,55.65,-20.06,-36.39,1
3725,55.66,-14.15,-45.8,1
3726,55.68,-7.96,-62.8,1
3727,55.69,-10.91,-78.89,1
3728,55.71,-12.76,-81.8,1
3729,55.72,-5.18,-81.66,1
3730,55.73,-3.17,-95.32,1
3731,55.75,-10.96,-110.81,1
3732,55.76,-11.31,-115.51,1
3733,55.77,-3.91,-122.15,1
3734,55.79,-4.54,-134.65,1
3735,55.8,-12.24,-143.14,1
3736,55.81,-15.06,-144.8,1
3737,55.83,-11.98,-141.28,1
3738,55.84,-7.79,-138.33,1
3739,55.85,-4.87,-141.47,1
3740,55.87,-6.75,-150.52,1
3741,55.88,-9.22,-160.61,1
3742,55.89,-4.22,-162.65,1
3743,55.9,2.42,-158.7,1
3744,55.92,6.19,-157.88,1
3745,55.93,8.93,-160.35,1
3746,55.95,4.91,-164.81,1
3747,55.96,-5.3,-169.47,1
3748,55.97,-13.94,-170.03,1
3749,55.99,-18.11,-169.69,1
3750,56.0,-15.74,-172.95,1
3751,56.01,-12.51,-176.6,1
3752,56.03,-13.26,-176.65,1
3753,56.04,-6.94,-172.4,1
3754,56.05,7.83,-166.28,1
3755,56.06,9.69,-163.04,1
3756,56.08,-7.61,-164.66,1
3757,56.09,-18.69,-164.58,1
3758,56.1,-12.51,-159.28,1
3759,56.12,-5.85,-158.99,1
3760,56.13,-1.88,-161.16,1
3761,56.14,3.5,-148.91,1
3762,56.16,3.33,-133.8,2
3763,56.17,1.01,-133.57,2
3764,56.18,4.07,-129.05,2
3765,56.2,13.91,-109.05,2
3766,56.21,53.14,-94.26,2
3767,56.22,151.47,-94.2,2
3768,56.24,282.28,-101.62,2
3769,56.25,368.93,-110.91,2
3770,56.26,374.49,-113.84,2
3771,56.28,330.2,-109.85,2
3772,56.29,264.07,-114.68,2
3773,56.3,176.44,-130.84,2
3774,56.32,84.13,-135.71,2
3775,56.33,7.5,-124.23,2
3776,56.35,-56.08,-116.67,2
3777,56.36,-107.33,-116.49,2
3778,56.37,-143.19,-108.4,2
3779,56.38,-169.73,-89.34,2
3780,56.4,-188.75,-71.56,2
3781,56.41,-198.12,-62.24,2
3782,56.43,-202.07,-56.44,2
3783,56.44,-204.33,-47.13,2
3784,56.45,-202.75,-31.62,2
3785,56.47,-196.3,-20.87,2
3786,56.48,-190.31,-25.53,2
3787,56.49,-185.41,-24.22,2
3788,56.51,-174.69,1.16,2
3789,56.52,-157.93,25.71,2
3790,56.53,-143.0,28.46,2
3791,56.54,-137.3,23.59,2
3792,56.56,-141.86,26.03,1
3793,56.57,-144.59,32.28,1
3794,56.59,-133.77,38.52,1
3795,56.6,-112.79,48.66,1
3796,56.61,-91.51,52.93,1
3797,56.63,-75.45,39.94,1
3798,56.64,-62.46,27.71,1
3799,56.65,-48.01,32.74,1
3800,56.67,-37.33,44.97,1
3801,56.68,-29.81,50.33,1
3802,56.69,-13.07,46.17,1
3803,56.71,5.81,39.94,1
3804,56.72,7.81,38.77,1
3805,56.73,-0.6,46.1,1
3806,56.74,-1.41,61.03,1
3807,56.76,7.19,70.61,1
3808,56.77,19.19,62.79,1
3809,56.78,28.48,46.18,1
3810,56.8,30.12,40.31,1
3811,56.81,29.88,47.99,1
3812,56.82,34.07,54.68,1
3813,56.84,36.75,55.29,1
3814,56.85,34.72,55.06,1
3815,56.86,36.29,53.6,1
3816,56.88,44.06,49.86,1
3817,56.89,48.83,48.44,1
3818,56.9,45.9,52.8,1
3819,56.92,43.5,62.48,1
3820,56.93,45.8,71.87,1
3821,56.94,47.0,70.21,1
3822,56.96,51.21,58.18,1
3823,56.97,63.08,52.94,1
3824,56.99,66.5,56.83,1
3825,57.0,55.58,55.29,1
3826,57.01,56.02,55.83,1
3827,57.03,73.45,75.27,1
3828,57.04,77.15,93.09,1
3829,57.05,63.69,80.22,1
3830,57.06,66.38,55.42,1
3831,57.08,89.56,48.58,1
3832,57.09,96.99,53.13,1
3833,57.11,71.38,53.34,1
3834,57.12,42.98,45.96,1
3835,57.13,41.1,36.33,1
3836,57.15,51.46,36.49,1
3837,57.16,52.47,47.39,1
3838,57.17,49.65,50.5,1
3839,57.19,50.72,40.94,1
3840,57.2,52.74,36.85,1
3841,57.21,53.73,41.14,1
3842,57.22,50.37,42.25,1
3843,57.24,41.03,42.15,1
3844,57.25,35.88,45.62,1
3845,57.27,40.31,51.51,1
3846,57.28,44.36,52.78,1
3847,57.29,41.8,38.46,1
3848,57.31,35.9,20.36,1
3849,57.32,29.46,23.04,1
3850,57.33,24.64,37.89,1
3851,57.35,20.63,37.88,1
3852,57.36,16.19,22.91,1
3853,57.37,14.95,12.4,1
3854,57.38,13.75,14.82,1
3855,57.4,8.72,19.82,1
3856,57.41,11.11,19.37,1
3857,57.42,23.09,19.17,1
3858,57.44,26.45,17.51,1
3859,57.45,18.78,5.25,1
3860,57.46,14.13,-7.12,1
3861,57.48,10.5,0.36,1
3862,57.49,3.09,18.05,1
3863,57.5,5.5,20.65,1
3864,57.52,16.61,14.04,1
3865,57.53,14.81,15.27,1
3866,57.54,2.79,16.16,1
3867,57.56,2.14,7.07,1
3868,57.57,10.03,-1.97,1
3869,57.58,7.45,-0.77,1
3870,57.6,-5.07,4.14,1
3871,57.61,-11.79,3.61,1
3872,57.63,-10.04,0.21,1
3873,57.64,-10.22,-3.34,1
3874,57.65,-11.07,-8.58,1
3875,57.67,-7.47,-12.59,1
3876,57.68,-3.43,-11.45,1
3877,57.69,-5.23,-6.54,1
3878,57.71,-9.0,-2.88,1
3879,57.72,-4.04,-4.42,1
3880,57.73,0.49,-6.63,1
3881,57.75,-11.06,-5.98,1
3882,57.76,-23.2,-7.71,1
3883,57.77,-19.64,-11.22,1
3884,57.79,-15.79,-13.83,1
3885,57.8,-25.37,-20.2,1
3886,57.81,-33.68,-27.83,1
3887,57.83,-24.61,-28.57,1
3888,57.84,-13.08,-24.51,1
3889,57.85,-22.05,-21.44,1
3890,57.87,-38.89,-18.48,1
3891,57.88,-36.7,-14.63,1
3892,57.89,-23.37,-12.16,1
3893,57.9,-22.27,-12.71,1
3894,57.92,-29.05,-17.01,1
3895,57.93,-28.53,-19.91,1
3896,57.95,-23.39,-17.76,1
3897,57.96,-21.24,-19.32,1
3898,57.97,-14.43,-25.05,1
3899,57.99,0.16,-23.86,1
3900,58.0,-1.16,-16.1,1
3901,58.01,-25.5,-8.16,1
3902,58.02,-38.4,-2.61,1
3903,58.04,-27.58,-5.47,1
3904,58.05,-17.89,-16.85,1
3905,58.06,-20.6,-21.55,1
3906,58.08,-31.46,-12.85,1
3907,58.09,-44.47,-9.94,1
3908,58.1,-43.31,-22.5,1
3909,58.12,-24.24,-29.08,1
3910,58.13,-12.27,-17.24,1
3911,58.14,-19.18,-4.29,1
3912,58.16,-25.25,-1.86,0
3913,58.17,-21.06,-2.03,0
3914,58.18,-16.02,-4.92,0
3915,58.2,-13.42,-14.58,0
3916,58.21,-13.32,-19.49,0
3917,58.22,-11.6,-15.02,0
3918,58.24,-4.26,-15.58,0
3919,58.25,-6.73,-20.6,0
3920,58.26,-22.36,-16.64,0
3921,58.28,-21.91,-8.49,0
3922,58.29,-2.19,-4.68,0
3923,58.31,3.94,1.29,0
3924,58.32,-10.86,10.61,0
3925,58.33,-43.92,10.68,0
3926,58.35,-114.25,-1.94,0
3927,58.36,-214.9,-12.6,0
3928,58.37,-304.65,-15.95,0
3929,58.38,-355.06,-28.8,0
3930,58.4,-361.43,-55.84,0
3931,58.41,-333.81,-74.59,0
3932,58.43,-289.77,-72.09,0
3933,58.44,-244.45,-58.61,0
3934,58.45,-203.45,-40.44,0
3935,58.47,-159.67,-18.06,0
3936,58.48,-96.78,-0.04,0
3937,58.49,-0.22,8.34,0
3938,58.51,127.95,12.54,0
3939,58.52,254.83,15.31,0
3940,58.53,333.45,15.01,0
3941,58.54,351.12,14.73,0
3942,58.56,335.78,16.79,1
3943,58.57,314.03,16.72,1
3944,58.59,294.17,17.99,1
3945,58.6,278.1,29.32,1
3946,58.61,263.72,35.65,1
3947,58.63,245.09,19.45,1
3948,58.64,221.93,2.32,1
3949,58.65,201.38,8.77,1
3950,58.66,184.71,25.65,1
3951,58.68,168.06,30.44,1
3952,58.69,152.05,20.79,1
3953,58.7,135.62,10.76,1
3954,58.72,116.46,12.85,1
3955,58.73,99.3,21.49,1
3956,58.74,92.66,19.4,1
3957,58.76,99.99,3.75,1
3958,58.77,102.42,-7.15,1
3959,58.78,78.57,-4.93,1
3960,58.8,50.3,-0.32,1
3961,58.81,40.05,1.11,1
3962,58.82,28.77,0.82,1
3963,58.84,12.56,-1.24,1
3964,58.85,7.41,-4.37,1
3965,58.86,1.85,-9.22,1
3966,58.88,-13.97,-11.91,1
3967,58.89,-22.77,-7.21,1
3968,58.9,-21.71,-4.44,1
3969,58.92,-28.39,-9.32,1
3970,58.93,-44.19,-12.18,1
3971,58.95,-52.76,-10.91,1
3972,58.96,-49.75,-8.88,1
3973,58.97,-47.58,-2.96,1
3974,58.99,-47.12,3.61,1
3975,59.0,-40.69,2.75,1
3976,59.01,-39.09,-0.17,1
3977,59.03,-51.13,8.61,1
3978,59.04,-60.51,21.37,1
3979,59.05,-55.3,14.5,1
3980,59.06,-49.19,-6.86,1
3981,59.08,-57.91,-16.03,1
3982,59.09,-73.41,-10.57,1
3983,59.11,-75.87,-6.8,1
3984,59.12,-67.55,-7.72,1
3985,59.13,-67.38,-4.04,1
3986,59.15,-74.48,6.35,1
3987,59.16,-73.18,12.56,1
3988,59.17,-64.04,8.28,1
3989,59.19,-61.28,0.31,1
3990,59.2,-68.35,-5.23,1
3991,59.21,-71.87,-5.91,1
3992,59.22,-67.45,-1.27,1
3993,59.24,-69.01,2.91,1
3994,59.25,-76.31,-0.95,1
3995,59.27,-74.42,-8.06,1
3996,59.28,-66.08,-5.72,1
3997,59.29,-63.7,3.78,1
3998,59.3,-61.99,8.07,1
3999,59.32,-52.31,5.43,1
4000,59.33,-44.75,1.03,1
4001,59.34,-47.24,-1.56,1
4002,59.36,-49.07,-3.06,1
4003,59.37,-42.07,-7.17,1
4004,59.38,-33.53,-10.64,1
4005,59.4,-32.73,-5.96,1
4006,59.41,-38.06,4.69,1
4007,59.42,-41.58,11.72,1
4008,59.44,-37.91,11.26,1
4009,59.45,-28.43,5.87,1
4010,59.46,-23.33,1.9,1
4011,59.48,-28.05,5.34,1
4012,59.49,-33.84,11.91,1
4013,59.5,-34.54,10.51,1
4014,59.52,-31.93,2.45,1
4015,59.53,-24.92,2.82,1
4016,59.54,-14.16,12.73,1
4017,59.56,-7.22,11.79,1
4018,59.57,-7.9,-1.02,1
4019,59.59,-10.2,-0.81,1
4020,59.6,-9.45,13.64,1
4021,59.61,-8.28,14.0,1
4022,59.63,-7.48,-4.23,1
4023,59.64,-4.87,-13.9,1
4024,59.65,-3.2,-4.62,1
4025,59.67,-3.26,6.19,1
4026,59.68,-1.87,1.32,1
4027,59.69,-3.42,-15.97,1
4028,59.71,-7.25,-21.8,1
4029,59.72,-2.88,-5.09,1
4030,59.73,8.23,10.45,1
4031,59.75,15.79,7.5,1
4032,59.76,18.64,-0.34,1
4033,59.77,17.99,-2.25,1
4034,59.79,13.24,-6.76,1
4035,59.8,11.52,-15.8,1
4036,59.81,19.62,-14.17,1
4037,59.83,27.25,3.63,1
4038,59.84,22.19,19.69,1
4039,59.85,11.68,23.63,1
4040,59.87,9.99,23.22,1
4041,59.88,15.26,19.9,1
4042,59.89,18.73,8.87,1
4043,59.9,22.61,-3.55,1
4044,59.92,26.47,-0.84,1
4045,59.93,22.94,19.04,1
4046,59.94,19.1,30.0,1
4047,59.96,26.13,19.75,1
4048,59.97,33.99,4.44,1
4049,59.98,28.65,-5.15,1
4050,60.0,19.23,-4.63,1
4051,60.01,19.22,6.69,1
4052,60.02,23.09,14.03,1
4053,60.04,24.1,7.0,1
4054,60.05,28.46,-6.27,1
4055,60.06,34.81,-13.06,1
4056,60.08,30.48,-11.09,1
4057,60.09,20.91,-6.97,1
4058,60.1,22.94,-4.99,1
4059,60.12,28.93,-5.63,1
4060,60.13,26.66,-10.18,1
4061,60.14,25.16,-15.88,1
4062,60.16,29.72,-15.01,0
4063,60.17,34.09,-9.29,0
4064,60.18,33.46,-10.67,0
4065,60.2,28.6,-22.93,0
4066,60.21,25.12,-34.27,0
4067,60.22,14.07,-33.1,0
4068,60.24,-35.19,-25.92,0
4069,60.25,-141.69,-22.16,0
4070,60.27,-274.27,-18.17,0
4071,60.28,-357.37,-12.82,0
4072,60.29,-349.17,-7.75,0
4073,60.31,-288.67,-0.22,0
4074,60.32,-223.41,4.7,0
4075,60.33,-158.86,3.52,0
4076,60.35,-89.15,6.32,0
4077,60.36,-16.52,17.67,0
4078,60.37,51.16,26.45,0
4079,60.38,108.43,21.11,0
4080,60.4,151.07,4.61,0
4081,60.41,176.98,-5.64,0
4082,60.43,194.05,2.13,0
4083,60.44,208.25,15.33,0
4084,60.45,217.05,11.95,0
4085,60.47,219.9,-2.97,0
4086,60.48,220.61,-4.37,0
4087,60.49,218.71,2.16,0
4088,60.51,207.03,-5.73,0
4089,60.52,191.22,-11.0,0
4090,60.53,186.69,4.76,0
4091,60.54,188.74,17.53,0
4092,60.56,181.67,12.53,1
4093,60.57,163.79,6.25,1
4094,60.58,147.67,6.7,1
4095,60.6,142.58,8.87,1
4096,60.61,138.65,9.98,1
4097,60.62,126.3,8.95,1
4098,60.64,115.33,8.46,1
4099,60.65,108.37,8.58,1
4100,60.66,91.95,3.5,1
4101,60.68,67.74,-4.32,1
4102,60.69,51.21,-6.54,1
4103,60.7,41.12,-0.9,1
4104,60.72,27.03,8.47,1
4105,60.73,15.77,14.64,1
4106,60.74,16.14,17.58,1
4107,60.76,15.74,19.35,1
4108,60.77,4.3,15.11,1
4109,60.78,-6.52,6.12,1
4110,60.8,-9.86,3.4,1
4111,60.81,-16.04,7.58,1
4112,60.82,-29.57,8.49,1
4113,60.84,-43.03,6.45,1
4114,60.85,-50.25,8.09,1
4115,60.86,-49.33,9.54,1
4116,60.88,-46.7,7.21,1
4117,60.89,-56.24,6.22,1
4118,60.9,-76.43,5.48,1
4119,60.92,-89.34,0.76,1
4120,60.93,-90.9,-2.29,1
4121,60.95,-89.4,1.07,1
4122,60.96,-84.76,3.53,1
4123,60.97,-75.02,-2.24,1
4124,60.99,-67.52,-8.87,1
4125,61.0,-66.32,-7.47,1
4126,61.01,-65.23,-4.53,1
4127,61.03,-63.66,-7.7,1
4128,61.04,-64.38,-9.55,1
4129,61.05,-63.53,-4.6,1
4130,61.06,-65.31,-1.93,1
4131,61.08,-74.92,-6.72,1
4132,61.09,-81.94,-10.17,1
4133,61.11,-80.02,-8.11,1
4134,61.12,-77.08,-8.59,1
4135,61.13,-75.87,-14.75,1
4136,61.15,-73.05,-18.15,1
4137,61.16,-71.26,-12.84,1
4138,61.17,-73.46,-2.95,1
4139,61.19,-78.83,1.07,1
4140,61.2,-81.72,-5.44,1
4141,61.21,-75.59,-12.99,1
4142,61.22,-64.58,-9.91,1
4143,61.24,-55.63,-1.1,1
4144,61.25,-48.5,-2.09,1
4145,61.26,-43.89,-10.57,1
4146,61.28,-46.54,-10.15,1
4147,61.29,-56.52,-4.79,1
4148,61.3,-62.27,-2.84,1
4149,61.32,-56.4,2.97,1
4150,61.33,-50.19,8.91,1
4151,61.34,-48.51,7.02,1
4152,61.36,-41.06,4.12,1
4153,61.37,-32.37,1.79,1
4154,61.38,-32.36,-3.05,1
4155,61.4,-32.65,-4.84,1
4156,61.41,-30.15,-6.75,1
4157,61.42,-34.52,-14.06,1
4158,61.44,-38.52,-13.4,1
4159,61.45,-33.08,-1.59,1
4160,61.46,-30.07,4.25,1
4161,61.48,-27.57,-0.76,1
4162,61.49,-9.86,-9.24,1
4163,61.5,5.98,-16.79,1
4164,61.52,-5.09,-17.14,1
4165,61.53,-23.1,-9.1,1
4166,61.54,-17.36,-0.67,1
4167,61.56,0.36,3.53,1
4168,61.57,4.12,3.1,1
4169,61.59,-1.24,-0.39,1
4170,61.6,-0.37,-2.77,1
4171,61.61,2.98,-2.0,1
4172,61.63,1.88,1.61,1
4173,61.64,3.82,1.8,1
4174,61.65,14.0,-6.52,1
4175,61.67,19.51,-11.85,1
4176,61.68,17.41,-4.53,1
4177,61.69,19.91,3.42,1
4178,61.71,21.3,1.3,1
4179,61.72,14.76,-3.91,1
4180,61.73,9.15,-7.42,1
4181,61.75,7.01,-11.99,1
4182,61.76,9.73,-14.16,1
4183,61.77,19.1,-8.05,1
4184,61.79,24.81,3.64,1
4185,61.8,21.42,12.21,1
4186,61.81,17.67,11.88,1
4187,61.83,18.9,6.16,1
4188,61.84,20.35,4.29,1
4189,61.85,18.84,6.6,1
4190,61.86,18.15,4.32,1
4191,61.88,25.02,1.36,1
4192,61.89,38.19,7.2,1
4193,61.9,42.77,13.41,1
4194,61.92,31.23,10.23,1
4195,61.93,19.12,2.18,1
4196,61.94,22.09,-1.84,1
4197,61.96,34.05,1.64,1
4198,61.97,37.19,5.51,1
4199,61.98,26.85,8.19,1
4200,62.0,18.03,13.18,1
4201,62.01,22.88,10.0,1
4202,62.02,33.24,-3.36,1
4203,62.04,37.53,-7.46,1
4204,62.05,38.47,2.43,1
4205,62.06,41.63,11.01,1
4206,62.08,40.11,11.93,1
4207,62.09,25.2,8.65,1
4208,62.1,6.23,4.26,1
4209,62.12,0.58,2.06,1
4210,62.13,11.17,1.37,1
4211,62.14,26.35,-0.18,1
4212,62.16,33.99,-0.44,2
4213,62.17,36.37,0.32,2
4214,62.19,37.26,-1.36,2
4215,62.2,29.75,-1.04,2
4216,62.21,21.76,13.55,2
4217,62.22,27.58,44.17,2
4218,62.24,43.76,65.68,2
4219,62.25,84.74,53.66,2
4220,62.27,175.13,26.67,2
4221,62.28,284.38,20.62,2
4222,62.29,353.79,30.21,2
4223,62.31,370.07,22.28,2
4224,62.32,350.52,-3.36,2
4225,62.33,306.64,-23.96,2
4226,62.35,255.77,-33.64,2
4227,62.36,215.19,-34.27,2
4228,62.37,181.48,-29.19,2
4229,62.38,145.49,-25.57,2
4230,62.4,90.91,-26.36,2
4231,62.41,-22.03,-27.63,2
4232,62.43,-186.97,-25.32,2
4233,62.44,-315.18,-24.79,2
4234,62.45,-353.72,-29.01,2
4235,62.47,-344.74,-27.43,2
4236,62.48,-336.69,-18.1,2
4237,62.49,-333.85,-13.39,2
4238,62.5,-321.9,-14.87,2
4239,62.52,-300.88,-13.6,2
4240,62.53,-284.81,-11.71,2
4241,62.54,-273.4,-13.23,2
4242,62.56,-249.83,-10.25,1
4243,62.57,-211.33,-0.49,1
4244,62.58,-176.61,8.12,1
4245,62.6,-160.52,11.76,1
4246,62.61,-156.89,12.24,1
4247,62.62,-145.89,12.97,1
4248,62.64,-122.09,12.03,1
4249,62.65,-97.8,4.94,1
4250,62.66,-69.09,-5.04,1
4251,62.68,-22.3,-12.76,1
4252,62.69,18.35,-11.07,1
4253,62.7,16.56,4.4,1
4254,62.72,-9.29,14.89,1
4255,62.73,-17.25,3.38,1
4256,62.74,-8.61,-14.54,1
4257,62.76,-4.16,-17.04,1
4258,62.77,-1.25,-5.93,1
4259,62.78,8.79,4.5,1
4260,62.8,16.98,6.92,1
4261,62.81,13.98,7.25,1
4262,62.825,9.96,7.65,1
4263,62.84,15.82,2.19,1
4264,62.85,25.85,-1.18,1
4265,62.87,32.31,1.41,1
4266,62.88,39.67,-2.69,1
4267,62.89,47.71,-9.96,1
4268,62.9,46.69,-8.71,1
4269,62.92,41.13,-5.02,1
4270,62.93,44.35,-4.62,1
4271,62.95,53.05,-3.38,1
4272,62.96,57.39,-0.2,1
4273,62.97,60.75,0.57,1
4274,62.99,66.46,-2.94,1
4275,63.0,69.04,-4.99,1
4276,63.01,65.77,1.72,1
4277,63.03,64.44,14.88,1
4278,63.04,70.95,21.79,1
4279,63.05,72.23,14.3,1
4280,63.06,61.25,4.7,1
4281,63.08,56.35,8.54,1
4282,63.09,62.21,16.69,1
4283,63.11,63.07,11.37,1
4284,63.12,58.36,-0.93,1
4285,63.13,58.78,-0.63,1
4286,63.14,63.74,9.91,1
4287,63.16,64.85,12.23,1
4288,63.17,61.14,7.93,1
4289,63.18,60.77,10.65,1
4290,63.2,63.79,11.84,1
4291,63.21,60.96,0.9,1
4292,63.22,52.35,-3.51,1
4293,63.24,47.92,6.84,1
4294,63.25,48.54,9.52,1
4295,63.26,45.43,0.66,1
4296,63.28,40.15,-0.39,1
4297,63.29,41.44,7.46,1
4298,63.3,45.51,10.0,1
4299,63.32,45.72,2.88,1
4300,63.33,45.51,-4.22,1
4301,63.34,45.85,-2.65,1
4302,63.36,41.59,0.09,1
4303,63.37,30.99,-2.16,1
4304,63.38,23.88,0.29,1
4305,63.4,25.97,9.73,1
4306,63.41,26.42,12.67,1
4307,63.42,19.45,2.22,1
4308,63.44,15.49,-7.07,1
4309,63.45,17.62,-0.0,1
4310,63.46,15.98,7.88,1
4311,63.48,11.95,-3.9,1
4312,63.49,12.15,-15.9,1
4313,63.51,10.63,-3.88,1
4314,63.52,6.17,14.49,1
4315,63.53,8.37,17.87,1
4316,63.54,17.61,19.86,1
4317,63.56,21.17,26.95,1
4318,63.57,8.42,20.58,1
4319,63.59,-10.36,4.31,1
4320,63.6,-12.42,-1.4,1
4321,63.61,-2.34,-2.0,1
4322,63.63,-3.27,-5.96,1
4323,63.64,-10.11,-3.65,1
4324,63.65,-7.72,3.96,1
4325,63.67,-7.83,4.4,1
4326,63.68,-15.9,-2.78,1
4327,63.69,-16.81,-9.92,1
4328,63.71,-13.32,-10.2,1
4329,63.72,-17.66,-5.08,1
4330,63.73,-22.34,-7.29,1
4331,63.75,-20.87,-19.55,1
4332,63.76,-21.0,-24.43,1
4333,63.77,-24.5,-13.62,1
4334,63.78,-24.5,-0.3,1
4335,63.8,-17.06,2.67,1
4336,63.81,-9.31,-2.7,1
4337,63.82,-13.13,-8.53,1
4338,63.84,-20.83,-12.89,1
4339,63.85,-15.65,-14.4,1
4340,63.86,-7.34,-9.09,1
4341,63.88,-11.15,-1.74,1
4342,63.89,-17.38,0.83,1
4343,63.9,-18.46,2.35,1
4344,63.92,-23.22,5.12,1
4345,63.93,-29.58,3.44,1
4346,63.94,-28.75,-5.15,1
4347,63.96,-27.93,-12.17,1
4348,63.97,-33.08,-8.25,1
4349,63.98,-32.06,2.95,1
4350,64.0,-21.69,9.95,1
4351,64.01,-15.98,9.6,1
4352,64.02,-19.57,7.68,1
4353,64.04,-23.27,5.61,1
4354,64.05,-24.75,-4.55,1
4355,64.06,-31.14,-21.65,1
4356,64.08,-41.13,-27.25,1
4357,64.09,-42.52,-14.81,1
4358,64.1,-30.48,0.99,1
4359,64.12,-20.25,8.86,1
4360,64.13,-25.77,12.79,1
4361,64.14,-30.55,26.23,1
4362,64.16,-19.69,61.22,1
4363,64.17,-12.1,139.49,1
4364,64.18,-20.81,256.91,1
4365,64.2,-30.41,280.05,1
4366,64.21,-11.91,148.96,1
4367,64.22,37.42,124.32,1
4368,64.24,7.83,315.38,1
4369,64.25,-210.93,403.9,1
4370,64.26,-447.18,273.75,1
4371,64.28,-427.59,171.58,1
4372,64.29,-201.94,178.35,1
4373,64.3,8.63,168.09,1
4374,64.32,73.36,112.41,1
4375,64.33,-59.93,71.56,1
4376,64.34,-197.25,54.15,1
4377,64.36,-82.37,31.68,1
4378,64.37,133.05,2.31,1
4379,64.38,154.7,-21.32,1
4380,64.4,23.27,-39.72,1
4381,64.41,17.38,-58.36,1
4382,64.42,199.39,-76.89,1
4383,64.44,308.86,-92.87,1
4384,64.45,242.12,-119.67,1
4385,64.46,128.8,-167.6,1
4386,64.48,-4.36,-187.91,1
4387,64.49,-111.86,-144.96,1
4388,64.5,-8.2,-111.25,1
4389,64.52,293.49,-176.98,1
4390,64.53,418.31,-317.52,1
4391,64.54,165.45,-354.51,1
4392,64.56,-81.61,-228.46,1
4393,64.57,22.43,-215.82,1
4394,64.58,262.73,-419.22,1
4395,64.6,326.45,-501.31,1
4396,64.61,205.03,-426.75,1
4397,64.62,52.81,-527.93,1
4398,64.64,-11.58,-581.89,1
4399,64.65,41.71,-256.52,1
4400,64.66,163.07,-49.9,1
4401,64.68,244.34,-316.04,1
4402,64.69,225.56,-493.2,1
4403,64.7,109.78,-221.48,1
4404,64.72,-91.42,27.76,1
4405,64.73,-260.63,-46.68,1
4406,64.74,-257.37,-50.7,1
4407,64.76,-174.07,136.86,1
4408,64.77,-209.05,87.0,1
4409,64.79,-256.41,-183.61,1
4410,64.8,-99.75,-230.79,1
4411,64.81,14.98,-39.59,1
4412,64.82,-168.94,74.63,1
4413,64.84,-337.63,29.87,1
4414,64.85,-243.45,-11.47,1
4415,64.86,-48.16,37.7,1
4416,64.88,59.07,85.26,1
4417,64.89,-60.4,-4.29,1
4418,64.9,-298.02,-233.24,1
4419,64.92,-354.95,-338.48,1
4420,64.93,-285.36,-37.56,1
4421,64.94,-242.18,370.14,1
4422,64.96,-97.88,244.75,1
4423,64.97,133.26,-224.69,1
4424,64.98,235.59,-250.95,1
4425,65.0,169.61,71.46,1
4426,65.01,14.7,83.38,1
4427,65.02,-119.29,-135.49,1
4428,65.04,-125.59,-161.72,1
4429,65.05,-85.85,-60.27,1
4430,65.06,-77.22,-27.61,1
4431,65.08,-23.63,17.0,1
4432,65.09,69.01,137.28,1
4433,65.1,127.84,181.13,1
4434,65.12,149.04,61.31,1
4435,65.13,159.18,-64.72,1
4436,65.14,168.19,-51.2,1
4437,65.16,163.04,34.74,1
4438,65.17,134.39,96.27,1
4439,65.18,101.53,154.17,1
4440,65.2,80.93,230.88,1
4441,65.21,64.41,280.23,1
4442,65.22,46.89,288.87,1
4443,65.24,33.98,304.92,1
4444,65.25,29.77,342.24,1
4445,65.26,32.54,367.3,1
4446,65.28,28.93,375.99,1
4447,65.29,15.59,385.92,1
4448,65.3,11.89,388.17,1
4449,65.32,21.05,373.02,1
4450,65.33,23.23,358.63,1
4451,65.34,17.62,357.34,1
4452,65.36,15.8,347.58,1
4453,65.37,15.52,315.57,1
4454,65.38,19.0,289.34,1
4455,65.4,26.83,288.51,1
4456,65.41,23.56,292.66,1
4457,65.42,11.2,279.23,1
4458,65.44,10.57,249.8,1
4459,65.45,22.08,224.27,1
4460,65.46,26.52,217.09,1
4461,65.48,15.42,213.23,1
4462,65.49,-1.23,195.27,1
4463,65.5,-9.65,173.78,1
4464,65.52,-5.77,155.76,1
4465,65.53,-1.57,135.6,1
4466,65.54,-8.94,122.32,1
4467,65.56,-14.74,119.39,1
4468,65.57,-8.97,108.85,1
4469,65.58,-7.73,86.23,1
4470,65.6,-12.85,64.24,1
4471,65.61,-10.23,46.37,1
4472,65.62,-7.77,33.13,1
4473,65.64,-14.37,27.07,1
4474,65.65,-18.48,16.27,1
4475,65.66,-16.77,-5.63,1
4476,65.68,-18.9,-20.59,1
4477,65.69,-23.46,-21.83,1
4478,65.7,-22.03,-27.63,1
4479,65.72,-17.94,-44.55,1
4480,65.73,-20.2,-56.25,1
4481,65.74,-22.55,-55.67,1
4482,65.76,-15.97,-58.77,1
4483,65.77,-9.0,-73.44,1
4484,65.78,-7.48,-82.14,1
4485,65.8,-4.8,-76.69,1
4486,65.81,-3.89,-74.8,1
4487,65.82,-13.34,-87.32,1
4488,65.84,-22.98,-106.28,1
4489,65.85,-14.28,-124.49,1
4490,65.86,3.27,-133.91,1
4491,65.88,3.06,-127.69,1
4492,65.89,-12.03,-124.48,1
4493,65.9,-14.7,-142.48,1
4494,65.92,-4.13,-159.98,1
4495,65.93,-5.72,-156.4,1
4496,65.94,-16.82,-152.12,1
4497,65.96,-14.36,-162.53,1
4498,65.97,-5.83,-165.14,1
4499,65.98,-9.76,-148.93,1
4500,66.0,-15.75,-138.89,1
4501,66.01,-12.27,-146.06,1
4502,66.02,-7.85,-150.51,1
4503,66.04,-4.36,-144.95,1
4504,66.05,1.46,-146.77,1
4505,66.06,0.73,-159.09,1
4506,66.08,-9.92,-159.84,1
4507,66.09,-18.28,-142.17,1
4508,66.11,-14.95,-126.91,1
4509,66.12,-1.17,-125.84,1
4510,66.13,13.07,-130.48,1
4511,66.14,14.28,-134.52,1
4512,66.16,4.41,-135.51,2
4513,66.17,1.98,-131.27,2
4514,66.18,10.0,-126.34,2
4515,66.2,9.7,-118.0,2
4516,66.21,0.13,-100.2,2
4517,66.22,21.8,-92.31,2
4518,66.24,119.77,-107.35,2
4519,66.25,270.36,-123.07,2
4520,66.26,377.62,-135.68,2
4521,66.28,383.17,-160.5,2
4522,66.29,324.33,-173.79,2
4523,66.3,249.5,-149.51,2
4524,66.32,165.16,-116.01,2
4525,66.33,78.62,-105.23,2
4526,66.34,6.93,-107.55,2
4527,66.36,-45.78,-108.49,2
4528,66.37,-86.93,-107.78,2
4529,66.38,-123.41,-99.13,2
4530,66.4,-151.84,-79.73,2
4531,66.41,-167.22,-63.12,2
4532,66.42,-172.06,-57.44,2
4533,66.44,-171.46,-52.15,2
4534,66.45,-174.22,-37.61,2
4535,66.46,-182.63,-24.88,2
4536,66.48,-184.68,-23.8,2
4537,66.49,-175.66,-21.03,2
4538,66.5,-168.98,-10.48,2
4539,66.52,-169.18,-2.25,2
4540,66.53,-166.65,5.75,2
4541,66.54,-162.39,16.09,2
4542,66.56,-157.52,17.98,1
4543,66.57,-143.12,11.57,1
4544,66.58,-126.72,9.13,1
4545,66.6,-120.41,14.83,1
4546,66.61,-113.21,25.23,1
4547,66.62,-92.94,32.81,1
4548,66.64,-68.38,33.06,1
4549,66.65,-54.68,34.12,1
4550,66.66,-52.58,38.67,1
4551,66.68,-50.95,36.39,1
4552,66.69,-45.47,30.49,1
4553,66.7,-39.54,30.39,1
4554,66.72,-32.02,33.41,1
4555,66.73,-19.32,41.27,1
4556,66.75,-8.48,55.28,1
4557,66.76,-4.89,61.13,1
4558,66.77,1.56,53.48,1
4559,66.79,16.79,44.5,1
4560,66.8,27.83,41.34,1
4561,66.81,26.54,40.74,1
4562,66.82,25.87,37.84,1
4563,66.84,35.21,33.53,1
4564,66.85,40.45,33.55,1
4565,66.86,33.52,37.08,1
4566,66.88,35.22,39.47,1
4567,66.89,55.11,42.62,1
4568,66.9,69.77,46.49,1
4569,66.92,64.35,46.94,1
4570,66.93,54.4,45.44,1
4571,66.94,53.43,45.91,1
4572,66.96,53.87,48.37,1
4573,66.97,53.18,51.56,1
4574,66.98,60.13,51.69,1
4575,67.0,67.76,44.15,1
4576,67.01,65.88,33.95,1
4577,67.02,59.7,34.83,1
4578,67.04,57.29,53.44,1
4579,67.05,59.29,74.26,1
4580,67.06,61.99,74.34,1
4581,67.08,64.55,59.62,1
4582,67.09,68.09,49.19,1
4583,67.1,67.22,40.94,1
4584,67.12,55.11,31.34,1
4585,67.13,40.71,27.82,1
4586,67.14,44.77,30.88,1
4587,67.16,65.25,33.27,1
4588,67.17,73.52,36.27,1
4589,67.18,64.45,46.65,1
4590,67.2,60.69,52.16,1
4591,67.21,60.79,42.36,1
4592,67.22,50.96,34.72,1
4593,67.24,43.91,37.75,1
4594,67.25,50.72,38.66,1
4595,67.26,58.48,35.88,1
4596,67.28,57.4,35.49,1
4597,67.29,49.51,35.32,1
4598,67.3,40.71,32.88,1
4599,67.32,36.88,29.38,1
4600,67.33,34.23,29.52,1
4601,67.34,27.83,33.61,1
4602,67.36,26.23,31.09,1
4603,67.37,28.88,22.83,1
4604,67.38,22.37,21.15,1
4605,67.4,14.58,22.24,1
4606,67.41,20.7,16.35,1
4607,67.43,29.15,9.76,1
4608,67.44,24.92,11.96,1
4609,67.45,15.77,20.17,1
4610,67.46,11.38,23.33,1
4611,67.48,9.29,17.92,1
4612,67.49,8.02,13.12,1
4613,67.5,7.22,18.04,1
4614,67.52,1.12,26.8,1
4615,67.53,-8.42,23.49,1
4616,67.54,-6.74,8.28,1
4617,67.56,4.02,-2.68,1
4618,67.57,1.4,-0.89,1
4619,67.58,-12.94,7.83,1
4620,67.6,-11.1,12.41,1
4621,67.61,5.23,11.29,1
4622,67.62,7.67,9.47,1
4623,67.64,-5.4,8.75,1
4624,67.65,-12.07,7.97,1
4625,67.66,-9.08,0.42,1
4626,67.68,-10.29,-11.89,1
4627,67.69,-18.44,-13.78,1
4628,67.7,-21.09,-4.53,1
4629,67.72,-15.59,1.12,1
4630,67.73,-13.77,-0.22,1
4631,67.74,-18.04,-2.95,1
4632,67.76,-18.96,-5.79,1
4633,67.77,-17.94,-7.53,1
4634,67.78,-23.42,-8.23,1
4635,67.8,-29.76,-7.77,1
4636,67.81,-25.35,-6.45,1
4637,67.82,-15.28,-11.28,1
4638,67.84,-13.9,-23.05,1
4639,67.85,-25.41,-27.88,1
4640,67.86,-36.24,-17.71,1
4641,67.88,-30.99,-5.41,1
4642,67.89,-17.57,-4.45,1
4643,67.9,-13.12,-8.56,1
4644,67.92,-17.94,-10.26,1
4645,67.93,-22.77,-10.06,1
4646,67.94,-21.91,-7.07,1
4647,67.96,-16.95,-5.27,1
4648,67.97,-19.92,-6.97,1
4649,67.98,-33.39,-5.15,1
4650,68.0,-35.07,-4.89,1
4651,68.01,-18.46,-15.76,1
4652,68.02,-8.6,-23.17,1
4653,68.04,-15.47,-14.21,1
4654,68.05,-25.67,-4.3,1
4655,68.06,-27.44,-6.79,1
4656,68.08,-21.95,-13.8,1
4657,68.09,-22.72,-15.81,1
4658,68.11,-29.62,-13.05,1
4659,68.12,-27.78,-7.93,1
4660,68.13,-22.17,-4.54,1
4661,68.14,-22.75,-11.43,1
4662,68.16,-17.53,-23.91,0
4663,68.17,-8.0,-24.46,0
4664,68.18,-13.12,-14.29,0
4665,68.2,-25.38,-7.68,0
4666,68.21,-26.34,-4.8,0
4667,68.22,-22.88,-4.08,0
4668,68.24,-23.45,-11.63,0
4669,68.25,-12.09,-20.66,0
4670,68.26,10.47,-16.66,0
4671,68.28,14.38,-6.83,0
4672,68.29,-6.19,-6.25,0
4673,68.3,-59.44,-10.73,0
4674,68.32,-168.1,-13.69,0
4675,68.33,-283.11,-21.95,0
4676,68.34,-334.72,-32.93,0
4677,68.36,-342.1,-35.2,0
4678,68.37,-342.85,-32.88,0
4679,68.38,-320.44,-29.1,0
4680,68.4,-268.94,-18.16,0
4681,68.41,-219.68,-6.68,0
4682,68.42,-183.25,-3.83,0
4683,68.44,-136.17,-5.77,0
4684,68.45,-60.53,-5.68,0
4685,68.46,45.41,-4.59,0
4686,68.48,170.44,-4.42,0
4687,68.49,275.98,-0.59,0
4688,68.5,325.64,6.47,0
4689,68.52,333.32,9.88,0
4690,68.53,328.86,10.76,0
4691,68.54,313.86,10.31,0
4692,68.56,287.48,4.86,1
4693,68.57,263.85,2.1,1
4694,68.58,249.54,11.49,1
4695,68.6,237.5,20.55,1
4696,68.61,222.07,13.31,1
4697,68.62,206.15,-3.64,1
4698,68.64,189.2,-13.17,1
4699,68.65,163.64,-9.12,1
4700,68.66,134.58,-0.49,1
4701,68.68,118.89,3.52,1
4702,68.69,116.12,4.43,1
4703,68.7,108.34,2.21,1
4704,68.72,92.51,-6.98,1
4705,68.73,81.86,-12.2,1
4706,68.75,77.12,-1.63,1
4707,68.76,65.92,9.4,1
4708,68.77,46.05,3.62,1
4709,68.79,30.77,-8.92,1
4710,68.8,24.88,-13.46,1
4711,68.81,17.28,-11.5,1
4712,68.82,5.36,-9.91,1
4713,68.84,-3.27,-9.08,1
4714,68.85,-7.09,-6.06,1
4715,68.86,-10.24,-4.75,1
4716,68.88,-15.52,-7.34,1
4717,68.89,-23.63,-4.48,1
4718,68.9,-35.2,2.54,1
4719,68.92,-44.93,0.47,1
4720,68.93,-49.08,-7.28,1
4721,68.94,-53.46,-8.38,1
4722,68.96,-56.18,-2.56,1
4723,68.97,-55.49,4.2,1
4724,68.98,-62.21,7.65,1
4725,69.0,-71.6,6.58,1
4726,69.01,-71.59,2.72,1
4727,69.02,-68.87,-0.13,1
4728,69.04,-68.57,4.4,1
4729,69.05,-68.81,17.51,1
4730,69.06,-70.49,24.81,1
4731,69.08,-73.0,14.86,1
4732,69.09,-74.07,1.03,1
4733,69.1,-72.4,-1.31,1
4734,69.12,-71.79,1.01,1
4735,69.13,-74.16,-1.99,1
4736,69.14,-73.12,-3.45,1
4737,69.16,-71.22,2.85,1
4738,69.17,-72.79,6.24,1
4739,69.18,-67.77,0.45,1
4740,69.2,-61.25,-2.54,1
4741,69.21,-67.81,3.79,1
4742,69.22,-72.81,7.26,1
4743,69.24,-63.7,0.11,1
4744,69.25,-55.02,-4.33,1
4745,69.26,-52.63,5.2,1
4746,69.28,-49.18,16.08,1
4747,69.29,-46.25,13.47,1
4748,69.3,-47.21,4.55,1
4749,69.32,-45.16,3.01,1
4750,69.33,-39.99,9.05,1
4751,69.34,-42.27,14.95,1
4752,69.36,-46.84,16.96,1
4753,69.37,-43.19,13.19,1
4754,69.38,-40.66,1.79,1
4755,69.4,-47.31,-9.89,1
4756,69.41,-49.88,-10.25,1
4757,69.43,-38.21,-3.59,1
4758,69.44,-27.3,-1.81,1
4759,69.45,-27.36,-4.15,1
4760,69.46,-24.5,-4.4,1
4761,69.48,-15.9,-3.46,1
