,Timestamp,Data1,Data2,Label
0,6.0,7.07,-3.79,1
1,6.01,-6.85,8.53,1
2,6.03,4.15,0.05,1
3,6.04,14.67,5.89,1
4,6.05,-6.77,-17.37,1
5,6.07,-8.26,-2.22,1
6,6.08,10.95,-6.55,1
7,6.09,-7.13,8.8,1
8,6.11,-0.61,-4.13,1
9,6.12,-7.16,1.64,1
10,6.13,10.26,2.7,1
11,6.15,-3.06,15.98,2
12,6.16,-0.68,17.04,2
13,6.17,-1.07,10.38,2
14,6.19,28.38,-8.86,2
15,6.2,6.85,-8.73,2
16,6.21,70.16,3.5,2
17,6.23,181.47,11.81,2
18,6.24,190.12,29.67,2
19,6.25,186.42,23.75,2
20,6.27,167.22,8.14,2
21,6.28,83.3,-11.57,2
22,6.29,36.74,-7.88,2
23,6.31,-74.79,-43.89,2
24,6.32,-91.27,-56.93,2
25,6.33,-122.32,-66.28,2
26,6.35,-168.3,-49.26,2
27,6.36,-172.14,-21.24,2
28,6.37,-171.58,-24.84,2
29,6.39,-162.65,-8.45,2
30,6.4,-142.38,-5.17,2
31,6.41,-151.08,-1.74,2
32,6.43,-145.55,26.33,2
33,6.44,-120.33,31.52,2
34,6.45,-89.18,29.08,2
35,6.47,-92.8,47.96,2
36,6.48,-96.1,49.23,2
37,6.49,-60.17,39.43,2
38,6.51,-40.37,40.32,2
39,6.52,-30.65,29.96,2
40,6.53,-18.25,18.7,2
41,6.55,19.73,30.31,2
42,6.56,27.29,26.02,1
43,6.57,41.0,14.21,1
44,6.59,65.03,-3.19,1
45,6.6,71.02,-8.71,1
46,6.61,72.75,7.29,1
47,6.63,64.14,-18.59,1
48,6.64,88.64,-31.2,1
49,6.65,89.74,-8.13,1
50,6.67,73.51,-13.73,1
51,6.68,78.8,-15.56,1
52,6.69,88.24,11.47,1
53,6.71,87.7,-1.15,1
54,6.72,56.15,-18.1,1
55,6.73,64.08,-9.33,1
56,6.75,73.47,15.83,1
57,6.76,60.58,8.08,1
58,6.77,52.69,-3.77,1
59,6.79,57.0,3.45,1
60,6.8,72.59,-10.32,1
61,6.81,55.64,-24.97,1
62,6.83,52.15,-17.99,1
63,6.84,23.1,-17.39,1
64,6.85,40.29,-29.08,1
65,6.87,35.47,-18.55,1
66,6.88,28.15,-6.8,1
67,6.89,-0.7,-14.64,1
68,6.91,27.17,-27.55,1
69,6.92,17.13,-19.75,1
70,6.93,5.56,2.91,1
71,6.95,-3.21,3.1,1
72,6.96,-23.64,-13.45,1
73,6.97,-8.62,14.11,1
74,6.99,-20.2,6.11,1
75,7.0,-2.76,-5.22,1
76,7.01,-5.13,2.63,1
77,7.03,-36.14,-4.0,1
78,7.04,-22.33,-9.98,1
79,7.05,-33.9,-7.92,1
80,7.07,-19.85,6.07,1
81,7.08,-35.69,-2.07,1
82,7.09,-57.21,9.08,1
83,7.11,-32.46,11.08,1
84,7.12,-36.15,9.86,1
85,7.13,-35.87,4.48,1
86,7.15,-37.98,0.34,1
87,7.16,-4.88,-9.49,1
88,7.17,-38.43,4.18,1
89,7.19,-37.9,3.55,1
90,7.2,-23.63,9.11,1
91,7.21,-9.53,15.07,1
92,7.23,-22.35,13.66,1
93,7.24,-28.1,32.19,1
94,7.25,-34.39,15.31,1
95,7.27,-18.85,-4.31,1
96,7.28,-18.62,-0.96,1
97,7.29,-22.65,-4.9,1
98,7.31,-21.99,1.73,1
99,7.32,-8.46,-4.08,1
100,7.33,-18.81,3.68,1
101,7.35,-13.22,7.01,1
102,7.36,-2.87,2.23,1
103,7.37,-5.18,9.18,1
104,7.39,-11.04,18.25,1
105,7.4,-7.46,4.38,1
106,7.41,4.97,-11.27,1
107,7.43,1.0,8.67,1
108,7.44,-21.26,14.07,1
109,7.45,-7.47,-2.6,1
110,7.47,7.79,8.35,1
111,7.48,-4.08,1.16,1
112,7.49,-4.64,9.34,1
113,7.51,9.24,5.32,1
114,7.52,16.86,-3.47,1
115,7.53,17.41,2.53,1
116,7.55,10.82,-4.68,1
117,7.56,4.93,0.68,1
118,7.57,9.12,12.37,1
119,7.59,0.7,4.01,1
120,7.6,-7.97,-12.36,1
121,7.61,12.9,-10.72,1
122,7.63,34.06,-8.27,1
123,7.64,11.36,5.85,1
124,7.65,-5.43,-6.65,1
125,7.67,-8.14,-3.08,1
126,7.68,24.48,-5.73,1
127,7.69,9.42,-21.97,1
128,7.71,12.64,-0.8,1
129,7.72,-7.64,-9.86,1
130,7.73,10.37,-10.07,1
131,7.75,8.18,-17.0,1
132,7.76,14.02,-6.95,1
133,7.77,37.24,-15.39,1
134,7.79,1.65,1.22,1
135,7.8,-2.2,-2.34,1
136,7.81,19.12,-1.67,1
137,7.83,24.51,-3.17,1
138,7.84,8.75,-5.48,1
139,7.85,-8.66,-10.49,1
140,7.87,1.37,-6.77,1
141,7.88,8.84,21.78,1
142,7.89,-17.09,4.88,1
143,7.91,-11.43,2.81,1
144,7.92,-12.74,1.65,1
145,7.93,10.31,2.95,1
146,7.95,-8.53,3.08,1
147,7.96,-3.88,8.02,1
148,7.97,-9.35,-0.49,1
149,7.99,9.81,0.39,1
150,8.0,16.03,-4.53,1
151,8.01,-3.32,7.31,1
152,8.03,-13.16,-7.42,1
153,8.04,10.88,-7.21,1
154,8.05,12.39,-5.08,1
155,8.07,-1.94,-0.24,1
156,8.08,10.37,9.33,1
157,8.09,11.33,6.24,1
158,8.11,-1.1,7.14,1
159,8.12,-13.08,-1.97,1
160,8.13,-7.16,9.5,1
161,8.15,-5.05,11.33,0
162,8.16,27.06,14.65,0
163,8.17,-100.01,-10.59,0
164,8.19,-129.21,8.77,0
165,8.2,-178.21,19.62,0
166,8.21,-198.85,12.37,0
167,8.23,-192.77,13.63,0
168,8.24,-163.25,10.62,0
169,8.25,-119.18,-6.67,0
170,8.27,-81.24,-37.65,0
171,8.28,-29.82,-30.37,0
172,8.29,43.37,-26.74,0
173,8.31,122.86,-33.04,0
174,8.32,221.67,-17.94,0
175,8.33,281.61,-14.32,0
176,8.35,316.67,-5.88,0
177,8.36,298.23,-4.71,0
178,8.37,274.79,7.93,0
179,8.39,238.17,4.63,0
180,8.4,210.62,21.58,0
181,8.41,162.66,18.24,0
182,8.43,119.98,12.03,0
183,8.44,89.23,23.14,0
184,8.45,73.58,33.42,0
185,8.47,18.78,15.14,0
186,8.48,-18.13,16.75,0
187,8.49,31.5,31.21,0
188,8.51,-34.16,22.69,0
189,8.52,-60.03,8.99,0
190,8.53,-76.41,2.06,0
191,8.55,-92.52,-8.03,1
192,8.56,-118.62,-21.82,1
193,8.57,-114.39,-15.34,1
194,8.59,-128.23,-16.49,1
195,8.6,-119.5,1.62,1
196,8.61,-118.29,11.49,1
197,8.63,-120.88,-7.81,1
198,8.64,-110.6,2.65,1
199,8.65,-90.33,-6.3,1
200,8.67,-121.36,-3.45,1
201,8.68,-103.28,-4.14,1
202,8.69,-86.27,-17.34,1
203,8.71,-75.19,-14.19,1
204,8.72,-69.82,-24.02,1
205,8.73,-83.27,-0.48,1
206,8.75,-56.02,-10.23,1
207,8.76,-45.77,1.66,1
208,8.77,-53.72,-16.22,1
209,8.79,-50.99,-11.75,1
210,8.8,-51.4,6.11,1
211,8.81,-28.39,-2.74,1
212,8.83,-20.58,-3.09,1
213,8.84,-9.12,-6.92,1
214,8.85,0.4,-6.53,1
215,8.87,-10.22,8.25,1
216,8.88,-0.11,-15.18,1
217,8.89,4.17,10.97,1
218,8.91,16.59,16.87,1
219,8.92,8.04,1.85,1
220,8.93,14.37,1.67,1
221,8.95,21.3,-4.28,1
222,8.96,39.56,1.5,1
223,8.97,31.15,-14.64,1
224,8.99,27.75,9.07,1
225,9.0,27.83,9.22,1
226,9.01,58.08,3.62,1
227,9.03,30.03,4.26,1
228,9.04,36.93,-19.93,1
229,9.05,50.32,-0.72,1
230,9.07,39.17,10.63,1
231,9.08,34.59,14.02,1
232,9.09,41.48,18.79,1
233,9.11,44.57,-1.47,1
234,9.12,48.78,13.5,1
235,9.13,33.1,-4.19,1
236,9.15,34.49,10.04,1
237,9.16,21.57,0.55,1
238,9.17,57.06,4.2,1
239,9.19,41.01,-4.63,1
240,9.2,44.83,-8.01,1
241,9.21,1.09,5.52,1
242,9.23,33.25,-21.01,1
243,9.24,28.35,-0.08,1
244,9.25,24.53,-4.93,1
245,9.27,30.14,6.05,1
246,9.28,9.9,7.77,1
247,9.29,-5.53,21.03,1
248,9.31,12.05,9.4,1
249,9.32,3.46,19.45,1
250,9.33,1.03,-11.81,1
251,9.35,-5.58,2.24,1
252,9.36,4.0,-4.01,1
253,9.37,23.37,-1.5,1
254,9.39,5.61,-5.47,1
255,9.4,3.26,-0.42,1
256,9.41,-5.57,0.17,1
257,9.43,-5.06,-11.44,1
258,9.44,-27.37,-0.61,1
259,9.45,-17.88,-11.51,1
260,9.47,-20.31,-2.62,1
261,9.48,-9.37,-5.87,1
262,9.49,-11.87,-1.99,1
263,9.51,-0.66,-13.3,1
264,9.52,-15.42,0.18,1
265,9.53,3.93,6.87,1
266,9.55,-24.48,5.19,1
267,9.56,-23.64,4.72,1
268,9.57,-10.54,5.63,1
269,9.59,1.26,3.78,1
270,9.6,-21.71,4.22,1
271,9.61,-15.36,-11.76,1
272,9.63,-7.81,-0.02,1
273,9.64,-24.3,-3.13,1
274,9.65,-1.22,-24.49,1
275,9.67,-3.76,6.74,1
276,9.68,-10.01,4.71,1
277,9.69,-4.31,4.79,1
278,9.71,-12.66,8.22,1
279,9.72,-8.65,-16.18,1
280,9.73,-4.9,16.22,1
281,9.75,-15.63,0.76,1
282,9.76,-15.78,-4.96,1
283,9.77,0.35,8.69,1
284,9.79,10.05,2.17,1
285,9.8,1.5,-19.81,1
286,9.81,-10.84,9.41,1
287,9.83,-12.31,1.01,1
288,9.84,-2.07,-4.84,1
289,9.85,13.87,15.51,1
290,9.87,-0.1,3.67,1
291,9.88,-14.62,0.5,1
292,9.89,-6.26,5.15,1
293,9.91,-9.32,-17.17,1
294,9.92,-6.8,-12.65,1
295,9.93,-20.59,7.83,1
296,9.95,17.12,-19.29,1
297,9.96,-0.05,1.96,1
298,9.97,-3.38,2.93,1
299,9.99,13.65,12.72,1
300,10.0,8.55,9.26,1
301,10.01,-13.68,-2.13,1
302,10.03,-23.07,15.93,1
303,10.04,4.21,10.86,1
304,10.05,14.98,3.77,1
305,10.07,-14.34,-4.27,1
306,10.08,5.53,-1.85,1
307,10.09,16.67,-12.64,1
308,10.11,2.4,2.67,1
309,10.12,13.52,8.78,1
310,10.13,15.81,4.37,1
311,10.15,34.42,-8.58,0
312,10.16,10.72,-3.85,0
313,10.17,-60.73,-14.01,0
314,10.19,-123.07,-3.25,0
315,10.2,-176.52,-1.05,0
316,10.21,-202.57,-0.77,0
317,10.23,-189.09,-22.04,0
318,10.24,-136.15,-12.72,0
319,10.25,-80.71,-22.14,0
320,10.27,-1.16,-20.41,0
321,10.28,29.22,-15.86,0
322,10.29,116.26,-10.68,0
323,10.31,154.57,7.29,0
324,10.32,155.32,26.14,0
325,10.33,178.07,19.5,0
326,10.35,192.35,12.09,0
327,10.36,200.64,3.35,0
328,10.37,180.62,-20.63,0
329,10.39,174.04,-15.31,0
330,10.4,165.59,29.93,0
331,10.41,134.21,28.74,0
332,10.43,117.08,13.68,0
333,10.44,75.07,7.23,0
334,10.45,83.24,22.31,0
335,10.47,55.54,1.19,0
336,10.48,39.16,-1.64,0
337,10.49,5.89,-5.37,0
338,10.51,8.65,-1.34,0
339,10.52,-15.72,20.33,0
340,10.53,-25.96,3.45,0
341,10.55,-58.72,29.98,1
342,10.56,-65.65,23.46,1
343,10.57,-68.1,8.66,1
344,10.59,-81.52,-6.71,1
345,10.6,-83.05,6.58,1
346,10.61,-68.77,3.03,1
347,10.63,-102.95,1.88,1
348,10.64,-116.01,-2.71,1
349,10.65,-103.8,-0.03,1
350,10.67,-76.89,-6.25,1
351,10.68,-87.89,-26.85,1
352,10.69,-81.5,-12.64,1
353,10.71,-74.37,-13.47,1
354,10.72,-62.2,-7.49,1
355,10.73,-64.05,-18.6,1
356,10.75,-70.61,-9.56,1
357,10.76,-46.84,-3.04,1
358,10.77,-64.58,-10.6,1
359,10.79,-54.91,2.49,1
360,10.8,-43.72,-14.03,1
361,10.81,-50.41,-3.73,1
362,10.83,-45.14,-5.39,1
363,10.84,-58.32,-11.35,1
364,10.85,-33.4,-2.71,1
365,10.87,-14.09,-5.38,1
366,10.88,-14.01,-9.48,1
367,10.89,-5.01,-12.83,1
368,10.91,-1.78,12.17,1
369,10.92,15.15,4.34,1
370,10.93,8.71,-0.27,1
371,10.95,7.25,-0.1,1
372,10.96,12.47,2.77,1
373,10.97,18.46,16.03,1
374,10.99,29.33,16.06,1
375,11.0,14.78,-4.8,1
376,11.01,30.96,-0.01,1
377,11.03,53.43,3.33,1
378,11.04,24.27,-13.52,1
379,11.05,22.39,-5.38,1
380,11.07,29.63,-11.78,1
381,11.08,57.47,6.71,1
382,11.09,27.6,4.74,1
383,11.11,36.44,9.45,1
384,11.12,35.22,10.36,1
385,11.13,24.65,3.34,1
386,11.15,14.12,4.31,1
387,11.16,27.31,-0.36,1
388,11.17,26.15,1.41,1
389,11.19,19.82,1.9,1
390,11.2,34.99,-3.79,1
391,11.21,37.48,9.11,1
392,11.23,46.81,-6.36,1
393,11.24,31.38,-14.97,1
394,11.25,34.45,9.5,1
395,11.27,11.2,-15.41,1
396,11.28,40.69,4.1,1
397,11.29,43.02,11.71,1
398,11.31,25.21,12.23,1
399,11.32,7.5,-11.93,1
400,11.33,5.24,-7.33,1
401,11.35,7.85,-7.71,1
402,11.36,11.25,2.11,1
403,11.37,-5.22,6.26,1
404,11.39,1.55,-2.27,1
405,11.4,-5.88,5.98,1
406,11.41,-6.19,-6.82,1
407,11.43,2.0,-7.91,1
408,11.44,14.7,16.39,1
409,11.45,-0.93,-11.81,1
410,11.47,-11.36,10.06,1
411,11.48,8.64,10.73,1
412,11.49,-20.22,1.1,1
413,11.51,-16.56,3.21,1
414,11.52,-18.9,8.9,1
415,11.53,3.52,5.36,1
416,11.55,-9.35,10.44,1
417,11.56,-29.0,17.34,1
418,11.57,-11.79,-13.75,1
419,11.59,1.13,-4.6,1
420,11.6,-11.66,-1.38,1
421,11.61,-25.25,12.69,1
422,11.63,-19.2,-0.42,1
423,11.64,21.61,-0.99,1
424,11.65,-26.57,-4.05,1
425,11.67,-28.33,-10.41,1
426,11.68,-20.5,0.51,1
427,11.69,-3.89,7.85,1
428,11.71,2.46,7.95,1
429,11.72,-11.26,-1.21,1
430,11.73,-10.3,-6.94,1
431,11.75,-0.45,-17.01,1
432,11.76,-3.07,7.88,1
433,11.77,-7.51,-16.84,1
434,11.79,-6.8,-8.42,1
435,11.8,1.51,-11.12,1
436,11.81,-3.22,6.24,1
437,11.83,-24.88,0.47,1
438,11.84,12.14,-0.83,1
439,11.85,5.82,1.56,1
440,11.87,-0.27,-3.27,1
441,11.88,0.49,0.96,1
442,11.89,11.45,7.69,1
443,11.91,-11.88,6.92,1
444,11.92,-19.91,-13.89,1
445,11.93,-16.99,-9.95,1
446,11.95,0.98,-4.73,1
447,11.96,3.06,12.26,1
448,11.97,-8.82,-7.55,1
449,11.99,-6.26,0.62,1
450,12.0,13.94,-4.5,1
451,12.01,-9.99,-5.74,1
452,12.03,-36.69,-2.33,1
453,12.04,5.33,10.87,1
454,12.05,35.14,14.7,1
455,12.07,103.76,0.7,1
456,12.08,110.89,0.84,1
457,12.09,51.51,7.71,1
458,12.11,8.99,-5.05,1
459,12.12,0.88,-7.41,1
460,12.13,45.95,-4.42,1
461,12.15,84.72,10.41,2
462,12.16,204.02,15.73,2
463,12.17,160.02,39.36,2
464,12.19,163.86,17.57,2
465,12.2,109.77,30.04,2
466,12.21,70.55,5.58,2
467,12.23,27.42,-16.0,2
468,12.24,-22.54,-12.57,2
469,12.25,-160.81,-17.78,2
470,12.27,-246.43,-25.4,2
471,12.28,-304.32,-6.64,2
472,12.29,-314.84,-20.72,2
473,12.31,-301.5,-19.29,2
474,12.32,-280.97,-12.77,2
475,12.33,-244.22,-5.73,2
476,12.35,-204.61,-11.57,2
477,12.36,-157.44,1.29,2
478,12.37,-111.3,-7.59,2
479,12.39,-82.13,-8.06,2
480,12.4,-41.42,-5.28,2
481,12.41,17.15,3.87,2
482,12.43,11.86,-2.71,2
483,12.44,34.37,-14.21,2
484,12.45,55.07,4.43,2
485,12.47,95.91,-6.18,2
486,12.48,89.48,5.52,2
487,12.49,90.17,20.52,2
488,12.51,99.06,1.02,2
489,12.52,102.3,9.58,2
490,12.53,108.55,10.96,2
491,12.55,101.38,8.92,1
492,12.56,93.35,15.01,1
493,12.57,116.23,-3.02,1
494,12.59,96.7,1.74,1
495,12.6,97.1,-4.32,1
496,12.61,115.39,2.04,1
497,12.63,101.84,2.21,1
498,12.64,93.45,-6.67,1
499,12.65,73.66,3.5,1
500,12.67,94.09,8.8,1
501,12.68,78.65,1.27,1
502,12.69,62.5,0.3,1
503,12.71,58.46,7.19,1
504,12.72,55.7,13.22,1
505,12.73,49.6,12.05,1
506,12.75,42.59,-9.18,1
507,12.76,16.58,5.23,1
508,12.77,36.61,-10.18,1
509,12.79,9.36,-11.88,1
510,12.8,14.05,7.05,1
511,12.81,8.64,2.83,1
512,12.83,9.72,7.23,1
513,12.84,-7.89,-3.47,1
514,12.85,-32.49,-3.2,1
515,12.87,-18.31,-8.31,1
516,12.88,-16.09,-0.39,1
517,12.89,-19.02,-1.25,1
518,12.91,-39.4,6.88,1
519,12.92,-36.64,-1.43,1
520,12.93,-24.02,7.44,1
521,12.95,-30.6,9.45,1
522,12.96,-47.76,-4.62,1
523,12.97,-35.83,-13.49,1
524,12.99,-35.25,-0.5,1
525,13.0,-45.1,-16.1,1
526,13.01,-50.56,2.82,1
527,13.03,-34.87,0.78,1
528,13.04,-48.74,8.73,1
529,13.05,-55.15,-6.11,1
530,13.07,-43.71,4.71,1
531,13.08,-15.26,4.75,1
532,13.09,-38.24,-7.0,1
533,13.11,-36.29,12.84,1
534,13.12,-40.17,2.89,1
535,13.13,-26.81,-4.11,1
536,13.15,-24.98,-8.71,1
537,13.16,-30.93,13.57,1
538,13.17,-31.7,16.52,1
539,13.19,-21.88,-3.93,1
540,13.2,-24.64,-0.1,1
541,13.21,-17.14,-6.08,1
542,13.23,-13.61,-19.12,1
543,13.24,-10.53,1.52,1
544,13.25,-5.95,-1.44,1
545,13.27,-34.26,-11.31,1
546,13.28,-7.87,-21.35,1
547,13.29,5.87,-1.45,1
548,13.31,-2.74,-0.55,1
549,13.32,7.46,12.31,1
550,13.33,11.96,2.89,1
551,13.35,10.2,1.24,1
552,13.36,-0.92,12.42,1
553,13.37,-2.1,12.19,1
554,13.39,21.69,-5.51,1
555,13.4,5.31,2.78,1
556,13.41,-5.84,2.42,1
557,13.43,-4.42,9.04,1
558,13.44,6.58,0.79,1
559,13.45,0.43,2.93,1
560,13.47,-3.75,-16.37,1
561,13.48,21.23,-9.72,1
562,13.49,23.27,2.06,1
563,13.51,8.45,-0.41,1
564,13.52,7.49,0.67,1
565,13.53,-6.6,-15.9,1
566,13.55,21.49,-6.55,1
567,13.56,7.25,5.26,1
568,13.57,17.9,14.14,1
569,13.59,11.69,15.73,1
570,13.6,15.24,0.01,1
571,13.61,24.29,-14.7,1
572,13.63,14.79,0.56,1
573,13.64,27.0,-5.93,1
574,13.65,12.5,8.72,1
575,13.67,13.51,6.14,1
576,13.68,20.38,1.26,1
577,13.69,8.92,-2.27,1
578,13.71,22.87,-16.79,1
579,13.72,-11.28,5.01,1
580,13.73,2.27,-13.5,1
581,13.75,1.53,-0.54,1
582,13.76,7.69,0.31,1
583,13.77,-13.81,-6.45,1
584,13.79,-10.21,-10.04,1
585,13.8,3.6,12.16,1
586,13.81,21.73,0.5,1
587,13.83,19.42,-6.77,1
588,13.84,5.88,0.57,1
589,13.85,0.57,9.07,1
590,13.87,-20.11,2.39,1
591,13.88,-2.85,-0.13,1
592,13.89,-8.93,-13.24,1
593,13.91,13.71,10.32,1
594,13.92,3.64,10.22,1
595,13.93,-3.99,10.34,1
596,13.95,12.9,-0.89,1
597,13.96,11.19,-16.77,1
598,13.97,-12.65,2.68,1
599,13.99,-16.51,-9.38,1
600,14.0,1.96,-9.6,1
601,14.01,7.6,7.48,1
602,14.03,-20.45,16.77,1
603,14.04,7.13,-12.13,1
604,14.05,-22.01,2.5,1
605,14.07,-16.12,10.29,1
606,14.08,-7.45,22.24,1
607,14.09,16.09,27.32,1
608,14.11,21.8,14.56,1
609,14.12,-30.98,100.6,1
610,14.13,-51.36,215.88,1
611,14.15,-117.63,347.69,1
612,14.16,-19.51,233.25,1
613,14.17,-7.59,213.46,1
614,14.19,131.54,36.6,1
615,14.2,-44.48,-173.56,1
616,14.21,-179.38,-385.23,1
617,14.23,-256.23,-753.79,1
618,14.24,-106.94,-385.48,1
619,14.25,-161.65,-282.02,1
620,14.27,-71.14,39.7,1
621,14.28,-99.66,79.16,1
622,14.29,-52.93,-248.31,1
623,14.31,25.95,144.33,1
624,14.32,44.43,443.47,1
625,14.33,20.72,172.73,1
626,14.35,51.44,0.26,1
627,14.36,113.84,-82.17,1
628,14.37,399.71,108.23,1
629,14.39,147.65,-277.06,1
630,14.4,267.37,185.15,1
631,14.41,249.72,135.49,1
632,14.43,155.21,88.77,1
633,14.44,397.55,222.82,1
634,14.45,107.93,-44.74,1
635,14.47,-92.25,72.89,1
636,14.48,240.41,14.57,1
637,14.49,276.95,-43.76,1
638,14.51,11.07,-216.9,1
639,14.52,14.66,-281.57,1
640,14.53,-57.45,-142.05,1
641,14.55,-177.51,-235.34,1
642,14.56,-207.69,24.29,1
643,14.57,278.49,32.07,1
644,14.59,26.71,-93.99,1
645,14.6,82.47,253.19,1
646,14.61,111.68,252.69,1
647,14.63,189.54,297.88,1
648,14.64,-246.92,-88.08,1
649,14.65,-323.77,-48.5,1
650,14.67,90.12,278.79,1
651,14.68,-238.48,-109.7,1
652,14.69,-287.8,-119.81,1
653,14.71,-289.06,-126.16,1
654,14.72,129.37,437.13,1
655,14.73,-262.84,146.65,1
656,14.75,-265.81,100.91,1
657,14.76,-192.9,-225.0,1
658,14.77,-197.22,-93.92,1
659,14.79,-104.35,-66.83,1
660,14.8,-87.58,-0.59,1
661,14.81,-131.55,-160.18,1
662,14.83,45.65,-87.54,1
663,14.84,27.14,-172.25,1
664,14.85,166.11,-134.83,1
665,14.87,175.8,-9.87,1
666,14.88,147.41,-131.56,1
667,14.89,44.63,-193.3,1
668,14.91,-44.51,-192.01,1
669,14.92,-115.04,-139.79,1
670,14.93,-117.5,-117.1,1
671,14.95,-140.02,-61.59,1
672,14.96,-161.6,-13.46,1
673,14.97,-134.0,74.06,1
674,14.99,-84.11,120.69,1
675,15.0,-74.52,171.65,1
676,15.01,-42.24,191.84,1
677,15.03,-38.89,215.18,1
678,15.04,-20.8,202.17,1
679,15.05,9.34,191.71,1
680,15.07,11.79,196.82,1
681,15.08,25.62,182.11,1
682,15.09,33.32,145.57,1
683,15.11,52.65,131.43,1
684,15.12,50.9,99.01,1
685,15.13,51.52,58.14,1
686,15.15,80.46,50.13,1
687,15.16,59.57,34.52,1
688,15.17,59.74,30.81,1
689,15.19,57.75,37.86,1
690,15.2,84.95,13.29,1
691,15.21,73.04,-9.23,1
692,15.23,73.49,-16.42,1
693,15.24,75.97,-20.08,1
694,15.25,73.71,-36.09,1
695,15.27,69.82,-45.1,1
696,15.28,70.44,-21.55,1
697,15.29,78.17,-37.92,1
698,15.31,77.87,-60.52,1
699,15.32,49.45,-44.11,1
700,15.33,52.61,-45.7,1
701,15.35,70.83,-51.5,1
702,15.36,59.5,-63.89,1
703,15.37,54.16,-70.79,1
704,15.39,41.62,-59.01,1
705,15.4,54.55,-49.73,1
706,15.41,30.66,-60.61,1
707,15.43,28.79,-53.26,1
708,15.44,19.3,-61.48,1
709,15.45,27.27,-57.49,1
710,15.47,7.84,-56.56,1
711,15.48,13.83,-48.26,1
712,15.49,-2.4,-53.32,1
713,15.51,21.46,-36.18,1
714,15.52,1.26,-65.1,1
715,15.53,-14.4,-14.51,1
716,15.55,-12.51,-16.9,1
717,15.56,-1.39,-18.2,1
718,15.57,-23.43,-22.01,1
719,15.59,-19.57,-15.61,1
720,15.6,-7.45,-0.02,1
721,15.61,-11.35,-24.3,1
722,15.63,-20.25,-22.13,1
723,15.64,-42.78,-17.24,1
724,15.65,-23.54,-6.66,1
725,15.67,-24.88,-2.44,1
726,15.68,-36.88,10.16,1
727,15.69,-46.49,1.39,1
728,15.71,-30.13,-1.41,1
729,15.72,-30.65,3.99,1
730,15.73,-42.05,-9.47,1
731,15.75,-30.6,10.12,1
732,15.76,-24.02,9.27,1
733,15.77,-35.42,3.58,1
734,15.79,-30.17,12.41,1
735,15.8,-38.9,19.69,1
736,15.81,-14.82,13.2,1
737,15.83,-21.15,14.81,1
738,15.84,-24.58,16.88,1
739,15.85,-32.77,14.49,1
740,15.87,-22.86,15.78,1
741,15.88,-20.11,13.26,1
742,15.89,-16.53,23.63,1
743,15.91,-10.35,24.13,1
744,15.92,-17.72,13.59,1
745,15.93,-11.81,12.0,1
746,15.95,-3.79,26.21,1
747,15.96,7.38,27.9,1
748,15.97,3.1,7.94,1
749,15.99,-14.99,14.34,1
750,16.0,9.52,18.66,1
751,16.01,-5.39,6.15,1
752,16.03,-34.15,0.38,1
753,16.04,-0.11,22.31,1
754,16.05,-24.52,16.24,1
755,16.07,17.51,5.34,1
756,16.08,-9.11,9.37,1
757,16.09,-4.06,18.41,1
758,16.11,31.1,9.47,1
759,16.12,20.12,-6.85,1
760,16.13,7.5,9.05,1
761,16.15,21.69,11.57,1
762,16.16,-6.55,6.56,2
763,16.17,11.39,-15.16,2
764,16.19,-3.27,-16.82,2
765,16.2,-19.05,-18.79,2
766,16.21,9.73,-35.72,2
767,16.23,118.94,3.66,2
768,16.24,181.82,1.79,2
769,16.25,208.74,34.55,2
770,16.27,176.52,-7.72,2
771,16.28,180.03,-3.99,2
772,16.29,80.7,27.1,2
773,16.31,47.05,27.75,2
774,16.32,-42.3,8.82,2
775,16.33,-70.03,-15.33,2
776,16.35,-106.79,16.81,2
777,16.36,-112.28,-16.74,2
778,16.37,-131.73,6.7,2
779,16.39,-171.0,-20.72,2
780,16.4,-155.28,-2.92,2
781,16.41,-174.48,11.7,2
782,16.42,-131.81,-11.95,2
783,16.44,-120.04,-18.36,2
784,16.45,-132.73,-8.33,2
785,16.47,-97.64,6.42,2
786,16.48,-75.37,-6.17,2
787,16.49,-73.38,1.8,2
788,16.51,-57.28,-5.83,2
789,16.52,-51.02,8.05,2
790,16.53,-36.29,13.53,2
791,16.55,-15.58,-6.69,1
792,16.56,11.17,-5.82,1
793,16.57,28.39,5.4,1
794,16.59,51.11,-8.24,1
795,16.6,47.12,5.2,1
796,16.61,32.09,5.28,1
797,16.63,64.71,18.09,1
798,16.64,83.8,-17.48,1
799,16.65,58.69,-6.48,1
800,16.67,64.15,-9.23,1
801,16.68,87.71,0.27,1
802,16.69,88.42,-13.53,1
803,16.71,70.41,-17.32,1
804,16.72,56.31,-18.84,1
805,16.73,64.87,1.05,1
806,16.75,47.96,-13.8,1
807,16.76,78.86,-11.64,1
808,16.77,45.63,-9.21,1
809,16.79,75.87,-8.99,1
810,16.8,69.74,-2.27,1
811,16.81,43.62,6.85,1
812,16.83,29.63,-4.71,1
813,16.84,48.79,1.01,1
814,16.85,32.17,0.34,1
815,16.87,21.36,-7.62,1
816,16.88,27.13,-7.0,1
817,16.89,40.15,-8.3,1
818,16.91,9.56,8.73,1
819,16.92,4.16,10.86,1
820,16.93,7.85,5.78,1
821,16.95,15.28,-4.07,1
822,16.96,-8.21,15.3,1
823,16.97,-2.39,10.16,1
824,16.99,-24.89,17.23,1
825,17.0,-11.13,1.64,1
826,17.01,-16.3,-4.67,1
827,17.03,-18.1,-11.44,1
828,17.04,-20.62,1.68,1
829,17.05,-16.86,-5.81,1
830,17.06,-25.75,12.4,1
831,17.08,-13.95,-10.61,1
832,17.09,-6.63,18.28,1
833,17.11,-33.74,15.69,1
834,17.12,-12.79,26.25,1
835,17.13,-30.98,4.33,1
836,17.15,-35.44,-7.37,1
837,17.16,-24.05,-3.36,1
838,17.17,-30.58,2.01,1
839,17.19,-25.75,-4.97,1
840,17.2,-11.38,3.85,1
841,17.21,-35.57,13.51,1
842,17.23,-15.35,11.76,1
843,17.24,-25.62,2.78,1
844,17.25,-20.39,-2.38,1
845,17.27,-28.48,-3.67,1
846,17.28,-30.6,-9.16,1
847,17.29,-22.97,6.28,1
848,17.31,2.24,-11.75,1
849,17.32,-12.99,-8.85,1
850,17.33,-24.62,7.97,1
851,17.35,-29.89,5.24,1
852,17.36,-4.36,-10.83,1
853,17.37,-5.68,3.83,1
854,17.39,-7.94,11.19,1
855,17.4,-29.89,-15.05,1
856,17.41,-1.53,-15.12,1
857,17.43,-24.19,2.33,1
858,17.44,0.44,-1.9,1
859,17.45,-4.7,-18.35,1
860,17.47,-1.28,-18.29,1
861,17.48,2.35,18.15,1
862,17.49,-9.48,23.58,1
863,17.51,21.26,-8.44,1
864,17.52,7.95,14.3,1
865,17.53,-2.62,-2.57,1
866,17.55,2.89,-3.3,1
867,17.56,3.04,7.67,1
868,17.57,-3.51,5.14,1
869,17.59,-1.58,-4.11,1
870,17.6,-1.15,-11.93,1
871,17.61,15.26,-5.81,1
872,17.63,16.34,5.17,1
873,17.64,30.03,-7.42,1
874,17.65,1.24,-8.98,1
875,17.67,7.21,-9.07,1
876,17.68,14.36,3.25,1
877,17.69,9.08,12.98,1
878,17.7,-6.52,4.58,1
879,17.72,15.45,16.61,1
880,17.73,5.39,0.98,1
881,17.75,0.52,-3.74,1
882,17.76,5.42,-0.2,1
883,17.77,26.8,9.86,1
884,17.79,5.24,-11.73,1
885,17.8,7.0,0.45,1
886,17.81,0.43,-11.28,1
887,17.83,2.09,12.28,1
888,17.84,2.72,-14.43,1
889,17.85,3.37,0.84,1
890,17.87,33.95,-1.11,1
891,17.88,-3.74,-3.53,1
892,17.89,-0.41,4.26,1
893,17.91,0.82,-18.03,1
894,17.92,17.02,7.46,1
895,17.93,10.1,3.77,1
896,17.95,2.89,-2.42,1
897,17.96,-12.51,11.14,1
898,17.97,5.31,13.42,1
899,17.99,-3.12,-6.21,1
900,18.0,-11.49,-9.69,1
901,18.01,11.6,-6.16,1
902,18.03,26.37,2.08,1
903,18.04,-14.48,15.95,1
904,18.05,-13.46,12.45,1
905,18.07,-8.37,-17.33,1
906,18.08,0.17,-2.75,1
907,18.09,10.68,-4.43,1
908,18.11,17.52,-5.63,1
909,18.12,-4.58,4.21,1
910,18.13,23.48,-3.2,1
911,18.15,-14.69,-3.98,1
912,18.16,-23.93,4.53,0
913,18.17,-0.05,10.72,0
914,18.19,-3.15,18.0,0
915,18.2,-67.25,-8.61,0
916,18.21,-120.4,8.55,0
917,18.23,-159.91,7.45,0
918,18.24,-174.65,-20.15,0
919,18.25,-186.83,-18.05,0
920,18.27,-176.65,-46.27,0
921,18.28,-129.44,-25.81,0
922,18.29,-85.15,-30.15,0
923,18.31,-43.88,-5.38,0
924,18.32,25.34,-13.27,0
925,18.33,99.11,-14.46,0
926,18.34,166.28,17.05,0
927,18.36,256.86,9.34,0
928,18.37,266.71,17.39,0
929,18.39,311.49,18.96,0
930,18.4,287.69,12.84,0
931,18.41,253.45,11.02,0
932,18.43,208.54,19.08,0
933,18.44,187.56,27.95,0
934,18.45,128.2,26.9,0
935,18.47,90.83,23.52,0
936,18.48,49.25,20.6,0
937,18.49,44.32,17.26,0
938,18.51,3.77,17.98,0
939,18.52,-33.74,10.7,0
940,18.53,-34.87,-17.02,0
941,18.55,-40.65,6.63,1
942,18.56,-54.17,8.27,1
943,18.57,-83.12,-4.41,1
944,18.59,-70.53,9.63,1
945,18.6,-99.91,27.89,1
946,18.61,-102.6,12.82,1
947,18.63,-102.74,-11.49,1
948,18.64,-100.08,-10.22,1
949,18.65,-88.73,-17.24,1
950,18.67,-109.47,-0.04,1
951,18.68,-113.35,-17.09,1
952,18.69,-89.41,-25.01,1
953,18.71,-98.16,3.46,1
954,18.72,-97.11,-14.66,1
955,18.73,-103.22,-15.38,1
956,18.75,-74.07,-2.93,1
957,18.76,-86.57,-16.94,1
958,18.77,-73.01,-25.06,1
959,18.79,-59.34,-7.69,1
960,18.8,-25.68,-1.67,1
961,18.81,-26.17,-19.59,1
962,18.83,-39.0,-21.46,1
963,18.84,-41.04,2.77,1
964,18.85,-30.52,-9.54,1
965,18.87,-29.71,-4.12,1
966,18.88,3.22,-11.51,1
967,18.89,-6.35,-1.13,1
968,18.91,1.52,8.45,1
969,18.92,24.28,8.56,1
970,18.93,5.21,0.6,1
971,18.95,29.15,-0.99,1
972,18.96,19.95,-14.33,1
973,18.97,2.77,-6.84,1
974,18.98,8.4,1.28,1
975,19.0,19.71,11.66,1
976,19.01,26.49,4.48,1
977,19.02,27.37,7.93,1
978,19.04,18.44,5.35,1
979,19.05,50.45,-8.35,1
980,19.07,27.48,-3.92,1
981,19.08,43.93,0.85,1
982,19.09,7.23,0.09,1
983,19.11,36.32,-6.34,1
984,19.12,31.0,2.44,1
985,19.13,29.31,20.38,1
986,19.15,40.99,-0.83,1
987,19.16,32.81,8.1,1
988,19.17,28.99,-2.72,1
989,19.19,24.51,-5.83,1
990,19.2,51.8,-11.91,1
991,19.21,58.36,14.12,1
992,19.23,24.4,14.12,1
993,19.24,18.57,11.04,1
994,19.25,8.37,11.41,1
995,19.27,37.65,8.04,1
996,19.28,20.12,11.74,1
997,19.29,11.43,-3.48,1
998,19.31,20.27,-8.92,1
999,19.32,20.99,14.13,1
1000,19.33,17.18,-15.33,1
1001,19.35,16.04,-23.23,1
1002,19.36,18.19,16.3,1
1003,19.37,-1.45,18.69,1
1004,19.39,-14.07,14.29,1
1005,19.4,5.83,3.7,1
1006,19.41,11.55,11.38,1
1007,19.43,0.62,5.04,1
1008,19.44,-12.98,5.04,1
1009,19.45,-6.38,14.3,1
1010,19.47,11.49,1.47,1
1011,19.48,4.42,-25.66,1
1012,19.49,5.65,-3.84,1
1013,19.51,-9.22,1.0,1
1014,19.52,0.15,-2.48,1
1015,19.53,-12.2,5.9,1
1016,19.55,-13.51,-1.25,1
1017,19.56,-23.95,12.56,1
1018,19.57,-6.76,-4.16,1
1019,19.59,-11.91,1.15,1
1020,19.6,-7.38,5.31,1
1021,19.61,-8.43,1.11,1
1022,19.62,1.14,1.89,1
1023,19.64,-12.69,7.85,1
1024,19.65,-16.01,-7.2,1
1025,19.67,-11.11,-24.18,1
1026,19.68,-14.88,5.02,1
1027,19.69,-6.66,-10.35,1
1028,19.71,-16.97,-13.46,1
1029,19.72,-17.56,3.41,1
1030,19.73,-7.27,-3.22,1
1031,19.75,-13.67,-17.82,1
1032,19.76,-2.51,-7.3,1
1033,19.77,-6.53,-1.79,1
1034,19.79,15.23,-1.92,1
1035,19.8,-9.35,-4.49,1
1036,19.81,-2.07,-11.22,1
1037,19.83,7.16,-7.76,1
1038,19.84,-18.81,-3.35,1
1039,19.85,-26.67,2.48,1
1040,19.87,-30.02,-8.54,1
1041,19.88,-10.64,-5.66,1
1042,19.89,-3.54,5.97,1
1043,19.91,-5.77,-9.73,1
1044,19.92,-14.81,-9.28,1
1045,19.93,8.81,-5.71,1
1046,19.95,-4.06,14.41,1
1047,19.96,0.51,8.65,1
1048,19.97,-7.72,1.92,1
1049,19.99,12.46,8.8,1
1050,20.0,7.72,14.83,1
1051,20.01,-1.76,6.56,1
1052,20.03,2.14,8.59,1
1053,20.04,-0.07,-9.33,1
1054,20.05,2.99,-2.99,1
1055,20.07,8.38,13.7,1
1056,20.08,-3.34,-13.88,1
1057,20.09,2.66,-0.38,1
1058,20.11,6.65,8.21,1
1059,20.12,-3.08,2.76,1
1060,20.13,9.05,-1.54,1
1061,20.15,9.72,17.42,1
1062,20.16,-9.73,-13.12,0
1063,20.17,-76.47,-13.42,0
1064,20.19,-150.45,-16.61,0
1065,20.2,-233.3,-0.57,0
1066,20.21,-200.66,-42.17,0
1067,20.23,-174.96,-30.9,0
1068,20.24,-104.43,-12.4,0
1069,20.25,-45.28,11.3,0
1070,20.26,25.96,25.58,0
1071,20.28,112.94,32.32,0
1072,20.29,148.81,64.42,0
1073,20.3,174.25,36.3,0
1074,20.32,180.26,6.89,0
1075,20.33,200.52,14.66,0
1076,20.35,192.16,10.66,0
1077,20.36,198.82,-9.59,0
1078,20.37,178.62,-9.09,0
1079,20.39,163.56,-16.26,0
1080,20.4,150.88,-11.78,0
1081,20.41,125.88,8.97,0
1082,20.43,106.05,29.05,0
1083,20.44,69.03,-5.41,0
1084,20.45,50.93,-15.98,0
1085,20.47,36.17,-8.57,0
1086,20.48,17.72,2.47,0
1087,20.49,6.22,-7.47,0
1088,20.51,-10.11,-2.77,0
1089,20.52,-30.88,15.43,0
1090,20.53,-46.1,1.61,0
1091,20.55,-39.81,-8.17,1
1092,20.56,-80.39,19.8,1
1093,20.57,-72.33,17.82,1
1094,20.59,-92.25,21.93,1
1095,20.6,-64.42,-6.7,1
1096,20.61,-76.64,1.94,1
1097,20.63,-112.95,5.58,1
1098,20.64,-125.97,-10.96,1
1099,20.65,-113.89,-10.54,1
1100,20.67,-98.55,-8.54,1
1101,20.68,-75.48,0.27,1
1102,20.69,-77.33,-20.78,1
1103,20.71,-64.07,-18.77,1
1104,20.72,-79.36,-24.43,1
1105,20.73,-64.76,-19.03,1
1106,20.75,-53.3,-4.52,1
1107,20.76,-43.62,0.46,1
1108,20.77,-39.41,-13.06,1
1109,20.79,-50.67,-15.3,1
1110,20.8,-45.6,8.96,1
1111,20.81,-44.39,0.83,1
1112,20.83,-54.0,-7.74,1
1113,20.84,-24.92,-7.07,1
1114,20.85,-11.47,-13.79,1
1115,20.87,-9.4,-10.15,1
1116,20.88,-9.08,3.23,1
1117,20.89,8.62,-20.66,1
1118,20.9,19.77,-10.76,1
1119,20.92,12.88,-0.25,1
1120,20.93,5.86,-3.17,1
1121,20.94,3.75,-2.21,1
1122,20.96,28.17,2.95,1
1123,20.97,24.8,10.73,1
1124,20.99,14.67,5.83,1
1125,21.0,17.49,7.29,1
1126,21.01,33.25,7.62,1
1127,21.03,26.25,26.78,1
1128,21.04,29.7,-0.79,1
1129,21.05,26.42,5.99,1
1130,21.07,36.74,3.56,1
1131,21.08,27.3,22.24,1
1132,21.09,33.0,2.49,1
1133,21.11,34.9,-0.29,1
1134,21.12,31.37,14.94,1
1135,21.13,38.84,5.37,1
1136,21.15,32.29,5.52,1
1137,21.16,35.25,-8.48,1
1138,21.17,38.57,-1.64,1
1139,21.19,29.07,-1.8,1
1140,21.2,28.3,-2.06,1
1141,21.21,27.72,13.76,1
1142,21.23,30.2,-14.7,1
1143,21.24,23.02,-5.21,1
1144,21.25,-4.25,6.31,1
1145,21.27,14.55,-3.28,1
1146,21.28,7.59,11.05,1
1147,21.29,13.39,-5.47,1
1148,21.31,13.84,6.76,1
1149,21.32,29.61,9.61,1
1150,21.33,9.84,3.61,1
1151,21.35,7.17,-0.6,1
1152,21.36,0.71,-7.59,1
1153,21.37,23.67,2.67,1
1154,21.39,5.68,0.15,1
1155,21.4,-12.9,15.55,1
1156,21.41,0.16,-0.67,1
1157,21.43,22.05,4.83,1
1158,21.44,-0.41,2.29,1
1159,21.45,-14.65,-8.17,1
1160,21.47,-10.28,1.06,1
1161,21.48,-7.58,5.53,1
1162,21.49,1.9,-20.83,1
1163,21.51,2.89,-17.8,1
1164,21.52,-2.66,2.41,1
1165,21.53,-11.3,-0.94,1
1166,21.54,-11.43,9.36,1
1167,21.56,-15.26,3.69,1
1168,21.57,-9.78,11.51,1
1169,21.58,-8.71,10.66,1
1170,21.6,-21.95,-4.76,1
1171,21.61,-7.63,-2.46,1
1172,21.63,-5.56,-2.42,1
1173,21.64,-10.12,-2.71,1
1174,21.65,-19.79,-6.02,1
1175,21.67,-21.18,-10.66,1
1176,21.68,-4.78,-18.16,1
1177,21.69,-1.78,-20.8,1
1178,21.71,-4.66,16.89,1
1179,21.72,-10.78,-5.01,1
1180,21.73,-8.48,-0.74,1
1181,21.75,-19.13,-6.98,1
1182,21.76,-14.63,-17.96,1
1183,21.77,15.06,0.58,1
1184,21.79,11.33,7.86,1
1185,21.8,-6.73,11.77,1
1186,21.81,-13.4,4.4,1
1187,21.83,-16.02,-9.66,1
1188,21.84,14.94,9.39,1
1189,21.85,-2.17,-15.27,1
1190,21.87,-9.78,7.17,1
1191,21.88,-15.89,8.88,1
1192,21.89,2.37,14.98,1
1193,21.91,-10.41,10.7,1
1194,21.92,-2.77,-2.65,1
1195,21.93,-7.52,2.28,1
1196,21.95,22.53,-4.88,1
1197,21.96,-12.01,6.1,1
1198,21.97,13.95,-16.12,1
1199,21.99,-0.07,-10.84,1
1200,22.0,-8.23,1.33,1
1201,22.01,-0.7,3.81,1
1202,22.03,-23.21,1.66,1
1203,22.04,-12.55,2.22,1
1204,22.05,-3.86,0.1,1
1205,22.07,7.22,6.31,1
1206,22.08,-3.66,-13.59,1
1207,22.09,6.31,-0.94,1
1208,22.11,13.96,8.68,1
1209,22.12,-0.75,1.66,1
1210,22.13,-14.45,16.48,1
1211,22.15,31.59,27.49,1
1212,22.16,1.99,10.45,2
1213,22.17,14.39,-22.55,2
1214,22.18,111.18,10.36,2
1215,22.2,168.95,-10.48,2
1216,22.21,207.75,7.29,2
1217,22.22,195.65,10.84,2
1218,22.24,207.32,11.97,2
1219,22.25,148.83,19.43,2
1220,22.26,105.87,13.99,2
1221,22.28,56.47,-2.44,2
1222,22.29,16.46,-9.99,2
1223,22.31,-32.66,-2.58,2
1224,22.32,-148.34,-29.45,2
1225,22.33,-253.61,-24.45,2
1226,22.35,-307.76,-19.41,2
1227,22.36,-311.86,0.58,2
1228,22.37,-313.34,-7.61,2
1229,22.39,-268.3,-22.3,2
1230,22.4,-236.3,-12.17,2
1231,22.41,-224.15,-12.56,2
1232,22.43,-179.56,3.58,2
1233,22.44,-132.59,1.03,2
1234,22.45,-90.36,-3.76,2
1235,22.47,-64.57,13.64,2
1236,22.48,-33.02,4.65,2
1237,22.49,-10.35,4.78,2
1238,22.51,31.31,17.14,2
1239,22.52,50.43,-10.29,2
1240,22.53,75.38,3.26,2
1241,22.55,59.2,2.61,1
1242,22.56,93.1,6.99,1
1243,22.57,91.97,5.62,1
1244,22.59,105.56,-21.18,1
1245,22.6,104.13,-7.9,1
1246,22.61,101.03,-2.57,1
1247,22.63,118.79,-14.1,1
1248,22.64,102.82,6.02,1
1249,22.65,106.79,-2.34,1
1250,22.67,102.57,-10.25,1
1251,22.68,110.5,14.12,1
1252,22.69,92.19,-11.25,1
1253,22.71,92.84,8.98,1
1254,22.72,88.56,12.63,1
1255,22.73,78.53,14.36,1
1256,22.75,69.06,-9.6,1
1257,22.76,77.54,1.91,1
1258,22.77,68.04,6.96,1
1259,22.79,57.96,10.7,1
1260,22.8,46.66,20.85,1
1261,22.81,66.09,2.57,1
1262,22.82,30.37,-4.91,1
1263,22.84,36.06,3.04,1
1264,22.85,38.52,24.53,1
1265,22.86,28.34,-11.65,1
1266,22.88,25.22,-8.18,1
1267,22.89,-4.38,16.21,1
1268,22.9,15.51,-0.58,1
1269,22.92,-0.5,-4.73,1
1270,22.93,-8.74,4.47,1
1271,22.95,-18.36,8.08,1
1272,22.96,-25.13,17.55,1
1273,22.97,-19.5,8.09,1
1274,22.99,-23.59,1.53,1
1275,23.0,-33.14,-5.7,1
1276,23.01,-41.82,0.7,1
1277,23.03,-39.14,-3.04,1
1278,23.04,-47.85,-1.45,1
1279,23.05,-41.4,1.04,1
1280,23.07,-41.48,-25.09,1
1281,23.08,-33.09,-4.06,1
1282,23.09,-43.0,1.06,1
1283,23.11,-49.68,-23.68,1
1284,23.12,-34.37,-4.52,1
1285,23.13,-33.22,14.1,1
1286,23.15,-33.59,-0.62,1
1287,23.16,-53.35,-3.88,1
1288,23.17,-45.5,-5.57,1
1289,23.19,-41.67,-3.21,1
1290,23.2,-39.36,1.35,1
1291,23.21,-21.76,1.1,1
1292,23.23,-26.26,-23.17,1
1293,23.24,-30.96,-26.4,1
1294,23.25,-39.33,-8.17,1
1295,23.27,-35.14,21.93,1
1296,23.28,-25.53,16.43,1
1297,23.29,-23.01,-9.34,1
1298,23.31,-20.58,-9.12,1
1299,23.32,-27.65,-10.3,1
1300,23.33,1.89,-0.9,1
1301,23.35,-8.28,-19.01,1
1302,23.36,-15.38,-12.79,1
1303,23.37,-9.62,-5.85,1
1304,23.39,0.22,19.38,1
1305,23.4,2.44,13.04,1
1306,23.41,0.75,12.99,1
1307,23.43,9.05,1.48,1
1308,23.44,7.1,7.93,1
1309,23.45,4.32,-4.66,1
1310,23.46,12.2,-0.3,1
1311,23.48,-7.11,11.92,1
1312,23.49,11.76,18.63,1
1313,23.5,7.14,14.4,1
1314,23.52,5.58,-4.07,1
1315,23.53,15.24,-10.47,1
1316,23.54,10.46,-13.1,1
1317,23.56,7.78,3.99,1
1318,23.57,9.04,-0.45,1
1319,23.59,13.49,-0.33,1
1320,23.6,19.81,1.61,1
1321,23.61,-2.09,6.25,1
1322,23.63,4.33,-8.09,1
1323,23.64,18.76,9.48,1
1324,23.65,13.85,10.13,1
1325,23.67,20.94,15.1,1
1326,23.68,26.13,7.82,1
1327,23.69,32.36,15.5,1
1328,23.71,-1.38,-3.9,1
1329,23.72,1.5,-10.98,1
1330,23.73,9.33,0.09,1
1331,23.75,22.92,-8.01,1
1332,23.76,12.78,-10.45,1
1333,23.77,5.93,-2.45,1
1334,23.79,5.94,6.95,1
1335,23.8,6.48,14.52,1
1336,23.81,14.79,13.8,1
1337,23.83,11.17,0.31,1
1338,23.84,-9.43,4.28,1
1339,23.85,-10.59,-1.89,1
1340,23.87,10.78,-17.19,1
1341,23.88,-16.59,-9.98,1
1342,23.89,20.46,-0.93,1
1343,23.91,3.92,9.23,1
1344,23.92,1.65,-5.22,1
1345,23.93,-14.36,-22.02,1
1346,23.95,26.92,-1.39,1
1347,23.96,17.53,8.57,1
1348,23.97,0.98,-10.72,1
1349,23.99,-7.21,-1.68,1
1350,24.0,14.07,-2.25,1
1351,24.01,16.45,-7.3,1
1352,24.03,-21.38,-8.13,1
1353,24.04,-38.96,-6.18,1
1354,24.05,-2.03,1.63,1
1355,24.07,-9.46,-4.17,1
1356,24.08,6.14,0.79,1
1357,24.09,1.14,-0.22,1
1358,24.1,-0.43,16.35,1
1359,24.12,-3.07,48.05,1
1360,24.13,12.61,34.03,1
1361,24.14,28.02,97.41,1
1362,24.16,80.53,283.49,1
1363,24.17,66.38,266.87,1
1364,24.18,-239.8,43.17,1
1365,24.2,68.41,-279.88,1
1366,24.21,-168.08,-42.49,1
1367,24.22,-20.06,-119.54,1
1368,24.24,-29.54,182.87,1
1369,24.25,-244.56,-110.06,1
1370,24.27,-99.9,-28.16,1
1371,24.28,-265.93,-180.97,1
1372,24.29,-152.98,-57.09,1
1373,24.31,-109.94,-440.57,1
1374,24.32,176.43,-107.69,1
1375,24.33,124.64,-0.7,1
1376,24.35,224.16,73.61,1
1377,24.36,-96.5,-81.4,1
1378,24.37,151.02,133.95,1
1379,24.39,97.72,43.78,1
1380,24.4,110.87,12.06,1
1381,24.41,78.37,193.05,1
1382,24.43,205.68,30.25,1
1383,24.44,62.49,49.02,1
1384,24.45,379.54,-169.84,1
1385,24.47,161.55,-144.39,1
1386,24.48,332.65,57.0,1
1387,24.49,-98.8,174.49,1
1388,24.51,279.44,-279.81,1
1389,24.52,5.69,-158.92,1
1390,24.53,211.5,56.43,1
1391,24.55,45.21,-234.14,1
1392,24.56,-240.37,-15.31,1
1393,24.57,-25.07,214.48,1
1394,24.59,-119.51,104.5,1
1395,24.6,-108.78,133.66,1
1396,24.61,-237.68,-10.46,1
1397,24.63,131.76,206.43,1
1398,24.64,-90.7,-362.18,1
1399,24.65,81.51,-206.22,1
1400,24.67,-352.65,-77.98,1
1401,24.68,-35.66,-285.59,1
1402,24.69,-137.95,375.01,1
1403,24.71,-82.68,146.4,1
1404,24.72,0.61,163.17,1
1405,24.73,-203.41,-86.17,1
1406,24.75,-48.85,-300.25,1
1407,24.76,-247.81,296.16,1
1408,24.77,-107.6,382.85,1
1409,24.78,-186.18,232.74,1
1410,24.8,-15.2,87.35,1
1411,24.81,-229.21,95.84,1
1412,24.82,-42.08,80.38,1
1413,24.84,58.32,-226.15,1
1414,24.85,32.96,-12.12,1
1415,24.86,-72.08,-213.35,1
1416,24.88,-72.76,2.25,1
1417,24.89,113.32,18.34,1
1418,24.91,88.91,-36.23,1
1419,24.92,159.71,68.1,1
1420,24.93,213.19,-0.41,1
1421,24.95,313.31,-24.31,1
1422,24.96,270.5,-59.75,1
1423,24.97,196.13,-128.23,1
1424,24.99,72.84,-104.53,1
1425,25.0,9.66,-52.88,1
1426,25.01,-52.64,-17.67,1
1427,25.03,-83.61,30.49,1
1428,25.04,-122.56,86.56,1
1429,25.05,-123.51,135.8,1
1430,25.07,-130.74,148.77,1
1431,25.08,-109.65,184.99,1
1432,25.09,-88.0,171.28,1
1433,25.11,-87.46,158.97,1
1434,25.12,-82.25,111.38,1
1435,25.13,-36.41,102.1,1
1436,25.15,-41.52,53.79,1
1437,25.16,-31.07,49.01,1
1438,25.17,-43.25,56.75,1
1439,25.19,17.7,38.21,1
1440,25.2,-16.95,15.37,1
1441,25.21,9.3,-36.75,1
1442,25.23,68.72,-26.76,1
1443,25.24,92.33,-80.47,1
1444,25.25,44.25,-72.36,1
1445,25.27,6.56,-78.1,1
1446,25.28,16.4,-94.0,1
1447,25.29,26.47,-85.21,1
1448,25.31,16.91,-110.45,1
1449,25.32,10.48,-97.79,1
1450,25.33,14.16,-102.02,1
1451,25.35,32.17,-92.25,1
1452,25.36,24.54,-89.43,1
1453,25.37,26.21,-85.21,1
1454,25.38,38.7,-70.42,1
1455,25.4,25.26,-70.21,1
1456,25.41,26.41,-61.69,1
1457,25.42,22.8,-59.65,1
1458,25.44,51.14,-61.39,1
1459,25.45,24.73,-59.85,1
1460,25.46,19.81,-44.69,1
1461,25.48,15.6,-21.85,1
1462,25.49,33.94,-23.03,1
1463,25.5,38.55,-26.22,1
1464,25.52,25.2,-3.92,1
1465,25.53,13.74,-31.03,1
1466,25.55,24.71,-10.83,1
1467,25.56,16.75,4.85,1
1468,25.57,-2.86,6.46,1
1469,25.59,3.35,-1.15,1
1470,25.6,7.19,19.96,1
1471,25.61,-7.11,24.81,1
1472,25.63,-4.33,13.86,1
1473,25.64,-4.29,16.54,1
1474,25.65,17.57,20.83,1
1475,25.67,-9.68,23.03,1
1476,25.68,0.9,12.92,1
1477,25.69,-4.2,21.64,1
1478,25.71,17.67,42.42,1
1479,25.72,9.15,27.14,1
1480,25.73,-9.57,25.91,1
1481,25.75,0.56,29.69,1
1482,25.76,-7.73,19.8,1
1483,25.77,-6.36,21.27,1
1484,25.79,-15.31,12.37,1
1485,25.8,-7.34,13.93,1
1486,25.81,-11.79,22.78,1
1487,25.83,-16.3,15.38,1
1488,25.84,-34.51,20.68,1
1489,25.85,-14.61,31.61,1
1490,25.87,-12.79,23.28,1
1491,25.88,-16.81,15.08,1
1492,25.89,-14.87,25.97,1
1493,25.91,5.35,21.37,1
1494,25.92,-21.26,14.32,1
1495,25.93,-10.63,26.39,1
1496,25.95,-34.33,10.66,1
1497,25.96,-14.27,21.6,1
1498,25.97,-20.9,7.91,1
1499,25.99,-26.24,26.35,1
1500,26.0,-16.94,10.62,1
1501,26.01,-2.8,13.22,1
1502,26.02,-5.44,1.36,1
1503,26.04,5.2,-7.05,1
1504,26.05,-30.14,16.31,1
1505,26.06,-21.8,6.95,1
1506,26.08,-4.51,4.1,1
1507,26.09,0.76,-2.45,1
1508,26.1,9.35,16.6,1
1509,26.12,11.19,13.88,1
1510,26.13,-10.28,13.05,1
1511,26.14,-14.08,8.92,1
1512,26.16,21.9,-5.53,2
1513,26.17,1.03,-11.9,2
1514,26.19,17.32,-16.73,2
1515,26.2,-17.14,-20.85,2
1516,26.21,0.36,-8.24,2
1517,26.23,8.96,-9.98,2
1518,26.24,21.77,-34.44,2
1519,26.25,6.42,-7.82,2
1520,26.27,45.69,-35.3,2
1521,26.28,111.21,-5.98,2
1522,26.29,189.23,-7.53,2
1523,26.31,179.54,8.64,2
1524,26.32,166.93,7.82,2
1525,26.33,118.75,15.54,2
1526,26.35,43.46,-1.09,2
1527,26.36,-26.32,9.89,2
1528,26.37,-42.9,-20.1,2
1529,26.39,-103.22,-18.62,2
1530,26.4,-118.5,-24.62,2
1531,26.41,-152.05,-11.29,2
1532,26.43,-145.25,-16.01,2
1533,26.44,-160.32,5.84,2
1534,26.45,-152.05,-7.45,2
1535,26.47,-124.32,-9.42,2
1536,26.48,-130.59,-12.98,2
1537,26.49,-135.52,0.79,2
1538,26.51,-117.65,-13.98,2
1539,26.52,-81.12,9.43,2
1540,26.53,-54.3,4.18,2
1541,26.55,-67.55,4.99,1
1542,26.56,-53.95,-1.47,1
1543,26.57,-17.09,-11.56,1
1544,26.59,-14.72,-2.05,1
1545,26.6,3.29,3.79,1
1546,26.61,14.06,4.55,1
1547,26.63,26.98,-1.74,1
1548,26.64,33.96,-3.71,1
1549,26.65,36.92,-7.9,1
1550,26.67,44.64,11.53,1
1551,26.68,66.9,7.13,1
1552,26.69,61.75,9.63,1
1553,26.7,63.53,15.53,1
1554,26.72,84.35,-9.41,1
1555,26.73,75.12,-13.51,1
1556,26.75,75.02,-2.37,1
1557,26.76,58.14,-10.71,1
1558,26.77,63.07,-9.45,1
1559,26.78,89.93,-1.36,1
1560,26.8,83.07,-1.94,1
1561,26.81,58.25,2.48,1
1562,26.825,53.18,12.91,1
1563,26.84,69.51,1.58,1
1564,26.85,62.7,-8.0,1
1565,26.87,47.42,16.15,1
1566,26.88,54.13,7.77,1
1567,26.89,32.02,-2.94,1
1568,26.91,40.1,-16.21,1
1569,26.92,34.81,6.64,1
1570,26.93,43.06,6.43,1
1571,26.95,26.73,5.6,1
1572,26.96,1.98,-0.17,1
1573,26.97,-3.69,21.54,1
1574,26.99,22.67,27.16,1
1575,27.0,9.52,15.86,1
1576,27.01,16.23,7.56,1
1577,27.03,-5.18,4.51,1
1578,27.04,-4.2,2.85,1
1579,27.05,-16.19,-7.53,1
1580,27.07,-23.59,-9.7,1
1581,27.08,-27.88,-15.91,1
1582,27.09,-26.46,-15.21,1
1583,27.11,-37.51,-2.76,1
1584,27.12,-41.91,-14.72,1
1585,27.13,-27.57,5.07,1
1586,27.15,-23.21,-1.26,1
1587,27.16,-30.12,-8.28,1
1588,27.17,-47.39,11.54,1
1589,27.19,-31.56,11.69,1
1590,27.2,-16.45,-0.89,1
1591,27.21,-28.14,-1.34,1
1592,27.23,-19.82,13.79,1
1593,27.24,-17.14,-1.91,1
1594,27.25,-19.67,-6.27,1
1595,27.27,-29.56,-6.34,1
1596,27.28,-35.83,-2.1,1
1597,27.29,-22.62,1.95,1
1598,27.3,-30.66,-14.53,1
1599,27.32,-27.26,1.42,1
1600,27.33,-20.9,7.36,1
1601,27.34,-3.3,-4.35,1
1602,27.36,-12.65,-10.98,1
1603,27.37,-27.28,-10.18,1
1604,27.38,-30.39,6.04,1
1605,27.4,-18.09,-12.19,1
1606,27.41,-19.55,17.61,1
1607,27.42,-13.99,-0.27,1
1608,27.44,-22.85,3.62,1
1609,27.45,5.85,18.69,1
1610,27.46,-26.69,-12.31,1
1611,27.48,-12.29,3.71,1
1612,27.49,-1.52,-1.6,1
1613,27.51,6.02,-14.31,1
1614,27.52,0.3,-2.22,1
1615,27.53,-1.05,0.52,1
1616,27.55,6.88,10.84,1
1617,27.56,24.57,0.96,1
1618,27.57,8.59,-8.51,1
1619,27.59,-4.23,7.29,1
1620,27.6,4.0,0.75,1
1621,27.61,13.47,2.25,1
1622,27.63,-4.04,-2.73,1
1623,27.64,-6.95,8.69,1
1624,27.65,20.15,1.95,1
1625,27.67,22.25,-8.24,1
1626,27.68,13.1,-11.51,1
1627,27.69,19.16,2.47,1
1628,27.71,27.64,11.79,1
1629,27.72,18.26,-8.23,1
1630,27.73,12.72,8.31,1
1631,27.75,13.84,10.55,1
1632,27.76,19.96,6.08,1
1633,27.77,-2.5,-3.08,1
1634,27.79,-5.14,-1.07,1
1635,27.8,10.57,4.13,1
1636,27.81,25.05,7.66,1
1637,27.83,-2.0,2.73,1
1638,27.84,-2.45,2.0,1
1639,27.85,-8.5,1.23,1
1640,27.87,13.03,-9.27,1
1641,27.88,14.38,-10.31,1
1642,27.89,7.35,7.38,1
1643,27.91,2.43,0.65,1
1644,27.92,-3.4,-8.62,1
1645,27.93,-2.43,2.85,1
1646,27.94,9.85,1.34,1
1647,27.96,-4.45,4.09,1
1648,27.97,19.34,-13.46,1
1649,27.98,-9.61,-9.16,1
1650,28.0,21.2,-18.18,1
1651,28.01,12.13,1.19,1
1652,28.02,14.2,6.06,1
1653,28.04,-13.97,15.65,1
1654,28.05,-5.38,3.42,1
1655,28.06,-18.07,-2.99,1
1656,28.08,2.94,-13.43,1
1657,28.09,-0.61,2.22,1
1658,28.1,-24.03,-5.86,1
1659,28.12,30.19,-4.46,1
1660,28.13,-1.78,4.46,1
1661,28.15,6.96,12.35,1
1662,28.16,-0.14,-1.43,0
1663,28.17,-12.15,3.02,0
1664,28.19,0.69,1.52,0
1665,28.2,6.22,9.98,0
1666,28.21,-94.71,15.19,0
1667,28.23,-129.64,11.54,0
1668,28.24,-205.45,-6.32,0
1669,28.25,-203.71,-14.82,0
1670,28.27,-202.38,-15.12,0
1671,28.28,-151.58,-26.48,0
1672,28.29,-120.15,-29.51,0
1673,28.31,-54.25,-12.96,0
1674,28.32,-12.89,-18.5,0
1675,28.33,77.46,-3.74,0
1676,28.35,193.37,13.53,0
1677,28.36,248.81,11.17,0
1678,28.37,303.06,18.52,0
1679,28.39,285.45,10.79,0
1680,28.4,251.73,21.66,0
1681,28.41,213.4,20.74,0
1682,28.43,212.57,8.05,0
1683,28.44,156.73,13.87,0
1684,28.45,120.23,24.7,0
1685,28.47,85.08,17.27,0
1686,28.48,84.47,11.27,0
1687,28.49,50.49,7.55,0
1688,28.51,29.45,5.27,0
1689,28.52,-5.67,-2.08,0
1690,28.53,-24.46,1.76,0
1691,28.55,-33.03,18.14,1
1692,28.56,-65.68,5.96,1
1693,28.57,-56.52,0.4,1
1694,28.58,-63.74,-18.48,1
1695,28.6,-92.0,-11.53,1
1696,28.61,-95.36,-5.03,1
1697,28.62,-106.77,-15.81,1
1698,28.64,-86.21,-23.36,1
1699,28.65,-103.34,-14.11,1
1700,28.67,-106.54,-0.58,1
1701,28.68,-101.91,-24.71,1
1702,28.69,-95.63,-22.71,1
1703,28.7,-94.3,0.54,1
1704,28.72,-86.12,-8.72,1
1705,28.73,-63.77,-11.09,1
1706,28.75,-80.21,-7.9,1
1707,28.76,-69.86,2.03,1
1708,28.77,-61.95,7.97,1
1709,28.79,-55.79,-18.66,1
1710,28.8,-42.63,-19.57,1
1711,28.81,-44.85,-10.58,1
1712,28.83,-49.84,5.95,1
1713,28.84,-21.09,6.31,1
1714,28.85,-27.88,16.42,1
1715,28.87,-30.63,-5.07,1
1716,28.88,-14.93,-4.71,1
1717,28.89,-11.22,5.37,1
1718,28.91,-15.1,13.01,1
1719,28.92,10.63,-2.09,1
1720,28.93,-16.16,-8.51,1
1721,28.95,11.7,-13.46,1
1722,28.96,5.5,-3.64,1
1723,28.97,15.86,5.32,1
1724,28.99,11.73,11.6,1
1725,29.0,38.0,24.87,1
1726,29.01,8.56,13.55,1
1727,29.03,19.45,16.72,1
1728,29.04,19.65,6.87,1
1729,29.05,33.67,-14.32,1
1730,29.07,35.33,-1.43,1
1731,29.08,28.36,7.5,1
1732,29.09,19.59,-4.13,1
1733,29.11,56.32,11.05,1
1734,29.12,29.42,-3.94,1
1735,29.13,50.78,-10.47,1
1736,29.15,49.22,11.39,1
1737,29.16,44.48,8.6,1
1738,29.17,33.12,7.62,1
1739,29.19,27.82,3.8,1
1740,29.2,44.65,8.58,1
1741,29.21,41.98,12.58,1
1742,29.22,30.01,9.61,1
1743,29.24,17.47,0.96,1
1744,29.25,37.92,-3.86,1
1745,29.26,21.18,-5.93,1
1746,29.28,9.45,5.26,1
1747,29.29,11.59,-2.4,1
1748,29.3,18.65,-0.54,1
1749,29.32,42.86,6.89,1
1750,29.33,6.33,-3.22,1
1751,29.34,-10.55,-16.76,1
1752,29.36,28.69,-13.5,1
1753,29.37,-4.58,-6.42,1
1754,29.38,1.85,-5.53,1
1755,29.4,3.21,-18.31,1
1756,29.41,5.59,-3.19,1
1757,29.425,6.9,1.97,1
1758,29.44,-11.26,-6.18,1
1759,29.45,-6.46,13.43,1
1760,29.47,-0.07,11.68,1
1761,29.48,-2.71,8.15,1
1762,29.49,-11.27,-11.97,1
1763,29.51,1.82,5.97,1
1764,29.52,-7.39,0.51,1
1765,29.53,-3.58,-7.88,1
1766,29.55,-0.02,-14.49,1
1767,29.56,-10.56,-21.89,1
1768,29.57,-20.94,8.62,1
1769,29.59,-22.84,-1.93,1
1770,29.6,-19.08,-6.01,1
1771,29.61,-9.71,4.35,1
1772,29.63,-6.77,19.78,1
1773,29.64,-15.38,-2.51,1
1774,29.65,-25.13,0.88,1
1775,29.67,1.97,11.49,1
1776,29.68,4.78,15.54,1
1777,29.69,-8.95,1.21,1
1778,29.71,-11.27,-6.45,1
1779,29.72,-3.58,-2.14,1
1780,29.73,-11.46,18.36,1
1781,29.75,-19.34,1.2,1
1782,29.76,-5.24,-2.11,1
1783,29.77,-5.22,-7.07,1
1784,29.79,-6.18,1.34,1
1785,29.8,-1.6,-5.52,1
1786,29.81,-14.18,-9.42,1
1787,29.83,19.13,5.72,1
1788,29.84,-23.82,-2.18,1
1789,29.85,-3.07,-1.33,1
1790,29.86,8.34,6.77,1
1791,29.88,-1.19,-0.49,1
1792,29.89,5.35,1.98,1
1793,29.9,-16.68,-2.23,1
1794,29.92,-1.02,21.28,1
1795,29.93,-6.86,6.8,1
1796,29.94,-5.31,-7.49,1
1797,29.96,-7.52,-3.31,1
1798,29.97,-0.45,-4.13,1
1799,29.98,-19.2,-1.2,1
1800,30.0,-15.32,-5.95,1
1801,30.01,-10.41,-9.52,1
1802,30.02,-2.59,0.88,1
1803,30.04,-10.79,-7.64,1
1804,30.05,-18.46,3.46,1
1805,30.065,-17.99,-2.42,1
1806,30.08,32.31,-8.26,1
1807,30.09,-0.81,-20.89,1
1808,30.11,-4.58,-11.55,1
1809,30.12,10.35,-3.49,1
1810,30.13,9.3,-20.42,1
1811,30.15,7.44,24.08,1
1812,30.16,-42.69,-8.97,0
1813,30.17,-104.68,-2.98,0
1814,30.19,-187.64,48.38,0
1815,30.2,-195.8,-27.08,0
1816,30.21,-171.45,-39.68,0
1817,30.23,-100.37,-10.09,0
1818,30.24,-77.92,8.77,0
1819,30.25,-6.24,-14.09,0
1820,30.27,43.92,-7.25,0
1821,30.28,113.45,-11.65,0
1822,30.29,153.41,-38.84,0
1823,30.31,169.42,28.16,0
1824,30.32,189.17,31.37,0
1825,30.33,191.9,39.81,0
1826,30.35,190.11,35.45,0
1827,30.36,193.3,19.19,0
1828,30.37,173.24,28.69,0
1829,30.39,166.93,25.88,0
1830,30.4,136.87,16.88,0
1831,30.41,140.96,11.8,0
1832,30.43,90.24,22.91,0
1833,30.44,82.35,23.17,0
1834,30.45,36.9,2.0,0
1835,30.47,29.55,-36.83,0
1836,30.48,1.97,2.98,0
1837,30.49,9.97,-0.46,0
1838,30.5,-9.68,4.68,0
1839,30.52,-54.43,-12.8,0
1840,30.53,-37.44,9.91,0
1841,30.54,-48.74,-7.16,0
1842,30.56,-62.93,-6.33,1
1843,30.57,-88.88,-5.83,1
1844,30.58,-86.81,-17.89,1
1845,30.6,-71.69,-0.14,1
1846,30.61,-87.25,2.68,1
1847,30.62,-75.73,8.37,1
1848,30.64,-81.1,1.85,1
1849,30.65,-126.28,3.42,1
1850,30.67,-117.55,-9.38,1
1851,30.68,-113.05,-17.49,1
1852,30.69,-65.93,-25.96,1
1853,30.7,-75.56,-5.5,1
1854,30.72,-86.46,-4.33,1
1855,30.73,-87.56,-17.29,1
1856,30.75,-57.17,-29.45,1
1857,30.76,-65.53,-26.46,1
1858,30.77,-63.23,-15.57,1
1859,30.79,-52.68,-33.05,1
1860,30.8,-18.17,-8.31,1
1861,30.81,-38.07,-1.03,1
1862,30.83,-31.32,6.23,1
1863,30.84,-40.94,5.01,1
1864,30.85,-11.07,2.96,1
1865,30.87,-33.8,-9.51,1
1866,30.88,-37.14,5.23,1
1867,30.89,-9.95,12.6,1
1868,30.91,8.98,4.65,1
1869,30.92,14.73,8.27,1
1870,30.93,29.84,0.93,1
1871,30.95,25.2,-14.03,1
1872,30.96,37.6,-2.86,1
1873,30.97,28.43,2.08,1
1874,30.99,29.7,6.61,1
1875,31.0,44.85,1.0,1
1876,31.01,24.91,-1.26,1
1877,31.03,22.57,2.67,1
1878,31.04,34.21,11.88,1
1879,31.05,28.97,22.63,1
1880,31.07,34.7,19.44,1
1881,31.08,31.81,7.66,1
1882,31.09,49.24,25.04,1
1883,31.11,60.93,13.56,1
1884,31.12,26.58,7.9,1
1885,31.13,20.21,-11.74,1
1886,31.14,30.7,4.46,1
1887,31.16,52.42,-11.35,1
1888,31.17,38.52,3.01,1
1889,31.18,18.81,-2.14,1
1890,31.2,-2.98,-6.16,1
1891,31.21,41.03,-2.18,1
1892,31.22,20.6,6.91,1
1893,31.24,28.43,11.57,1
1894,31.25,11.0,6.56,1
1895,31.26,14.7,1.82,1
1896,31.28,-2.42,-6.38,1
1897,31.29,4.81,3.8,1
1898,31.3,8.04,-1.83,1
1899,31.32,24.14,-1.53,1
1900,31.33,9.46,-9.57,1
1901,31.34,-0.58,-14.46,1
1902,31.36,29.46,0.59,1
1903,31.37,19.25,-10.87,1
1904,31.39,14.95,0.46,1
1905,31.4,5.5,-1.85,1
1906,31.41,15.38,-6.51,1
1907,31.43,0.53,0.41,1
1908,31.44,12.84,-0.76,1
1909,31.45,-13.44,-8.66,1
1910,31.47,7.43,-0.85,1
1911,31.48,-3.53,-9.61,1
1912,31.49,-3.64,0.93,1
1913,31.51,1.88,-2.72,1
1914,31.52,15.38,4.56,1
1915,31.53,-21.13,1.15,1
1916,31.55,-11.99,10.2,1
1917,31.56,-25.03,23.93,1
1918,31.57,-2.23,-2.0,1
1919,31.59,-19.54,1.57,1
1920,31.6,-29.97,-2.16,1
1921,31.61,-31.35,-1.02,1
1922,31.63,0.07,12.6,1
1923,31.64,-19.06,5.71,1
1924,31.65,-8.01,9.97,1
1925,31.67,-16.01,5.93,1
1926,31.68,-0.78,3.6,1
1927,31.69,-12.77,9.34,1
1928,31.71,-14.54,-0.58,1
1929,31.72,-11.22,7.94,1
1930,31.73,0.28,5.92,1
1931,31.75,-26.56,-4.04,1
1932,31.76,-18.04,6.17,1
1933,31.77,0.15,-9.82,1
1934,31.78,-3.52,-18.87,1
1935,31.8,-3.59,-4.8,1
1936,31.81,-3.69,-18.66,1
1937,31.82,8.93,0.43,1
1938,31.84,0.73,-13.02,1
1939,31.85,-11.02,-8.03,1
1940,31.86,0.69,15.53,1
1941,31.88,-18.01,2.76,1
1942,31.89,-7.34,-8.2,1
1943,31.9,-23.59,5.5,1
1944,31.92,-9.9,-7.11,1
1945,31.93,11.1,-16.23,1
1946,31.94,-8.84,-9.91,1
1947,31.96,-11.98,1.84,1
1948,31.97,-14.37,1.97,1
1949,31.98,15.37,3.72,1
1950,32.0,11.49,2.55,1
1951,32.01,1.54,9.86,1
1952,32.03,2.5,-9.4,1
1953,32.04,20.29,11.72,1
1954,32.05,3.36,13.79,1
1955,32.07,6.35,-18.62,1
1956,32.08,-0.62,-8.64,1
1957,32.09,1.24,-9.49,1
1958,32.11,11.18,1.26,1
1959,32.12,-9.68,3.23,1
1960,32.13,8.37,14.08,1
1961,32.15,16.3,8.3,1
1962,32.16,-24.59,-0.41,2
1963,32.17,-6.36,13.31,2
1964,32.19,20.56,-3.59,2
1965,32.2,26.57,-24.09,2
1966,32.21,117.74,-5.63,2
1967,32.23,162.99,-1.2,2
1968,32.24,196.56,11.63,2
1969,32.25,260.89,23.45,2
1970,32.27,193.26,7.52,2
1971,32.28,151.8,6.5,2
1972,32.29,95.71,-6.51,2
1973,32.31,51.35,-10.87,2
1974,32.32,8.04,-10.76,2
1975,32.33,-34.69,-23.35,2
1976,32.35,-131.23,4.46,2
1977,32.36,-267.67,13.27,2
1978,32.37,-322.81,13.51,2
1979,32.39,-327.89,1.94,2
1980,32.4,-293.01,9.39,2
1981,32.41,-282.31,-12.55,2
1982,32.43,-264.04,5.49,2
1983,32.44,-222.68,-3.29,2
1984,32.45,-182.99,5.11,2
1985,32.47,-144.66,1.16,2
1986,32.48,-87.95,6.89,2
1987,32.49,-63.62,-3.58,2
1988,32.51,-38.25,5.04,2
1989,32.52,5.98,23.26,2
1990,32.53,48.36,4.96,2
1991,32.54,72.5,-3.07,2
1992,32.56,50.15,-15.01,1
1993,32.57,61.86,-10.42,1
1994,32.59,73.24,-8.4,1
1995,32.6,78.18,-5.71,1
1996,32.61,81.36,-2.43,1
1997,32.63,91.33,-3.54,1
1998,32.64,92.7,-13.09,1
1999,32.65,112.99,-2.71,1
2000,32.67,108.42,-19.32,1
2001,32.68,114.12,-16.11,1
2002,32.69,96.64,5.68,1
2003,32.71,107.26,-6.15,1
2004,32.72,98.41,-4.52,1
2005,32.73,106.75,-6.12,1
2006,32.75,100.96,-8.24,1
2007,32.76,123.57,3.74,1
2008,32.77,87.19,3.86,1
2009,32.79,80.6,11.25,1
2010,32.8,66.86,19.8,1
2011,32.81,73.35,2.33,1
2012,32.83,44.16,-16.95,1
2013,32.84,40.82,19.58,1
2014,32.85,45.08,25.09,1
2015,32.87,28.29,-0.79,1
2016,32.88,41.26,-5.76,1
2017,32.89,9.14,-5.39,1
2018,32.91,13.55,5.8,1
2019,32.92,-0.41,5.31,1
2020,32.93,-2.9,16.67,1
2021,32.95,-14.08,10.19,1
2022,32.96,6.64,7.8,1
2023,32.97,-10.42,-1.74,1
2024,32.99,-9.62,-1.88,1
2025,33.0,-30.45,-13.0,1
2026,33.01,-1.85,-9.98,1
2027,33.03,-19.2,-7.25,1
2028,33.04,-27.89,-6.41,1
2029,33.05,-37.6,8.26,1
2030,33.06,-41.35,-22.74,1
2031,33.08,-46.75,-2.8,1
2032,33.09,-50.44,9.8,1
2033,33.11,-63.45,23.4,1
2034,33.12,-30.08,5.46,1
2035,33.13,-49.87,7.78,1
2036,33.15,-48.56,-5.22,1
2037,33.16,-45.33,-2.59,1
2038,33.17,-23.28,1.55,1
2039,33.19,-42.71,-0.64,1
2040,33.2,-27.07,-10.44,1
2041,33.21,-37.18,3.95,1
2042,33.22,-34.37,10.14,1
2043,33.24,-49.98,20.72,1
2044,33.25,-37.96,1.03,1
2045,33.27,-11.25,7.59,1
2046,33.28,-33.2,-13.86,1
2047,33.29,-34.35,3.78,1
2048,33.31,-29.34,-10.66,1
2049,33.32,-9.95,-10.98,1
2050,33.33,-28.24,-7.76,1
2051,33.35,-8.27,19.6,1
2052,33.36,-16.46,9.78,1
2053,33.37,-14.32,-2.48,1
2054,33.39,-11.21,-16.91,1
2055,33.4,-16.97,-14.48,1
2056,33.41,-6.62,-11.35,1
2057,33.43,10.86,-11.32,1
2058,33.44,-12.8,-5.3,1
2059,33.45,2.03,-15.29,1
2060,33.47,-5.95,0.22,1
2061,33.48,9.76,10.38,1
2062,33.49,-6.68,9.11,1
2063,33.51,12.44,1.98,1
2064,33.52,-3.08,2.52,1
2065,33.53,19.83,3.35,1
2066,33.55,11.99,-14.29,1
2067,33.56,13.19,7.84,1
2068,33.57,3.55,-4.18,1
2069,33.59,37.67,-9.25,1
2070,33.6,5.47,15.72,1
2071,33.61,11.89,13.78,1
2072,33.63,19.37,9.44,1
2073,33.64,6.93,8.59,1
2074,33.65,7.79,-9.71,1
2075,33.67,10.95,1.92,1
2076,33.68,34.51,11.4,1
2077,33.69,23.22,-9.93,1
2078,33.71,7.45,-9.18,1
2079,33.72,3.28,-1.03,1
2080,33.73,11.18,4.56,1
2081,33.75,2.0,15.03,1
2082,33.76,7.73,-3.05,1
2083,33.77,0.41,-5.37,1
2084,33.79,12.28,0.24,1
2085,33.8,-0.08,-3.08,1
2086,33.81,14.31,-11.38,1
2087,33.83,0.31,-10.9,1
2088,33.84,22.72,-0.68,1
2089,33.85,-1.94,-3.53,1
2090,33.87,-1.17,-1.77,1
2091,33.88,-0.8,-9.07,1
2092,33.89,8.43,-4.57,1
2093,33.9,7.08,0.39,1
2094,33.92,-10.06,-6.22,1
2095,33.93,-7.41,-1.32,1
2096,33.95,27.68,6.66,1
2097,33.96,3.96,-0.85,1
2098,33.97,5.14,17.92,1
2099,33.99,-2.17,15.0,1
2100,34.0,4.76,18.52,1
2101,34.01,-0.34,3.84,1
2102,34.03,-1.5,4.32,1
2103,34.04,15.33,1.14,1
2104,34.05,-16.51,-5.25,1
2105,34.07,-4.58,-6.36,1
2106,34.08,-20.77,6.0,1
2107,34.09,22.05,1.91,1
2108,34.11,0.52,33.18,1
2109,34.12,-11.83,15.29,1
2110,34.13,4.95,136.94,1
2111,34.15,28.59,437.81,1
2112,34.16,84.18,86.49,1
2113,34.17,-331.05,-226.62,1
2114,34.19,148.75,-274.82,1
2115,34.2,132.96,-145.56,1
2116,34.21,-67.24,-12.26,1
2117,34.23,56.95,100.78,1
2118,34.24,-217.3,251.32,1
2119,34.25,-276.67,21.97,1
2120,34.27,-250.61,-171.48,1
2121,34.28,-150.15,-278.82,1
2122,34.29,5.83,160.55,1
2123,34.31,-154.15,-236.8,1
2124,34.32,23.3,-140.44,1
2125,34.33,59.67,-243.9,1
2126,34.35,-39.6,91.14,1
2127,34.36,160.67,-94.27,1
2128,34.37,425.05,-61.25,1
2129,34.38,-8.01,-238.94,1
2130,34.4,116.16,-214.22,1
2131,34.41,340.08,161.89,1
2132,34.43,297.22,-21.54,1
2133,34.44,342.14,412.97,1
2134,34.45,97.38,-59.8,1
2135,34.47,282.14,-70.37,1
2136,34.48,334.48,-207.46,1
2137,34.49,31.41,25.57,1
2138,34.51,152.24,532.24,1
2139,34.52,-145.26,242.85,1
2140,34.53,-303.11,-81.27,1
2141,34.54,90.44,-21.54,1
2142,34.56,-144.18,-213.03,1
2143,34.57,-79.52,429.48,1
2144,34.59,-10.22,52.61,1
2145,34.6,-236.67,171.84,1
2146,34.61,-156.43,-21.98,1
2147,34.63,-280.72,-35.71,1
2148,34.64,-194.24,-47.48,1
2149,34.65,-54.28,201.39,1
2150,34.67,208.54,-381.49,1
2151,34.68,-232.2,12.44,1
2152,34.69,-57.18,-171.6,1
2153,34.71,-307.12,15.85,1
2154,34.72,141.0,163.01,1
2155,34.73,137.27,-127.4,1
2156,34.75,-122.19,33.74,1
2157,34.76,-156.11,-61.33,1
2158,34.77,-439.1,25.55,1
2159,34.79,24.85,216.35,1
2160,34.8,-254.25,222.24,1
2161,34.81,-129.26,150.91,1
2162,34.83,-89.41,-69.59,1
2163,34.84,-119.21,60.07,1
2164,34.85,112.5,-104.72,1
2165,34.87,23.97,-34.45,1
2166,34.88,120.23,-108.6,1
2167,34.89,174.59,-98.53,1
2168,34.91,254.91,-136.22,1
2169,34.92,228.7,-169.86,1
2170,34.93,128.37,-144.62,1
2171,34.95,96.0,-169.68,1
2172,34.96,38.09,-106.8,1
2173,34.97,27.05,-16.84,1
2174,34.99,1.91,14.85,1
2175,35.0,-24.64,89.84,1
2176,35.01,-32.18,147.01,1
2177,35.03,-1.5,149.59,1
2178,35.04,-23.6,131.56,1
2179,35.05,-26.08,166.15,1
2180,35.06,-24.28,125.08,1
2181,35.08,-3.29,112.32,1
2182,35.09,1.24,96.06,1
2183,35.11,-13.18,67.75,1
2184,35.12,8.18,34.55,1
2185,35.13,1.47,11.89,1
2186,35.15,4.65,21.91,1
2187,35.16,0.24,-32.72,1
2188,35.17,18.26,-44.74,1
2189,35.19,30.48,-62.95,1
2190,35.2,-3.23,-60.36,1
2191,35.21,27.35,-49.51,1
2192,35.22,11.89,-61.17,1
2193,35.24,23.35,-69.12,1
2194,35.25,16.27,-38.61,1
2195,35.27,68.36,-63.59,1
2196,35.28,38.43,-50.22,1
2197,35.29,33.98,-33.31,1
2198,35.31,8.13,-39.98,1
2199,35.32,11.08,-45.03,1
2200,35.33,19.85,-43.42,1
2201,35.35,15.2,-37.93,1
2202,35.36,-1.76,-41.99,1
2203,35.37,5.31,-41.53,1
2204,35.39,7.69,-33.25,1
2205,35.4,-1.1,-30.66,1
2206,35.41,-13.37,-40.53,1
2207,35.43,-1.27,-19.17,1
2208,35.44,1.57,-4.9,1
2209,35.45,-11.24,-21.8,1
2210,35.47,-11.14,-8.5,1
2211,35.48,-14.31,-14.83,1
2212,35.49,0.27,-12.18,1
2213,35.51,-10.45,-5.42,1
2214,35.52,-5.76,5.51,1
2215,35.53,8.74,-1.22,1
2216,35.55,5.91,4.08,1
2217,35.56,2.87,13.12,1
2218,35.57,5.15,11.95,1
2219,35.59,12.7,23.6,1
2220,35.6,-2.64,27.06,1
2221,35.61,-19.87,39.49,1
2222,35.63,-9.67,8.35,1
2223,35.64,-9.29,7.33,1
2224,35.65,6.99,17.0,1
2225,35.67,14.69,12.38,1
2226,35.68,-12.43,20.42,1
2227,35.69,1.04,30.96,1
2228,35.71,-3.03,31.45,1
2229,35.72,-10.15,20.18,1
2230,35.73,-20.07,24.46,1
2231,35.75,8.41,27.83,1
2232,35.76,-14.71,22.45,1
2233,35.77,-20.97,20.6,1
2234,35.79,-18.53,11.63,1
2235,35.8,-4.89,17.4,1
2236,35.81,-16.04,12.9,1
2237,35.83,-11.46,24.94,1
2238,35.84,-12.1,-5.13,1
2239,35.85,12.29,7.56,1
2240,35.87,12.85,20.65,1
2241,35.88,17.99,11.21,1
2242,35.89,14.87,19.43,1
2243,35.9,1.09,6.2,1
2244,35.92,-8.55,-0.79,1
2245,35.93,-2.14,11.33,1
2246,35.95,-1.37,7.4,1
2247,35.96,-22.05,2.74,1
2248,35.97,-16.06,7.46,1
2249,35.99,-20.19,-4.85,1
2250,36.0,9.91,0.93,1
2251,36.01,-2.37,3.2,1
2252,36.03,5.21,4.46,1
2253,36.04,-10.83,2.77,1
2254,36.05,-6.26,-22.42,1
2255,36.07,7.8,4.1,1
2256,36.08,2.23,-15.08,1
2257,36.09,23.01,-14.74,1
2258,36.11,15.83,-5.97,1
2259,36.12,6.57,-4.36,1
2260,36.13,1.57,13.61,1
2261,36.15,-8.23,3.33,1
2262,36.16,5.01,-24.22,2
2263,36.17,13.9,-20.83,2
2264,36.19,-16.7,-19.49,2
2265,36.2,-17.69,-18.62,2
2266,36.21,16.78,-1.12,2
2267,36.23,79.02,-12.74,2
2268,36.24,168.0,-21.07,2
2269,36.25,203.89,7.79,2
2270,36.27,185.7,2.3,2
2271,36.28,158.92,-8.75,2
2272,36.29,65.95,-36.56,2
2273,36.31,10.76,-11.28,2
2274,36.32,-92.39,-18.06,2
2275,36.33,-113.31,-5.0,2
2276,36.35,-146.33,0.98,2
2277,36.36,-147.26,20.79,2
2278,36.37,-159.37,18.08,2
2279,36.38,-143.68,6.98,2
2280,36.4,-168.35,10.31,2
2281,36.41,-141.9,17.52,2
2282,36.43,-126.88,-6.9,2
2283,36.44,-129.88,11.49,2
2284,36.45,-125.59,12.34,2
2285,36.47,-101.36,-0.41,2
2286,36.48,-97.39,-2.78,2
2287,36.49,-55.35,2.83,2
2288,36.51,-65.14,-28.66,2
2289,36.52,-21.45,12.04,2
2290,36.53,-5.66,-17.29,2
2291,36.54,-21.18,-1.08,2
2292,36.56,7.27,-9.04,1
2293,36.57,26.32,5.42,1
2294,36.59,33.38,-7.41,1
2295,36.6,39.78,0.25,1
2296,36.61,66.14,1.98,1
2297,36.63,97.58,-2.68,1
2298,36.64,65.98,17.5,1
2299,36.65,79.34,9.67,1
2300,36.67,90.54,18.54,1
2301,36.68,79.81,-13.54,1
2302,36.69,69.14,-9.49,1
2303,36.71,91.79,-6.85,1
2304,36.72,81.23,-7.4,1
2305,36.73,76.04,-3.95,1
2306,36.75,63.12,9.61,1
2307,36.76,71.93,18.7,1
2308,36.77,62.64,9.14,1
2309,36.79,62.33,5.91,1
2310,36.8,62.84,4.45,1
2311,36.81,58.41,-8.83,1
2312,36.83,43.78,-9.09,1
2313,36.84,27.77,-9.62,1
2314,36.85,25.6,-10.68,1
2315,36.87,21.87,1.38,1
2316,36.88,39.39,-9.32,1
2317,36.89,37.24,-4.51,1
2318,36.9,21.84,-7.74,1
2319,36.92,-1.29,-3.69,1
2320,36.93,9.18,-4.3,1
2321,36.95,1.61,7.3,1
2322,36.96,-3.0,2.42,1
2323,36.97,-9.79,-4.24,1
2324,36.99,3.75,-3.42,1
2325,37.0,-16.84,2.38,1
2326,37.01,-5.12,-0.8,1
2327,37.03,-7.06,-1.87,1
2328,37.04,-17.05,1.49,1
2329,37.05,-8.11,7.01,1
2330,37.06,-29.41,-7.6,1
2331,37.08,-31.74,6.4,1
2332,37.09,-32.22,-3.61,1
2333,37.11,-37.57,9.95,1
2334,37.12,-42.26,15.16,1
2335,37.13,-27.51,5.71,1
2336,37.15,-28.63,10.79,1
2337,37.16,-25.76,6.13,1
2338,37.17,-38.3,17.98,1
2339,37.19,-6.9,9.74,1
2340,37.2,-31.21,10.71,1
2341,37.21,-18.47,-9.88,1
2342,37.225,-31.99,-17.02,1
2343,37.24,-43.2,-13.81,1
2344,37.25,-34.04,1.47,1
2345,37.27,-27.07,-8.63,1
2346,37.28,-17.71,-6.76,1
2347,37.29,-27.53,-3.84,1
2348,37.31,-37.26,-10.84,1
2349,37.32,-37.66,-1.9,1
2350,37.33,-23.31,4.84,1
2351,37.35,-5.13,4.7,1
2352,37.36,-27.19,-8.11,1
2353,37.37,-10.17,-1.48,1
2354,37.39,-5.85,0.0,1
2355,37.4,-15.36,4.23,1
2356,37.41,-6.8,10.3,1
2357,37.43,-7.99,6.23,1
2358,37.44,11.67,4.58,1
2359,37.45,-6.33,1.28,1
2360,37.47,21.33,10.59,1
2361,37.48,10.58,1.44,1
2362,37.49,23.33,-14.4,1
2363,37.51,22.69,4.34,1
2364,37.52,6.47,-2.2,1
2365,37.53,-8.49,-23.54,1
2366,37.54,8.62,2.64,1
2367,37.56,-3.83,1.11,1
2368,37.57,-10.51,-1.87,1
2369,37.59,-6.73,11.36,1
2370,37.6,12.64,6.45,1
2371,37.61,-11.12,2.52,1
2372,37.63,9.45,-6.07,1
2373,37.64,16.28,1.09,1
2374,37.65,13.33,-0.49,1
2375,37.67,10.0,10.05,1
2376,37.68,8.35,9.72,1
2377,37.69,8.09,22.22,1
2378,37.71,23.89,21.22,1
2379,37.72,4.91,5.56,1
2380,37.73,8.49,-3.19,1
2381,37.75,1.8,-14.2,1
2382,37.76,20.29,-0.36,1
2383,37.77,22.72,-9.78,1
2384,37.79,12.39,3.9,1
2385,37.8,18.55,0.01,1
2386,37.81,4.43,4.64,1
2387,37.83,17.98,-12.93,1
2388,37.84,-2.36,-13.34,1
2389,37.85,24.62,-10.16,1
2390,37.87,-2.7,-9.76,1
2391,37.88,-12.63,-8.35,1
2392,37.89,21.57,0.05,1
2393,37.91,7.35,-2.27,1
2394,37.92,7.93,-5.88,1
2395,37.93,-11.89,-0.52,1
2396,37.95,-14.76,14.58,1
2397,37.96,4.77,-4.62,1
2398,37.97,-6.47,-7.31,1
2399,37.99,-5.85,2.29,1
2400,38.0,-6.27,-3.54,1
2401,38.01,16.3,0.82,1
2402,38.03,7.39,14.01,1
2403,38.04,-4.86,12.07,1
2404,38.05,-15.99,12.44,1
2405,38.07,-30.62,-15.31,1
2406,38.08,-21.15,-11.75,1
2407,38.09,6.52,-5.05,1
2408,38.11,6.28,4.86,1
2409,38.12,3.16,-8.25,1
2410,38.13,1.18,5.2,1
2411,38.15,-0.56,6.43,1
2412,38.16,16.88,11.53,0
2413,38.17,3.28,17.01,0
2414,38.19,3.98,1.39,0
2415,38.2,9.37,-30.46,0
2416,38.21,-6.32,21.58,0
2417,38.22,-82.47,3.66,0
2418,38.24,-93.4,-18.34,0
2419,38.25,-163.81,-16.17,0
2420,38.27,-172.32,-19.58,0
2421,38.28,-215.02,-46.75,0
2422,38.29,-178.52,-35.85,0
2423,38.31,-146.42,-19.42,0
2424,38.32,-91.54,-5.43,0
2425,38.33,-50.76,-5.25,0
2426,38.35,2.9,1.92,0
2427,38.36,119.79,8.63,0
2428,38.37,239.56,7.51,0
2429,38.38,282.0,31.74,0
2430,38.4,304.78,26.05,0
2431,38.41,288.0,34.37,0
2432,38.43,274.29,16.38,0
2433,38.44,256.2,7.2,0
2434,38.45,198.64,21.29,0
2435,38.47,161.5,6.18,0
2436,38.48,132.59,18.21,0
2437,38.49,87.83,7.46,0
2438,38.51,67.0,15.4,0
2439,38.52,56.31,20.76,0
2440,38.53,9.74,-0.52,0
2441,38.55,-27.59,3.9,0
2442,38.56,-53.81,8.39,1
2443,38.57,-33.45,-3.52,1
2444,38.59,-68.42,0.79,1
2445,38.6,-85.06,9.44,1
2446,38.61,-61.99,-4.47,1
2447,38.63,-90.61,-11.41,1
2448,38.64,-83.42,-1.9,1
2449,38.65,-115.77,-5.31,1
2450,38.67,-118.43,-9.26,1
2451,38.68,-101.51,-8.54,1
2452,38.69,-117.33,-18.32,1
2453,38.71,-110.3,-33.12,1
2454,38.72,-107.71,1.31,1
2455,38.73,-88.55,4.92,1
2456,38.75,-92.2,-4.89,1
2457,38.76,-82.59,7.74,1
2458,38.77,-77.28,-13.83,1
2459,38.79,-72.16,0.7,1
2460,38.8,-88.71,-7.94,1
2461,38.81,-67.47,-16.91,1
2462,38.83,-59.44,-9.88,1
2463,38.84,-22.76,17.37,1
2464,38.85,-38.33,-3.49,1
2465,38.87,-49.57,-15.95,1
2466,38.88,-29.65,3.02,1
2467,38.89,-18.88,8.62,1
2468,38.9,-11.83,6.12,1
2469,38.92,-21.97,-7.41,1
2470,38.93,8.78,-14.0,1
2471,38.95,-24.17,1.03,1
2472,38.96,7.5,7.31,1
2473,38.97,-2.77,18.79,1
2474,38.99,29.71,-7.53,1
2475,39.0,26.96,10.59,1
2476,39.01,28.27,-7.88,1
2477,39.03,21.1,-15.98,1
2478,39.04,30.11,6.77,1
2479,39.05,12.76,-8.05,1
2480,39.06,20.47,-4.67,1
2481,39.08,25.27,-10.59,1
2482,39.09,57.23,-2.22,1
2483,39.11,34.61,-6.43,1
2484,39.12,38.55,-18.75,1
2485,39.13,37.07,2.14,1
2486,39.15,55.81,23.82,1
2487,39.16,49.38,12.68,1
2488,39.17,50.31,7.15,1
2489,39.19,37.85,7.05,1
2490,39.2,40.1,6.07,1
2491,39.21,26.65,14.95,1
2492,39.23,31.84,0.41,1
2493,39.24,51.95,13.24,1
2494,39.25,44.08,15.71,1
2495,39.27,26.6,0.24,1
2496,39.28,22.41,-4.16,1
2497,39.29,20.49,-12.96,1
2498,39.31,12.12,-4.74,1
2499,39.32,12.37,-16.48,1
2500,39.33,13.93,-14.36,1
2501,39.35,22.76,-3.29,1
2502,39.36,15.96,5.17,1
2503,39.37,18.16,8.47,1
2504,39.39,11.18,1.23,1
2505,39.4,16.63,-6.92,1
2506,39.41,10.13,-1.94,1
2507,39.43,-3.56,2.46,1
2508,39.44,2.64,11.71,1
2509,39.45,14.5,6.27,1
2510,39.47,2.48,5.3,1
2511,39.48,-4.51,-4.29,1
2512,39.49,-22.41,12.55,1
2513,39.51,1.8,2.41,1
2514,39.52,-14.4,-2.09,1
2515,39.53,-17.5,-0.63,1
2516,39.54,-21.72,5.55,1
2517,39.56,10.58,-1.01,1
2518,39.57,-20.24,-5.43,1
2519,39.59,-16.63,-7.01,1
2520,39.6,-14.13,-4.32,1
2521,39.61,1.33,-0.16,1
2522,39.63,-15.91,9.01,1
2523,39.64,-24.59,-5.72,1
2524,39.65,-14.68,-4.52,1
2525,39.67,-13.11,-4.78,1
2526,39.68,-9.35,0.89,1
2527,39.69,-13.92,-8.82,1
2528,39.71,-3.92,2.4,1
2529,39.72,3.5,-15.26,1
2530,39.73,-10.52,-1.0,1
2531,39.75,-18.06,5.98,1
2532,39.76,-9.43,5.93,1
2533,39.77,-16.8,-8.55,1
2534,39.79,-20.65,20.26,1
2535,39.8,-12.33,7.77,1
2536,39.81,20.13,6.89,1
2537,39.83,-6.81,3.14,1
2538,39.84,-26.26,1.01,1
2539,39.85,-8.93,10.99,1
2540,39.87,8.39,6.79,1
2541,39.88,-11.38,-3.57,1
2542,39.89,-5.52,-2.75,1
2543,39.91,-12.38,-7.77,1
2544,39.92,1.96,-11.8,1
2545,39.93,-17.16,3.06,1
2546,39.95,9.78,10.47,1
2547,39.96,1.62,1.24,1
2548,39.97,-2.93,-7.37,1
2549,39.99,-9.0,10.92,1
2550,40.0,-4.93,-10.0,1
2551,40.01,10.83,3.57,1
2552,40.03,19.08,-10.88,1
2553,40.04,-3.54,2.3,1
2554,40.05,-21.13,-5.41,1
2555,40.07,-4.47,8.84,1
2556,40.08,3.5,-13.5,1
2557,40.09,-6.28,4.67,1
2558,40.11,-3.99,-13.29,1
2559,40.12,20.0,-6.01,1
2560,40.13,18.21,1.05,1
2561,40.15,3.95,24.43,1
2562,40.16,3.2,8.08,0
2563,40.17,-4.57,0.97,0
2564,40.19,5.19,0.96,0
2565,40.2,-24.74,-17.23,0
2566,40.21,-115.97,-2.2,0
2567,40.22,-176.97,-25.46,0
2568,40.24,-227.51,-33.06,0
2569,40.25,-207.82,-34.74,0
2570,40.27,-145.77,3.39,0
2571,40.28,-84.92,-10.79,0
2572,40.29,-9.96,15.03,0
2573,40.31,22.89,11.67,0
2574,40.32,71.66,56.71,0
2575,40.33,149.34,22.12,0
2576,40.35,166.3,1.49,0
2577,40.36,195.37,7.93,0
2578,40.37,215.97,9.66,0
2579,40.38,215.22,8.45,0
2580,40.4,203.37,-6.67,0
2581,40.41,198.2,-21.93,0
2582,40.43,181.84,-8.89,0
2583,40.44,153.48,-9.29,0
2584,40.45,130.53,-2.59,0
2585,40.47,110.46,17.93,0
2586,40.48,93.69,3.71,0
2587,40.49,56.47,-4.46,0
2588,40.51,24.61,5.1,0
2589,40.52,10.12,-8.81,0
2590,40.53,-2.73,1.43,0
2591,40.55,-11.96,-1.76,0
2592,40.56,-27.12,-5.97,1
2593,40.57,-44.79,-9.62,1
2594,40.59,-43.13,3.44,1
2595,40.6,-68.41,14.15,1
2596,40.61,-76.31,18.73,1
2597,40.63,-92.0,32.16,1
2598,40.64,-71.54,20.0,1
2599,40.65,-100.69,14.59,1
2600,40.67,-103.2,-6.79,1
2601,40.68,-109.07,-22.57,1
2602,40.69,-82.46,-16.27,1
2603,40.71,-101.42,5.02,1
2604,40.72,-112.97,1.62,1
2605,40.73,-88.31,-7.0,1
2606,40.75,-84.25,4.39,1
2607,40.76,-75.37,7.45,1
2608,40.77,-91.05,-15.67,1
2609,40.79,-87.82,-2.86,1
2610,40.8,-79.34,4.6,1
2611,40.81,-69.11,-13.78,1
2612,40.83,-71.01,-9.83,1
2613,40.84,-21.22,-19.57,1
2614,40.85,-36.49,-0.21,1
2615,40.87,-24.98,-27.42,1
2616,40.88,-22.66,-9.5,1
2617,40.89,-6.9,-0.12,1
2618,40.9,-10.69,9.23,1
2619,40.92,-17.06,15.33,1
2620,40.93,-16.56,-7.09,1
2621,40.95,14.47,-7.78,1
2622,40.96,20.81,0.04,1
2623,40.97,13.97,1.42,1
2624,40.99,3.83,-6.37,1
2625,41.0,33.21,5.73,1
2626,41.01,15.15,6.05,1
2627,41.03,41.31,-3.66,1
2628,41.04,32.82,-12.3,1
2629,41.05,37.6,2.03,1
2630,41.06,31.01,1.0,1
2631,41.08,22.63,6.53,1
2632,41.09,40.22,-11.91,1
2633,41.11,50.46,-3.15,1
2634,41.12,19.67,6.07,1
2635,41.13,32.04,17.86,1
2636,41.15,49.43,-1.12,1
2637,41.16,58.43,14.76,1
2638,41.17,38.93,20.67,1
2639,41.19,17.67,7.51,1
2640,41.2,37.37,-16.72,1
2641,41.21,22.79,0.73,1
2642,41.23,30.12,-0.1,1
2643,41.24,43.31,11.24,1
2644,41.25,35.79,-1.63,1
2645,41.27,35.77,-7.61,1
2646,41.28,17.16,-0.34,1
2647,41.29,15.09,-9.21,1
2648,41.31,28.54,-7.66,1
2649,41.32,15.02,-1.57,1
2650,41.33,14.1,-10.0,1
2651,41.35,3.47,-0.44,1
2652,41.36,44.85,3.74,1
2653,41.37,-0.3,4.4,1
2654,41.38,9.58,-8.15,1
2655,41.4,-27.69,-8.46,1
2656,41.41,11.47,-0.18,1
2657,41.43,-0.47,20.4,1
2658,41.44,12.43,11.58,1
2659,41.45,-4.39,-8.92,1
2660,41.47,14.52,6.22,1
2661,41.48,-13.85,-2.17,1
2662,41.49,-18.28,-1.97,1
2663,41.51,2.37,11.16,1
2664,41.52,0.33,23.78,1
2665,41.53,-5.06,-4.46,1
2666,41.54,-14.74,-14.35,1
2667,41.56,3.64,-7.94,1
2668,41.57,-10.83,-5.46,1
2669,41.59,-16.9,-6.53,1
2670,41.6,-4.7,-14.55,1
2671,41.61,-2.13,-0.56,1
2672,41.63,-15.23,14.91,1
2673,41.64,-15.26,14.93,1
2674,41.65,-23.84,2.96,1
2675,41.67,0.25,5.33,1
2676,41.68,-34.07,16.22,1
2677,41.69,-27.51,12.31,1
2678,41.71,-5.8,-9.58,1
2679,41.72,8.67,10.16,1
2680,41.73,3.23,0.26,1
2681,41.75,-21.64,-15.91,1
2682,41.76,-32.72,-8.25,1
2683,41.77,-7.09,-1.75,1
2684,41.79,-15.6,-10.52,1
2685,41.8,0.92,0.04,1
2686,41.81,-24.75,4.11,1
2687,41.83,-7.37,12.32,1
2688,41.84,-28.79,1.46,1
2689,41.85,-25.41,-11.9,1
2690,41.87,9.23,5.39,1
2691,41.88,28.39,-1.12,1
2692,41.89,14.56,-6.74,1
2693,41.91,5.22,-19.46,1
2694,41.92,4.66,5.52,1
2695,41.93,-1.84,0.51,1
2696,41.95,-18.88,-1.48,1
2697,41.96,5.75,-6.6,1
2698,41.97,23.13,-11.43,1
2699,41.99,15.12,-2.93,1
2700,42.0,13.79,27.19,1
2701,42.01,6.46,7.31,1
2702,42.03,-15.36,10.51,1
2703,42.04,-26.69,2.36,1
2704,42.05,-12.91,1.91,1
2705,42.06,-44.73,0.55,1
2706,42.08,30.4,-2.94,1
2707,42.09,-4.79,-5.08,1
2708,42.11,11.31,-14.38,1
2709,42.12,12.04,-12.48,1
2710,42.13,-1.89,-8.12,1
2711,42.15,18.52,5.39,1
2712,42.16,17.86,1.6,2
2713,42.17,-2.15,1.27,2
2714,42.19,17.69,19.22,2
2715,42.2,11.54,2.14,2
2716,42.21,10.56,-15.16,2
2717,42.22,41.59,-24.25,2
2718,42.24,112.32,-12.11,2
2719,42.25,166.08,9.59,2
2720,42.27,224.22,-16.0,2
2721,42.28,212.18,41.57,2
2722,42.29,171.64,16.06,2
2723,42.31,126.57,4.85,2
2724,42.32,76.0,-15.53,2
2725,42.33,33.54,10.88,2
2726,42.35,-10.96,5.15,2
2727,42.36,-90.96,2.8,2
2728,42.37,-169.74,13.77,2
2729,42.38,-264.65,-4.69,2
2730,42.4,-328.5,-6.48,2
2731,42.41,-324.16,0.34,2
2732,42.43,-303.64,13.76,2
2733,42.44,-250.34,28.59,2
2734,42.45,-226.77,12.46,2
2735,42.47,-188.91,11.91,2
2736,42.48,-159.89,-4.94,2
2737,42.49,-122.24,-13.58,2
2738,42.51,-99.59,-8.63,2
2739,42.52,-49.61,-38.99,2
2740,42.53,-12.23,-0.32,2
2741,42.55,9.9,-5.0,2
2742,42.56,25.0,-11.01,1
2743,42.57,31.93,-19.86,1
2744,42.59,48.37,-22.41,1
2745,42.6,86.33,-22.66,1
2746,42.61,104.01,-27.85,1
2747,42.63,104.05,3.06,1
2748,42.64,114.21,1.07,1
2749,42.65,104.17,9.39,1
2750,42.67,97.49,1.98,1
2751,42.68,101.3,14.02,1
2752,42.69,110.89,2.95,1
2753,42.71,111.03,-7.76,1
2754,42.72,109.91,-16.08,1
2755,42.73,94.97,18.63,1
2756,42.75,109.77,4.31,1
2757,42.76,106.04,-6.76,1
2758,42.77,98.16,1.14,1
2759,42.79,79.91,7.17,1
2760,42.8,102.31,19.31,1
2761,42.81,74.51,-9.0,1
2762,42.83,80.48,-5.55,1
2763,42.84,44.81,15.14,1
2764,42.85,54.79,21.45,1
2765,42.87,46.44,6.9,1
2766,42.88,33.13,25.41,1
2767,42.89,31.96,16.15,1
2768,42.9,21.05,-2.72,1
2769,42.92,18.04,4.54,1
2770,42.93,10.24,-3.6,1
2771,42.95,4.94,18.38,1
2772,42.96,16.25,20.74,1
2773,42.97,-24.42,-8.27,1
2774,42.99,-26.67,6.71,1
2775,43.0,0.36,0.41,1
2776,43.01,-17.48,-13.69,1
2777,43.03,-38.19,-18.34,1
2778,43.04,-32.31,23.13,1
2779,43.05,-33.23,1.02,1
2780,43.06,-41.69,-9.98,1
2781,43.08,-43.19,-6.49,1
2782,43.09,-39.0,1.64,1
2783,43.11,-40.25,-9.83,1
2784,43.12,-38.8,-18.5,1
2785,43.13,-47.43,-17.35,1
2786,43.15,-36.69,0.59,1
2787,43.16,-32.62,10.53,1
2788,43.17,-50.87,3.95,1
2789,43.19,-41.93,-2.58,1
2790,43.2,-57.51,6.77,1
2791,43.21,-30.46,-12.98,1
2792,43.23,-28.94,-4.8,1
2793,43.24,-55.44,3.27,1
2794,43.25,-33.01,-3.25,1
2795,43.27,-24.09,-1.94,1
2796,43.28,-22.3,-9.42,1
2797,43.29,-25.79,-5.03,1
2798,43.31,-28.81,9.0,1
2799,43.32,-19.95,-13.2,1
2800,43.33,-12.31,-9.86,1
2801,43.35,-8.67,-9.01,1
2802,43.36,-26.33,-10.83,1
2803,43.37,-0.34,1.5,1
2804,43.38,-14.52,-1.29,1
2805,43.4,-22.36,-7.2,1
2806,43.41,-6.71,14.64,1
2807,43.43,-19.96,18.02,1
2808,43.44,-12.49,2.96,1
2809,43.45,-7.99,11.72,1
2810,43.47,-3.76,11.42,1
2811,43.48,-3.63,4.02,1
2812,43.49,-4.61,16.0,1
2813,43.51,7.44,-14.26,1
2814,43.52,13.88,-2.28,1
2815,43.53,-6.69,-18.2,1
2816,43.54,2.34,0.23,1
2817,43.56,7.03,-1.76,1
2818,43.57,27.66,-7.99,1
2819,43.59,-0.19,-3.86,1
2820,43.6,11.27,8.88,1
2821,43.61,14.93,-0.56,1
2822,43.63,39.51,-6.87,1
2823,43.64,-4.87,8.18,1
2824,43.65,-2.8,5.6,1
2825,43.67,6.48,2.99,1
2826,43.68,31.81,12.91,1
2827,43.69,17.42,4.97,1
2828,43.71,21.26,14.88,1
2829,43.72,-3.33,11.02,1
2830,43.73,20.27,-12.0,1
2831,43.75,6.49,3.65,1
2832,43.76,13.15,5.34,1
2833,43.77,29.76,-0.28,1
2834,43.79,9.35,-5.87,1
2835,43.8,22.33,1.4,1
2836,43.81,-4.4,-2.85,1
2837,43.83,28.6,-20.3,1
2838,43.84,8.32,-14.94,1
2839,43.85,-5.92,0.15,1
2840,43.87,5.44,-11.27,1
2841,43.88,4.3,-7.26,1
2842,43.89,3.26,-6.22,1
2843,43.91,3.02,3.71,1
2844,43.92,15.11,-7.89,1
2845,43.93,22.86,12.54,1
2846,43.95,20.76,2.85,1
2847,43.96,6.97,0.2,1
2848,43.97,-8.18,7.39,1
2849,43.99,6.35,-8.83,1
2850,44.0,-9.57,-0.35,1
2851,44.01,-4.46,2.69,1
2852,44.03,-3.14,22.56,1
2853,44.04,15.4,49.64,1
2854,44.05,-12.33,43.35,1
2855,44.06,-21.92,95.45,1
2856,44.08,-16.09,160.33,1
2857,44.09,-9.68,213.82,1
2858,44.11,9.45,232.48,1
2859,44.12,25.37,218.63,1
2860,44.13,193.27,84.23,1
2861,44.15,-163.86,94.28,1
2862,44.16,76.35,-365.97,1
2863,44.17,5.89,-538.83,1
2864,44.19,-4.3,-77.46,1
2865,44.2,-24.3,-346.21,1
2866,44.21,-118.38,-40.37,1
2867,44.22,-147.11,-92.73,1
2868,44.24,-185.33,-139.98,1
2869,44.25,-287.2,-258.4,1
2870,44.27,-78.5,108.97,1
2871,44.28,-241.1,-1.16,1
2872,44.29,-72.99,40.81,1
2873,44.31,190.13,-347.94,1
2874,44.32,-100.6,-151.8,1
2875,44.33,-50.45,-177.18,1
2876,44.35,-3.96,-186.32,1
2877,44.36,214.33,269.31,1
2878,44.37,477.85,36.83,1
2879,44.385000000000005,376.04,230.77,1
2880,44.4,72.04,522.29,1
2881,44.41,235.26,4.61,1
2882,44.43,191.79,-377.13,1
2883,44.44,57.72,236.86,1
2884,44.45,187.9,347.0,1
2885,44.47,162.02,-178.92,1
2886,44.48,-191.29,-114.15,1
2887,44.49,-245.24,207.5,1
2888,44.51,227.33,48.32,1
2889,44.52,-49.49,-64.94,1
2890,44.53,299.6,96.36,1
2891,44.55,-255.05,25.15,1
2892,44.56,-22.33,440.6,1
2893,44.57,201.35,259.48,1
2894,44.59,-166.21,315.32,1
2895,44.6,-216.1,64.4,1
2896,44.61,52.58,19.82,1
2897,44.63,-266.84,16.88,1
2898,44.64,39.88,-279.53,1
2899,44.65,-201.63,-192.77,1
2900,44.67,-51.22,-112.94,1
2901,44.68,-436.74,16.7,1
2902,44.69,-63.4,77.67,1
2903,44.71,-200.16,216.84,1
2904,44.72,1.57,-192.99,1
2905,44.73,-206.57,-169.05,1
2906,44.75,-36.0,-214.87,1
2907,44.76,-48.25,-101.32,1
2908,44.77,317.81,-173.34,1
2909,44.79,112.9,-218.72,1
2910,44.8,19.86,-204.3,1
2911,44.81,-11.32,-103.5,1
2912,44.83,33.75,-71.81,1
2913,44.84,28.61,0.08,1
2914,44.85,98.1,-12.41,1
2915,44.87,112.53,-19.88,1
2916,44.88,32.74,-11.88,1
2917,44.89,-18.82,-28.67,1
2918,44.9,-16.26,24.82,1
2919,44.92,-47.7,91.94,1
2920,44.93,-42.56,143.27,1
2921,44.95,-5.17,180.82,1
2922,44.96,-23.53,183.5,1
2923,44.97,1.66,216.94,1
2924,44.99,-4.12,213.11,1
2925,45.0,12.29,198.64,1
2926,45.01,30.01,173.09,1
2927,45.03,19.18,146.07,1
2928,45.04,1.83,107.17,1
2929,45.05,-14.72,54.28,1
2930,45.07,19.72,53.43,1
2931,45.08,19.71,-6.44,1
2932,45.09,9.69,-12.75,1
2933,45.11,18.63,-37.54,1
2934,45.12,20.36,-47.83,1
2935,45.13,9.31,-81.22,1
2936,45.15,1.29,-61.84,1
2937,45.16,10.62,-78.29,1
2938,45.17,10.64,-97.05,1
2939,45.19,35.06,-101.23,1
2940,45.2,16.08,-95.48,1
2941,45.21,15.52,-93.41,1
2942,45.22,15.66,-94.35,1
2943,45.24,3.5,-88.33,1
2944,45.25,-3.26,-70.79,1
2945,45.27,-3.56,-62.33,1
2946,45.28,-7.17,-85.25,1
2947,45.29,-2.88,-54.45,1
2948,45.31,-18.79,-39.06,1
2949,45.32,-6.08,-44.66,1
2950,45.33,-6.42,-21.54,1
2951,45.35,-7.62,-31.3,1
2952,45.36,-11.28,-44.08,1
2953,45.37,-5.32,-41.97,1
2954,45.38,-0.66,-35.39,1
2955,45.4,7.22,-11.77,1
2956,45.41,1.57,-27.81,1
2957,45.43,26.4,-10.44,1
2958,45.44,4.06,7.58,1
2959,45.45,-7.53,5.61,1
2960,45.47,8.71,-11.31,1
2961,45.48,12.78,-1.05,1
2962,45.49,-5.27,10.46,1
2963,45.51,-2.31,13.66,1
2964,45.52,-8.05,-5.23,1
2965,45.53,-7.36,5.82,1
2966,45.54,4.3,16.37,1
2967,45.56,-6.68,14.26,1
2968,45.57,5.61,16.74,1
2969,45.59,-9.9,36.81,1
2970,45.6,-7.6,44.51,1
2971,45.61,10.7,30.54,1
2972,45.63,16.87,35.43,1
2973,45.64,12.9,35.3,1
2974,45.65,2.16,23.49,1
2975,45.67,-4.65,19.01,1
2976,45.68,9.37,15.99,1
2977,45.69,4.96,28.91,1
2978,45.71,3.8,20.58,1
2979,45.72,-10.05,33.39,1
2980,45.73,1.61,22.6,1
2981,45.75,12.07,19.24,1
2982,45.76,15.73,20.23,1
2983,45.77,4.33,32.22,1
2984,45.79,12.94,30.8,1
2985,45.8,-4.84,15.53,1
2986,45.81,-10.5,34.44,1
2987,45.83,-18.38,-4.33,1
2988,45.84,7.51,9.38,1
2989,45.85,-3.43,10.79,1
2990,45.87,-15.02,17.52,1
2991,45.88,-3.24,13.33,1
2992,45.89,16.32,7.36,1
2993,45.9,1.84,-0.86,1
2994,45.92,-10.69,9.16,1
2995,45.93,-13.81,2.75,1
2996,45.95,7.8,0.32,1
2997,45.96,-16.13,6.01,1
2998,45.97,-21.22,-8.38,1
2999,45.99,-29.42,-15.86,1
3000,46.0,-4.1,0.4,1
3001,46.01,-3.36,2.54,1
3002,46.03,10.85,-8.26,1
3003,46.04,10.41,-5.84,1
3004,46.05,-7.26,-7.23,1
3005,46.06,-10.67,4.82,1
3006,46.08,-11.99,-20.7,1
3007,46.09,14.9,-9.5,1
3008,46.11,19.79,-25.55,1
3009,46.12,-5.9,-2.51,1
3010,46.13,-4.57,-5.06,1
3011,46.15,-8.03,-7.3,1
3012,46.16,-15.64,-16.06,2
3013,46.17,29.91,-8.88,2
3014,46.19,-21.19,-12.54,2
3015,46.2,4.13,-17.67,2
3016,46.21,13.83,-6.2,2
3017,46.22,-12.87,-23.86,2
3018,46.24,4.16,-29.07,2
3019,46.25,38.9,-14.53,2
3020,46.27,110.93,-13.11,2
3021,46.28,186.89,9.52,2
3022,46.29,197.05,12.24,2
3023,46.31,185.62,26.86,2
3024,46.32,133.7,24.06,2
3025,46.33,74.06,41.37,2
3026,46.35,18.52,19.42,2
3027,46.36,-48.09,-12.42,2
3028,46.37,-87.82,-5.06,2
3029,46.39,-136.49,-9.48,2
3030,46.4,-133.35,-15.72,2
3031,46.41,-179.43,-23.93,2
3032,46.43,-170.29,-17.91,2
3033,46.44,-180.0,-12.23,2
3034,46.45,-148.13,-12.14,2
3035,46.47,-160.25,-16.21,2
3036,46.48,-159.64,-17.35,2
3037,46.49,-124.96,6.49,2
3038,46.51,-87.74,4.84,2
3039,46.52,-77.12,-13.4,2
3040,46.53,-84.34,8.7,2
3041,46.54,-58.83,-5.11,2
3042,46.56,-26.87,15.38,1
3043,46.57,-21.96,8.0,1
3044,46.59,-9.09,19.5,1
3045,46.6,10.04,18.59,1
3046,46.61,34.22,2.12,1
3047,46.63,31.78,-5.74,1
3048,46.64,42.74,9.35,1
3049,46.65,49.89,-13.21,1
3050,46.67,63.26,-6.45,1
3051,46.68,59.38,8.93,1
3052,46.69,51.02,5.7,1
3053,46.71,75.24,-0.79,1
3054,46.72,98.85,8.08,1
3055,46.73,85.51,3.79,1
3056,46.75,89.94,4.45,1
3057,46.76,90.34,-0.55,1
3058,46.77,108.06,-4.54,1
3059,46.79,81.96,-7.99,1
3060,46.8,60.14,16.65,1
3061,46.81,63.95,4.9,1
3062,46.83,59.23,2.64,1
3063,46.84,66.74,10.53,1
3064,46.85,70.78,3.33,1
3065,46.87,73.78,1.32,1
3066,46.88,50.06,14.88,1
3067,46.89,33.63,1.38,1
3068,46.9,23.19,-22.74,1
3069,46.92,24.76,-11.54,1
3070,46.93,-3.04,-4.01,1
3071,46.95,-6.37,-12.75,1
3072,46.96,-7.9,0.46,1
3073,46.97,9.51,-10.06,1
3074,46.99,-9.86,-20.2,1
3075,47.0,-8.35,-2.4,1
3076,47.01,-13.67,3.37,1
3077,47.03,-17.18,-7.56,1
3078,47.04,-23.57,-4.62,1
3079,47.05,-5.38,3.0,1
3080,47.07,-15.1,6.79,1
3081,47.08,-10.01,6.65,1
3082,47.09,0.71,9.18,1
3083,47.11,-22.28,-1.67,1
3084,47.12,-24.97,-10.11,1
3085,47.13,-21.98,4.82,1
3086,47.15,-37.18,-3.96,1
3087,47.16,-35.06,4.54,1
3088,47.17,-12.48,5.86,1
3089,47.19,-28.72,2.84,1
3090,47.2,-31.64,-2.89,1
3091,47.21,-36.92,5.42,1
3092,47.22,-23.66,-8.7,1
3093,47.24,-24.22,11.91,1
3094,47.25,-20.97,1.82,1
3095,47.27,-29.78,-0.17,1
3096,47.28,-17.1,4.11,1
3097,47.29,-35.02,5.39,1
3098,47.31,-30.83,6.23,1
3099,47.32,-18.37,11.13,1
3100,47.33,-8.37,-9.83,1
3101,47.35,-36.9,-0.23,1
3102,47.36,-23.3,2.97,1
3103,47.37,-31.93,1.14,1
3104,47.38,-4.46,7.89,1
3105,47.4,0.45,4.93,1
3106,47.41,-21.85,-3.84,1
3107,47.43,-9.37,2.33,1
3108,47.44,-3.74,1.13,1
3109,47.45,-8.9,3.46,1
3110,47.47,-0.86,5.51,1
3111,47.48,0.14,1.26,1
3112,47.49,12.38,-11.85,1
3113,47.51,-10.16,-3.84,1
3114,47.52,6.19,-9.5,1
3115,47.53,6.27,-3.73,1
3116,47.54,5.46,2.76,1
3117,47.56,-8.43,-6.97,1
3118,47.57,-11.77,-3.68,1
3119,47.59,12.18,-9.94,1
3120,47.6,12.69,2.63,1
3121,47.61,-4.86,8.36,1
3122,47.63,14.59,-1.04,1
3123,47.64,18.32,1.02,1
3124,47.65,16.49,1.38,1
3125,47.67,15.05,-3.01,1
3126,47.68,10.71,6.16,1
3127,47.69,7.34,5.06,1
3128,47.71,1.88,-1.41,1
3129,47.72,-3.31,-1.88,1
3130,47.73,3.85,1.96,1
3131,47.75,5.81,6.9,1
3132,47.76,9.06,5.13,1
3133,47.77,0.21,7.69,1
3134,47.79,5.74,-11.26,1
3135,47.8,15.58,-15.41,1
3136,47.81,18.9,4.0,1
3137,47.83,1.3,20.34,1
3138,47.84,-3.13,12.01,1
3139,47.85,15.96,2.21,1
3140,47.87,6.9,15.3,1
3141,47.88,12.34,-9.52,1
3142,47.89,25.93,-2.59,1
3143,47.9,-6.04,-5.94,1
3144,47.92,-7.9,-8.14,1
3145,47.93,-3.95,-23.55,1
3146,47.95,18.04,-1.68,1
3147,47.96,-2.5,-0.77,1
3148,47.97,-19.45,6.05,1
3149,47.99,-13.85,-1.69,1
3150,48.0,17.85,-7.92,1
3151,48.01,-5.54,1.25,1
3152,48.03,12.58,9.35,1
3153,48.04,10.15,-4.73,1
3154,48.05,12.04,-11.17,1
3155,48.06,-14.04,0.29,1
3156,48.08,-30.42,-3.7,1
3157,48.09,19.13,-9.84,1
3158,48.11,0.19,-2.95,1
3159,48.12,-7.38,14.88,1
3160,48.13,18.95,-15.82,1
3161,48.15,6.6,-7.25,1
3162,48.16,39.75,-19.82,0
3163,48.17,-95.98,-31.66,0
3164,48.19,-183.15,-21.53,0
3165,48.2,-245.11,-29.84,0
3166,48.21,-227.79,-28.59,0
3167,48.22,-197.39,-32.08,0
3168,48.24,-141.58,-16.79,0
3169,48.25,-94.34,10.36,0
3170,48.27,-48.31,29.53,0
3171,48.28,-8.29,30.42,0
3172,48.29,38.88,49.98,0
3173,48.31,151.38,41.46,0
3174,48.32,252.02,43.28,0
3175,48.33,312.65,32.93,0
3176,48.35,321.72,35.52,0
3177,48.36,325.42,33.51,0
3178,48.37,279.05,20.0,0
3179,48.39,235.72,47.69,0
3180,48.4,199.73,65.22,0
3181,48.41,178.5,11.69,0
3182,48.43,188.38,2.53,0
3183,48.44,157.39,-9.87,0
3184,48.45,85.23,-11.52,0
3185,48.47,40.54,-23.59,0
3186,48.48,-13.97,-40.82,0
3187,48.49,-56.91,-26.86,0
3188,48.51,-101.58,-19.23,0
3189,48.52,-88.8,-14.75,0
3190,48.53,-113.46,-12.26,0
3191,48.54,-108.72,-17.95,0
3192,48.56,-113.62,-25.35,1
3193,48.57,-117.39,-4.53,1
3194,48.59,-143.5,-3.05,1
3195,48.6,-145.95,1.15,1
3196,48.61,-114.81,-5.46,1
3197,48.63,-129.68,-18.7,1
3198,48.64,-131.75,-11.84,1
3199,48.65,-117.52,-19.24,1
3200,48.67,-107.58,-12.03,1
3201,48.68,-110.16,-16.52,1
3202,48.69,-100.01,-16.49,1
3203,48.71,-100.27,-7.65,1
3204,48.72,-86.25,6.04,1
3205,48.73,-85.31,-2.11,1
3206,48.75,-73.16,-4.54,1
3207,48.76,-51.52,0.2,1
3208,48.77,-28.58,-1.33,1
3209,48.79,-56.59,-15.51,1
3210,48.8,-45.88,-4.88,1
3211,48.81,-31.46,3.54,1
3212,48.83,-0.02,-2.28,1
3213,48.84,-7.6,-7.4,1
3214,48.85,-1.48,16.85,1
3215,48.87,13.68,27.77,1
3216,48.88,2.22,6.76,1
3217,48.89,17.37,13.49,1
3218,48.9,15.05,-2.25,1
3219,48.92,19.31,4.22,1
3220,48.93,36.47,11.03,1
3221,48.95,32.65,0.51,1
3222,48.96,43.35,-4.29,1
3223,48.97,32.29,14.08,1
3224,48.99,41.94,-2.14,1
3225,49.0,35.2,-8.17,1
3226,49.01,49.89,-4.11,1
3227,49.03,50.66,-7.53,1
3228,49.04,38.33,15.43,1
3229,49.05,31.39,-11.13,1
3230,49.06,34.29,11.59,1
3231,49.08,42.98,-0.22,1
3232,49.09,47.54,-5.55,1
3233,49.11,29.54,6.86,1
3234,49.12,27.88,15.72,1
3235,49.13,55.28,-2.42,1
3236,49.15,40.58,-7.33,1
3237,49.16,45.02,3.2,1
3238,49.17,34.69,14.85,1
3239,49.19,42.26,-1.15,1
3240,49.2,22.82,3.12,1
3241,49.21,22.35,-3.96,1
3242,49.22,15.6,7.06,1
3243,49.24,26.54,-12.13,1
3244,49.25,24.85,6.31,1
3245,49.27,21.1,6.94,1
3246,49.28,26.79,16.42,1
3247,49.29,22.04,-5.4,1
3248,49.31,30.37,-0.79,1
3249,49.32,19.7,4.99,1
3250,49.33,7.05,11.48,1
3251,49.35,8.57,20.76,1
3252,49.36,-15.86,6.78,1
3253,49.37,9.02,5.65,1
3254,49.38,18.97,-12.03,1
3255,49.4,-9.19,3.78,1
3256,49.41,1.85,-8.65,1
3257,49.43,-20.5,-10.65,1
3258,49.44,5.71,-24.98,1
3259,49.45,-11.11,-2.86,1
3260,49.47,-24.65,3.14,1
3261,49.48,-42.68,13.77,1
3262,49.49,-14.98,-11.7,1
3263,49.51,-17.08,-5.57,1
3264,49.52,-24.75,-12.43,1
3265,49.53,-20.42,-7.9,1
3266,49.54,-23.15,-12.43,1
3267,49.56,-3.4,5.0,1
3268,49.57,-8.97,5.78,1
3269,49.59,-4.73,-5.3,1
3270,49.6,-17.91,-11.96,1
3271,49.61,-22.26,-7.91,1
3272,49.63,-28.74,-3.24,1
3273,49.64,-14.67,0.05,1
3274,49.65,5.36,3.6,1
3275,49.67,-18.94,8.44,1
3276,49.68,-22.96,15.05,1
3277,49.69,-37.78,7.57,1
3278,49.71,-24.06,10.3,1
3279,49.72,-13.62,12.2,1
3280,49.73,-14.68,5.42,1
3281,49.75,-7.04,-1.16,1
3282,49.76,-2.86,7.24,1
3283,49.77,0.66,-10.13,1
3284,49.79,-1.38,-7.3,1
3285,49.8,11.82,-2.78,1
3286,49.81,4.67,-6.99,1
3287,49.83,-3.77,-8.92,1
3288,49.84,7.43,3.97,1
3289,49.85,17.45,22.0,1
3290,49.87,6.15,1.36,1
3291,49.88,-11.05,4.68,1
3292,49.89,-13.05,-4.67,1
3293,49.9,7.51,6.34,1
3294,49.92,3.77,-13.55,1
3295,49.93,6.8,-10.87,1
3296,49.95,-5.61,-9.91,1
3297,49.96,14.77,3.33,1
3298,49.97,8.63,0.87,1
3299,49.99,4.72,2.61,1
3300,50.0,-8.02,10.69,1
3301,50.01,-3.27,-4.72,1
3302,50.03,-15.21,2.08,1
3303,50.04,-4.42,-0.53,1
3304,50.05,10.44,10.02,1
3305,50.06,-0.55,11.01,1
3306,50.08,-7.07,-19.46,1
3307,50.09,22.27,-13.25,1
3308,50.11,-9.36,-4.88,1
3309,50.12,25.22,-3.19,1
3310,50.13,5.87,-11.84,1
3311,50.15,12.78,-18.49,1
3312,50.16,27.21,-13.3,0
3313,50.17,-8.48,1.73,0
3314,50.19,-16.93,-4.5,0
3315,50.2,14.64,-5.9,0
3316,50.21,3.05,-11.23,0
3317,50.22,-0.97,6.12,0
3318,50.24,13.62,24.32,0
3319,50.25,-15.3,24.77,0
3320,50.27,24.58,40.11,0
3321,50.28,-80.58,5.25,0
3322,50.29,-156.06,-17.77,0
3323,50.31,-251.82,-4.81,0
3324,50.32,-220.24,0.43,0
3325,50.33,-183.01,-0.65,0
3326,50.35,-128.16,14.47,0
3327,50.36,-63.63,5.87,0
3328,50.37,37.37,24.92,0
3329,50.38,80.12,0.0,0
3330,50.4,127.11,2.66,0
3331,50.41,159.62,-11.62,0
3332,50.43,213.62,-20.96,0
3333,50.44,210.54,-29.64,0
3334,50.45,213.94,-0.97,0
3335,50.47,203.25,-10.65,0
3336,50.48,211.34,-1.75,0
3337,50.49,164.43,3.53,0
3338,50.51,160.17,-20.27,0
3339,50.52,135.37,-26.37,0
3340,50.53,122.46,5.47,0
3341,50.54,95.97,1.16,0
3342,50.56,54.16,-15.87,1
3343,50.57,50.28,1.07,1
3344,50.59,34.27,4.89,1
3345,50.6,-3.38,-5.97,1
3346,50.61,-28.1,2.93,1
3347,50.63,-44.79,0.15,1
3348,50.64,-62.54,12.77,1
3349,50.65,-70.07,14.37,1
3350,50.67,-87.81,-3.36,1
3351,50.68,-80.05,6.07,1
3352,50.69,-129.68,-12.76,1
3353,50.71,-130.08,3.58,1
3354,50.72,-134.53,1.22,1
3355,50.73,-106.82,31.66,1
3356,50.75,-97.04,28.9,1
3357,50.76,-96.66,23.03,1
3358,50.77,-90.52,15.85,1
3359,50.79,-70.78,23.22,1
3360,50.8,-64.89,19.9,1
3361,50.81,-63.88,10.14,1
3362,50.83,-72.96,23.58,1
3363,50.84,-57.1,11.2,1
3364,50.85,-61.53,12.77,1
3365,50.87,-54.25,6.89,1
3366,50.88,-24.48,15.24,1
3367,50.89,-47.99,5.46,1
3368,50.91,-29.55,-8.72,1
3369,50.92,-33.47,-11.37,1
3370,50.93,-10.15,-2.33,1
3371,50.95,-27.71,2.35,1
3372,50.96,-17.68,-11.7,1
3373,50.97,-21.83,-29.45,1
3374,50.99,-0.43,-18.5,1
3375,51.0,6.84,-29.56,1
3376,51.01,20.33,-30.05,1
3377,51.03,-1.86,-4.83,1
3378,51.04,31.14,-2.78,1
3379,51.05,23.4,-25.66,1
3380,51.06,22.87,-18.14,1
3381,51.08,24.01,-25.1,1
3382,51.09,16.81,-19.38,1
3383,51.11,26.7,-16.95,1
3384,51.12,15.38,-8.98,1
3385,51.13,21.06,-5.98,1
3386,51.15,38.08,-12.15,1
3387,51.16,39.13,-6.59,1
3388,51.17,29.72,11.35,1
3389,51.19,27.19,1.44,1
3390,51.2,37.74,-0.61,1
3391,51.21,13.25,2.07,1
3392,51.22,18.78,-8.25,1
3393,51.24,30.94,5.04,1
3394,51.25,33.09,-3.78,1
3395,51.27,28.73,-4.57,1
3396,51.28,21.54,13.04,1
3397,51.29,40.43,-2.15,1
3398,51.31,32.66,-2.02,1
3399,51.32,17.41,0.31,1
3400,51.33,26.19,8.84,1
3401,51.35,28.58,11.03,1
3402,51.36,23.26,-5.78,1
3403,51.37,14.08,-2.31,1
3404,51.38,21.17,-11.35,1
3405,51.4,20.91,28.87,1
3406,51.41,26.69,20.5,1
3407,51.43,11.57,17.63,1
3408,51.44,-3.49,7.39,1
3409,51.45,2.73,-3.53,1
3410,51.47,4.17,7.26,1
3411,51.48,-9.42,11.29,1
3412,51.49,-1.16,8.96,1
3413,51.51,0.43,18.3,1
3414,51.52,7.44,4.19,1
3415,51.53,2.09,-1.18,1
3416,51.55,19.14,6.27,1
3417,51.56,0.36,-1.26,1
3418,51.57,-3.48,12.31,1
3419,51.59,-7.08,16.34,1
3420,51.6,-38.33,10.78,1
3421,51.61,18.3,4.01,1
3422,51.63,-17.64,-3.65,1
3423,51.64,-7.08,5.91,1
3424,51.65,1.45,-2.18,1
3425,51.67,-9.15,-16.6,1
3426,51.68,-9.02,-6.83,1
3427,51.69,-9.05,-8.06,1
3428,51.71,4.27,5.86,1
3429,51.72,-17.37,6.73,1
3430,51.73,-3.53,-43.05,1
3431,51.75,-19.02,-40.89,1
3432,51.76,0.96,30.97,1
3433,51.77,-1.49,-5.59,1
3434,51.79,-40.63,8.69,1
3435,51.8,-11.31,-7.93,1
3436,51.81,-0.61,-14.26,1
3437,51.83,-3.63,-8.19,1
3438,51.84,-14.26,43.65,1
3439,51.85,-23.33,25.78,1
3440,51.87,-15.64,12.77,1
3441,51.88,-3.17,2.59,1
3442,51.89,-7.04,-5.28,1
3443,51.9,6.11,-16.11,1
3444,51.92,12.05,2.76,1
3445,51.93,3.87,-3.31,1
3446,51.95,-0.81,-1.92,1
3447,51.96,-3.73,-7.37,1
3448,51.97,-0.93,9.16,1
3449,51.99,-9.21,-5.82,1
3450,52.0,7.92,-0.74,1
3451,52.01,13.52,-4.37,1
3452,52.03,5.56,-6.78,1
3453,52.04,-3.72,-14.04,1
3454,52.05,-14.03,-4.86,1
3455,52.06,4.12,-20.25,1
3456,52.08,-10.22,7.87,1
3457,52.09,-12.87,-5.81,1
3458,52.11,-16.29,8.83,1
3459,52.12,19.48,-5.62,1
3460,52.13,-4.19,-0.17,1
3461,52.15,-23.11,-6.27,1
3462,52.16,-6.65,-8.72,2
3463,52.17,-6.53,-4.96,2
3464,52.19,0.93,1.39,2
3465,52.2,-1.39,8.14,2
3466,52.21,-14.23,17.23,2
3467,52.23,14.75,24.96,2
3468,52.24,111.58,14.12,2
3469,52.25,165.95,22.3,2
3470,52.27,249.89,11.71,2
3471,52.28,236.36,4.48,2
3472,52.29,182.77,-28.67,2
3473,52.31,146.08,-32.48,2
3474,52.32,90.56,-39.07,2
3475,52.33,47.62,-48.28,2
3476,52.35,4.87,-26.06,2
3477,52.36,-47.31,-12.89,2
3478,52.37,-153.97,5.62,2
3479,52.38,-229.17,15.27,2
3480,52.4,-319.96,3.31,2
3481,52.41,-326.72,16.35,2
3482,52.43,-306.89,22.42,2
3483,52.44,-275.22,17.93,2
3484,52.45,-251.44,9.43,2
3485,52.47,-222.71,11.52,2
3486,52.48,-180.77,20.91,2
3487,52.49,-132.89,5.41,2
3488,52.51,-98.37,14.42,2
3489,52.52,-58.21,-3.13,2
3490,52.53,-23.18,7.81,2
3491,52.54,-9.88,19.17,2
3492,52.56,14.69,-0.29,1
3493,52.57,49.82,8.88,1
3494,52.59,87.08,-9.53,1
3495,52.6,89.82,-9.56,1
3496,52.61,94.33,-16.03,1
3497,52.63,90.1,-10.41,1
3498,52.64,126.27,-0.72,1
3499,52.65,111.0,1.2,1
3500,52.67,117.16,-6.74,1
3501,52.68,101.3,-6.81,1
3502,52.69,124.82,15.71,1
3503,52.71,110.14,16.05,1
3504,52.72,110.95,-13.65,1
3505,52.73,118.13,-16.26,1
3506,52.75,101.2,9.23,1
3507,52.76,95.39,19.27,1
3508,52.77,85.15,-17.25,1
3509,52.79,102.48,6.68,1
3510,52.8,90.29,-6.33,1
3511,52.81,73.14,-4.27,1
3512,52.83,73.4,4.17,1
3513,52.84,60.03,-31.73,1
3514,52.85,56.0,3.68,1
3515,52.87,49.41,7.98,1
3516,52.88,16.02,-19.01,1
3517,52.89,37.61,6.17,1
3518,52.9,25.23,26.86,1
3519,52.92,10.0,-7.07,1
3520,52.93,-0.9,-3.78,1
3521,52.95,-1.68,-9.92,1
3522,52.96,-14.04,-10.62,1
3523,52.97,-8.7,-9.06,1
3524,52.99,-25.45,2.22,1
3525,53.0,-2.63,7.11,1
3526,53.01,-34.44,7.82,1
3527,53.03,-33.71,2.71,1
3528,53.04,-33.75,4.37,1
3529,53.05,0.55,14.26,1
3530,53.06,-33.79,-14.89,1
3531,53.08,-49.13,-4.57,1
3532,53.09,-46.01,6.03,1
3533,53.11,-34.33,-10.94,1
3534,53.12,-43.35,-1.29,1
3535,53.13,-42.04,5.69,1
3536,53.15,-36.82,6.13,1
3537,53.16,-44.73,-2.95,1
3538,53.17,-42.77,1.0,1
3539,53.19,-31.49,-1.57,1
3540,53.2,-22.94,28.05,1
3541,53.21,-44.55,4.5,1
3542,53.22,-49.03,-1.39,1
3543,53.24,-45.71,-5.59,1
3544,53.25,-29.42,-2.91,1
3545,53.27,-34.35,7.53,1
3546,53.28,-29.14,-1.89,1
3547,53.29,-41.12,2.55,1
3548,53.31,-12.93,8.29,1
3549,53.32,-22.25,3.24,1
3550,53.33,-24.37,1.64,1
3551,53.35,-32.61,-13.51,1
3552,53.36,-9.67,4.26,1
3553,53.37,-19.51,-6.17,1
3554,53.38,-2.88,-2.39,1
3555,53.4,-17.34,5.25,1
3556,53.41,-10.25,16.08,1
3557,53.43,-11.06,-0.94,1
3558,53.44,-18.05,-11.32,1
3559,53.45,-31.27,-8.28,1
3560,53.47,12.86,-15.38,1
3561,53.48,-10.2,-12.28,1
3562,53.49,-12.01,2.21,1
3563,53.51,-19.05,-11.02,1
3564,53.52,16.29,24.06,1
3565,53.53,11.01,10.88,1
3566,53.54,16.84,0.21,1
3567,53.56,15.75,-3.19,1
3568,53.57,42.01,-2.42,1
3569,53.59,20.72,13.12,1
3570,53.6,20.16,-6.32,1
3571,53.61,34.92,3.23,1
3572,53.63,8.11,2.36,1
3573,53.64,10.97,-4.61,1
3574,53.65,8.88,-16.41,1
3575,53.67,22.59,-3.47,1
3576,53.68,17.42,-1.79,1
3577,53.69,14.96,-3.17,1
3578,53.71,14.55,1.56,1
3579,53.72,21.47,15.37,1
3580,53.73,8.06,18.17,1
3581,53.75,10.35,-2.22,1
3582,53.76,5.37,-11.37,1
3583,53.77,35.45,20.78,1
3584,53.79,4.49,-11.5,1
3585,53.8,-3.34,-34.81,1
3586,53.81,15.76,-6.32,1
3587,53.83,9.37,6.2,1
3588,53.84,3.97,15.79,1
3589,53.85,-12.14,7.1,1
3590,53.87,-7.31,-2.45,1
3591,53.88,12.41,-6.35,1
3592,53.89,6.6,-10.86,1
3593,53.9,-6.98,-29.78,1
3594,53.92,17.47,15.99,1
3595,53.93,0.44,15.19,1
3596,53.95,2.04,10.81,1
3597,53.96,-8.25,8.61,1
3598,53.97,12.13,3.06,1
3599,53.99,6.04,12.22,1
3600,54.0,10.3,11.44,1
3601,54.01,-9.37,-0.69,1
3602,54.03,7.48,-12.44,1
3603,54.04,-6.89,0.83,1
3604,54.05,-17.56,-2.17,1
3605,54.06,-8.71,5.98,1
3606,54.08,-6.59,-16.44,1
3607,54.09,-13.53,-4.16,1
3608,54.11,-6.48,-5.26,1
3609,54.12,11.72,-3.37,1
3610,54.13,22.91,4.88,1
3611,54.15,20.29,12.91,1
3612,54.16,16.19,14.73,1
3613,54.17,-7.91,105.34,1
3614,54.19,14.76,234.8,1
3615,54.2,0.23,278.57,1
3616,54.21,4.11,278.62,1
3617,54.22,7.21,174.92,1
3618,54.24,-98.65,61.46,1
3619,54.25,-252.13,-7.98,1
3620,54.27,149.99,-215.95,1
3621,54.28,-88.18,-158.65,1
3622,54.29,7.06,-28.63,1
3623,54.31,170.06,-350.46,1
3624,54.32,-87.59,-202.09,1
3625,54.33,180.9,-157.34,1
3626,54.35,-161.69,21.02,1
3627,54.36,-260.54,-347.4,1
3628,54.37,-180.5,-25.95,1
3629,54.38,-68.48,-184.39,1
3630,54.4,-90.35,-19.08,1
3631,54.41,214.05,-172.25,1
3632,54.43,80.78,-153.33,1
3633,54.44,162.57,120.62,1
3634,54.45,144.96,-169.5,1
3635,54.47,129.27,-137.01,1
3636,54.48,13.7,14.39,1
3637,54.49,13.16,-399.37,1
3638,54.51,-128.54,192.5,1
3639,54.52,213.13,193.65,1
3640,54.53,61.9,-66.65,1
3641,54.54,186.4,389.41,1
3642,54.56,22.18,-207.4,1
3643,54.57,80.3,-140.9,1
3644,54.59,-59.51,136.89,1
3645,54.6,9.08,90.72,1
3646,54.61,-116.65,140.84,1
3647,54.63,-14.65,343.29,1
3648,54.64,-11.44,154.59,1
3649,54.65,-55.16,371.41,1
3650,54.67,-66.38,-65.39,1
3651,54.68,29.42,-183.15,1
3652,54.69,-14.39,-24.28,1
3653,54.71,-153.46,-16.78,1
3654,54.72,102.89,-18.17,1
3655,54.73,-70.1,317.98,1
3656,54.75,33.03,251.92,1
3657,54.76,-102.81,92.84,1
3658,54.77,34.43,-37.78,1
3659,54.79,-32.51,-62.08,1
3660,54.8,166.5,3.18,1
3661,54.81,14.67,-234.31,1
3662,54.83,-193.8,-464.55,1
3663,54.84,-24.16,76.41,1
3664,54.85,121.49,70.52,1
3665,54.87,224.22,-132.49,1
3666,54.88,-60.56,53.53,1
3667,54.89,-70.1,-197.8,1
3668,54.9,46.02,-20.52,1
3669,54.92,41.57,-36.02,1
3670,54.93,148.75,-13.06,1
3671,54.95,152.8,26.26,1
3672,54.96,143.43,37.38,1
3673,54.97,56.52,32.87,1
3674,54.99,-29.03,63.58,1
3675,55.0,-98.68,105.79,1
3676,55.01,-142.83,137.86,1
3677,55.03,-173.95,178.53,1
3678,55.04,-180.72,180.88,1
3679,55.05,-162.72,210.38,1
3680,55.06,-163.38,159.36,1
3681,55.08,-154.79,132.61,1
3682,55.09,-137.78,136.78,1
3683,55.11,-94.83,97.02,1
3684,55.12,-108.33,64.17,1
3685,55.13,-77.54,34.19,1
3686,55.15,-49.01,41.29,1
3687,55.16,-25.19,-1.16,1
3688,55.17,-26.79,6.28,1
3689,55.19,-15.38,-16.38,1
3690,55.2,-0.37,-52.91,1
3691,55.21,10.64,-32.34,1
3692,55.22,32.96,-51.25,1
3693,55.24,34.05,-65.48,1
3694,55.25,34.57,-79.87,1
3695,55.27,43.36,-104.08,1
3696,55.28,24.54,-93.17,1
3697,55.29,54.64,-88.46,1
3698,55.31,43.96,-110.76,1
3699,55.32,66.74,-103.19,1
3700,55.33,45.64,-86.63,1
3701,55.35,35.84,-102.24,1
3702,55.36,54.88,-92.49,1
3703,55.37,55.02,-81.71,1
3704,55.38,53.76,-97.5,1
3705,55.4,63.77,-107.05,1
3706,55.41,42.8,-76.17,1
3707,55.43,62.33,-67.99,1
3708,55.44,56.88,-33.8,1
3709,55.45,50.86,-49.14,1
3710,55.47,40.32,-60.04,1
3711,55.48,27.93,-59.35,1
3712,55.49,29.2,-28.23,1
3713,55.51,26.96,-20.53,1
3714,55.52,38.44,-18.25,1
3715,55.53,32.96,-27.22,1
3716,55.54,26.59,-12.7,1
3717,55.56,20.4,11.66,1
3718,55.57,27.23,-2.01,1
3719,55.59,18.05,-10.1,1
3720,55.6,-6.2,22.23,1
3721,55.61,6.54,17.07,1
3722,55.63,30.09,27.48,1
3723,55.64,16.11,7.77,1
3724,55.65,8.4,23.42,1
3725,55.67,-12.35,31.0,1
3726,55.68,2.81,32.36,1
3727,55.69,-13.5,22.36,1
3728,55.71,-14.08,45.7,1
3729,55.72,-3.97,36.07,1
3730,55.73,-10.76,25.38,1
3731,55.75,-10.79,40.71,1
3732,55.76,-13.88,39.73,1
3733,55.77,-4.62,47.11,1
3734,55.79,-12.81,27.12,1
3735,55.8,-23.39,38.06,1
3736,55.81,-37.79,28.27,1
3737,55.83,-7.47,31.91,1
3738,55.84,-18.44,30.22,1
3739,55.85,-22.95,25.1,1
3740,55.87,-30.27,45.55,1
3741,55.88,-20.48,32.29,1
3742,55.89,-10.96,26.18,1
3743,55.9,-23.34,16.28,1
3744,55.92,-20.24,17.96,1
3745,55.93,-23.79,14.33,1
3746,55.95,-18.48,2.54,1
3747,55.96,-16.71,6.73,1
3748,55.97,0.66,2.63,1
3749,55.99,5.77,8.19,1
3750,56.0,-2.02,14.49,1
3751,56.01,-9.48,-2.59,1
3752,56.03,-23.72,-6.12,1
3753,56.04,5.13,8.09,1
3754,56.05,-5.12,11.15,1
3755,56.06,-11.97,9.32,1
3756,56.08,-43.94,-3.12,1
3757,56.09,-3.62,-9.52,1
3758,56.11,-8.36,4.27,1
3759,56.12,-10.47,2.12,1
3760,56.13,-8.3,-3.5,1
3761,56.15,7.91,-11.47,1
3762,56.16,-1.62,-4.64,2
3763,56.17,-2.98,-8.52,2
3764,56.19,32.99,-13.84,2
3765,56.2,8.79,-8.79,2
3766,56.21,5.01,-2.38,2
3767,56.22,-2.87,-23.38,2
3768,56.24,5.57,1.43,2
3769,56.25,12.72,-0.45,2
3770,56.27,0.57,-36.09,2
3771,56.28,5.95,-1.08,2
3772,56.29,18.77,9.17,2
3773,56.31,64.05,-0.88,2
3774,56.32,152.92,0.67,2
3775,56.33,179.99,-3.86,2
3776,56.35,199.63,-19.7,2
3777,56.36,151.44,-38.65,2
3778,56.37,91.73,11.37,2
3779,56.38,20.35,-55.99,2
3780,56.4,-6.27,-45.77,2
3781,56.41,-61.03,-14.41,2
3782,56.43,-139.66,-12.53,2
3783,56.44,-169.4,-3.65,2
3784,56.45,-157.65,-0.72,2
3785,56.47,-165.14,8.25,2
3786,56.48,-187.21,4.09,2
3787,56.49,-160.14,-3.65,2
3788,56.51,-142.65,14.86,2
3789,56.52,-142.26,15.31,2
3790,56.53,-117.99,8.24,2
3791,56.54,-105.19,4.5,2
3792,56.56,-84.08,28.01,1
3793,56.57,-65.81,19.07,1
3794,56.59,-45.64,17.05,1
3795,56.6,-6.14,17.96,1
3796,56.61,-14.13,12.23,1
3797,56.63,-9.4,24.94,1
3798,56.64,11.12,5.4,1
3799,56.65,26.94,1.41,1
3800,56.67,50.9,7.35,1
3801,56.68,48.6,-6.76,1
3802,56.69,62.38,-9.28,1
3803,56.71,73.1,0.25,1
3804,56.72,68.57,-1.45,1
3805,56.73,69.42,-7.48,1
3806,56.75,58.33,-1.23,1
3807,56.76,84.37,1.18,1
3808,56.77,66.69,1.81,1
3809,56.79,85.92,-19.16,1
3810,56.8,68.09,-5.31,1
3811,56.81,98.68,-14.36,1
3812,56.83,68.35,-12.52,1
3813,56.84,64.37,-7.48,1
3814,56.85,58.11,-21.37,1
3815,56.87,85.66,-7.62,1
3816,56.88,63.61,-13.7,1
3817,56.89,53.63,-22.2,1
3818,56.9,60.58,0.29,1
3819,56.92,32.95,8.65,1
3820,56.93,18.67,-3.27,1
3821,56.95,13.25,2.97,1
3822,56.96,33.47,-20.55,1
3823,56.97,24.27,3.45,1
3824,56.99,7.85,6.71,1
3825,57.0,6.57,17.93,1
3826,57.01,14.29,10.64,1
3827,57.03,-5.09,16.29,1
3828,57.04,9.07,14.93,1
3829,57.05,-15.45,3.47,1
3830,57.06,-8.18,-6.73,1
3831,57.08,-4.64,0.41,1
3832,57.09,-23.82,8.87,1
3833,57.11,-23.93,8.72,1
3834,57.12,-8.17,2.39,1
3835,57.13,-20.64,-7.45,1
3836,57.15,-39.71,1.78,1
3837,57.16,-22.41,2.39,1
3838,57.17,-3.12,-7.21,1
3839,57.19,-12.92,-7.31,1
3840,57.2,-30.16,6.41,1
3841,57.21,-40.56,-1.39,1
3842,57.22,-37.51,6.12,1
3843,57.24,-30.88,6.46,1
3844,57.25,-23.0,10.64,1
3845,57.27,-21.8,8.53,1
3846,57.28,-33.31,7.26,1
3847,57.29,-39.5,8.76,1
3848,57.31,-27.1,1.41,1
3849,57.32,-17.58,10.02,1
3850,57.33,-29.23,0.1,1
3851,57.35,-49.59,13.42,1
3852,57.36,-39.41,-13.63,1
3853,57.37,-17.34,-20.67,1
3854,57.38,2.66,-4.12,1
3855,57.4,-42.83,-3.43,1
3856,57.41,-26.61,-6.25,1
3857,57.43,-18.89,5.83,1
3858,57.44,-35.14,-2.38,1
3859,57.45,-8.01,1.11,1
3860,57.47,-4.4,-2.42,1
3861,57.48,4.01,-5.23,1
3862,57.49,14.32,-16.56,1
3863,57.51,-15.67,-11.3,1
3864,57.52,-12.23,9.5,1
3865,57.53,3.82,-6.46,1
3866,57.54,9.66,-0.08,1
3867,57.56,-7.8,-7.38,1
3868,57.57,2.93,-6.58,1
3869,57.59,6.11,6.33,1
3870,57.6,1.04,6.12,1
3871,57.61,4.99,-16.07,1
3872,57.63,16.39,14.52,1
3873,57.64,16.78,9.96,1
3874,57.65,1.83,10.42,1
3875,57.67,21.16,7.35,1
3876,57.68,6.04,-3.99,1
3877,57.69,10.91,1.09,1
3878,57.71,-1.29,2.77,1
3879,57.72,1.41,-3.53,1
3880,57.73,10.88,-6.93,1
3881,57.75,10.08,1.95,1
3882,57.76,-0.04,-3.74,1
3883,57.77,16.27,2.63,1
3884,57.79,18.2,-2.99,1
3885,57.8,12.37,-0.36,1
3886,57.81,11.27,-1.0,1
3887,57.83,10.41,8.73,1
3888,57.84,23.69,9.17,1
3889,57.85,9.07,-3.22,1
3890,57.87,14.9,4.62,1
3891,57.88,23.36,7.88,1
3892,57.89,15.27,1.2,1
3893,57.9,2.95,12.93,1
3894,57.92,-10.66,9.45,1
3895,57.93,17.0,-5.9,1
3896,57.95,14.2,-4.9,1
3897,57.96,4.56,6.03,1
3898,57.97,3.12,-0.88,1
3899,57.99,4.16,-7.24,1
3900,58.0,3.48,2.31,1
3901,58.01,1.76,-12.28,1
3902,58.025000000000006,-9.68,-3.58,1
3903,58.04,15.1,-6.77,1
3904,58.05,3.52,-0.45,1
3905,58.06,-11.9,1.11,1
3906,58.08,-31.88,-2.32,1
3907,58.09,0.2,8.51,1
3908,58.11,-6.73,-10.04,1
3909,58.12,-20.66,-1.5,1
3910,58.13,-7.77,3.59,1
3911,58.15,1.85,-0.62,1
3912,58.16,-4.75,-1.24,0
3913,58.17,12.33,-10.76,0
3914,58.19,-7.53,-0.12,0
3915,58.2,6.27,-2.28,0
3916,58.21,12.87,-10.11,0
3917,58.22,-16.4,8.0,0
3918,58.24,-12.76,-13.4,0
3919,58.25,34.2,12.69,0
3920,58.27,-91.58,-2.12,0
3921,58.28,-108.0,-11.82,0
3922,58.29,-173.5,-22.41,0
3923,58.31,-197.47,-15.79,0
3924,58.32,-188.19,-32.68,0
3925,58.33,-162.88,-17.27,0
3926,58.35,-125.33,-10.36,0
3927,58.36,-80.58,-8.04,0
3928,58.37,-23.47,15.25,0
3929,58.38,45.8,35.75,0
3930,58.4,130.6,15.33,0
3931,58.41,224.39,25.57,0
3932,58.43,285.1,20.27,0
3933,58.44,298.63,22.68,0
3934,58.45,289.02,12.23,0
3935,58.47,251.82,18.81,0
3936,58.48,226.96,12.68,0
3937,58.49,173.25,-5.27,0
3938,58.51,146.89,-2.15,0
3939,58.52,129.98,8.94,0
3940,58.53,85.85,-10.21,0
3941,58.54,45.97,-6.97,0
3942,58.56,32.82,-5.73,1
3943,58.57,4.1,3.4,1
3944,58.59,-18.02,4.49,1
3945,58.6,-37.75,6.14,1
3946,58.61,-62.23,5.74,1
3947,58.63,-85.24,5.95,1
3948,58.64,-86.51,-9.11,1
3949,58.65,-109.01,-0.58,1
3950,58.66,-83.81,-3.63,1
3951,58.68,-98.29,-2.02,1
3952,58.69,-103.07,-2.11,1
3953,58.71,-99.8,2.28,1
3954,58.72,-91.52,5.27,1
3955,58.73,-107.45,-12.54,1
3956,58.75,-108.21,1.7,1
3957,58.76,-92.43,-7.74,1
3958,58.77,-76.51,-8.08,1
3959,58.79,-89.31,-16.68,1
3960,58.8,-80.82,-12.62,1
3961,58.81,-67.17,-16.21,1
3962,58.83,-60.55,-11.3,1
3963,58.84,-61.37,-9.32,1
3964,58.85,-67.94,0.02,1
3965,58.87,-41.67,8.24,1
3966,58.88,-34.01,5.48,1
3967,58.89,-27.92,3.72,1
3968,58.9,-38.88,-3.49,1
3969,58.92,-7.21,-14.42,1
3970,58.93,-20.52,16.03,1
3971,58.95,-12.94,10.49,1
3972,58.96,-20.98,0.01,1
3973,58.97,-8.44,6.87,1
3974,58.99,-5.3,3.53,1
3975,59.0,3.43,2.65,1
3976,59.01,2.37,6.72,1
3977,59.03,27.65,11.6,1
3978,59.04,6.34,-9.06,1
3979,59.05,38.13,3.02,1
3980,59.06,35.01,-7.12,1
3981,59.08,44.6,-12.1,1
3982,59.09,23.56,-15.31,1
3983,59.11,22.29,-4.68,1
3984,59.12,20.54,-1.89,1
3985,59.13,34.29,-1.89,1
3986,59.15,40.14,2.18,1
3987,59.16,26.05,-6.21,1
3988,59.17,48.28,14.15,1
3989,59.19,47.49,16.74,1
3990,59.2,36.14,-6.75,1
3991,59.21,37.81,6.68,1
3992,59.22,44.3,14.84,1
3993,59.24,33.97,2.95,1
3994,59.25,28.93,-8.56,1
3995,59.27,30.16,6.89,1
3996,59.28,39.71,10.51,1
3997,59.29,35.49,3.13,1
3998,59.3,21.53,-0.58,1
3999,59.32,13.67,-3.58,1
4000,59.33,23.54,6.56,1
4001,59.35,22.87,-2.07,1
4002,59.36,23.13,3.98,1
4003,59.37,14.78,-6.86,1
4004,59.38,20.76,-7.05,1
4005,59.4,21.94,1.86,1
4006,59.41,-1.53,8.36,1
4007,59.43,-4.92,-0.36,1
4008,59.44,18.71,-3.18,1
4009,59.45,12.51,-0.61,1
4010,59.47,-10.15,0.44,1
4011,59.48,7.13,14.3,1
4012,59.49,7.15,22.83,1
4013,59.51,-6.97,0.6,1
4014,59.52,1.36,-1.26,1
4015,59.53,0.93,3.19,1
4016,59.54,0.49,-8.05,1
4017,59.56,-9.16,-11.5,1
4018,59.57,-9.38,-9.9,1
4019,59.59,-10.7,-5.53,1
4020,59.6,-10.77,-5.96,1
4021,59.61,-5.04,-12.43,1
4022,59.63,-20.92,-1.27,1
4023,59.64,8.08,-11.91,1
4024,59.65,-19.81,-3.01,1
4025,59.67,-25.47,-6.98,1
4026,59.68,-19.21,-6.45,1
4027,59.69,-13.86,-4.07,1
4028,59.71,-3.92,6.98,1
4029,59.72,-33.99,7.07,1
4030,59.73,-24.72,2.98,1
4031,59.75,-9.27,8.4,1
4032,59.76,-32.86,-3.23,1
4033,59.77,-18.27,-7.37,1
4034,59.79,-28.64,-2.58,1
4035,59.8,9.76,4.94,1
4036,59.81,5.68,2.05,1
4037,59.83,-2.04,24.03,1
4038,59.84,-8.17,-4.38,1
4039,59.85,11.39,-3.04,1
4040,59.87,-0.22,3.87,1
4041,59.88,-4.35,-7.41,1
4042,59.89,-20.71,5.57,1
4043,59.9,-3.18,-10.67,1
4044,59.92,-6.48,-4.58,1
4045,59.93,1.65,-15.38,1
4046,59.94,10.84,7.16,1
4047,59.96,-5.8,3.0,1
4048,59.97,-0.94,6.7,1
4049,59.985,-2.84,15.05,1
4050,60.0,-11.74,-3.73,1
4051,60.01,-0.92,1.78,1
4052,60.03,-3.42,0.9,1
4053,60.04,-3.97,4.26,1
4054,60.05,8.89,-4.75,1
4055,60.06,-0.67,1.21,1
4056,60.08,-22.09,-7.77,1
4057,60.09,6.15,-1.5,1
4058,60.11,0.38,5.02,1
4059,60.12,-1.84,2.78,1
4060,60.13,18.15,-7.17,1
4061,60.15,0.9,11.76,1
4062,60.16,15.51,3.25,0
4063,60.17,16.48,-3.28,0
4064,60.19,-5.4,4.97,0
4065,60.2,-2.23,7.64,0
4066,60.21,22.15,-1.72,0
4067,60.22,-104.54,-7.72,0
4068,60.24,-190.37,-31.22,0
4069,60.25,-217.89,-15.19,0
4070,60.27,-222.03,-44.57,0
4071,60.28,-171.74,8.15,0
4072,60.29,-112.92,-8.03,0
4073,60.31,-20.38,6.02,0
4074,60.32,19.78,17.09,0
4075,60.33,88.41,5.01,0
4076,60.35,135.83,28.68,0
4077,60.36,173.36,16.41,0
4078,60.37,207.48,16.62,0
4079,60.38,204.26,23.74,0
4080,60.4,208.7,7.43,0
4081,60.41,218.45,-0.07,0
4082,60.43,175.48,-3.78,0
4083,60.44,174.98,-26.72,0
4084,60.45,137.2,-6.82,0
4085,60.47,140.47,5.8,0
4086,60.48,99.8,4.76,0
4087,60.49,84.63,-8.41,0
4088,60.51,56.6,-5.69,0
4089,60.52,48.7,-3.42,0
4090,60.53,26.52,0.43,0
4091,60.54,12.29,2.17,0
4092,60.56,-16.86,1.52,1
4093,60.57,-8.42,2.98,1
4094,60.58,-35.47,-3.29,1
4095,60.6,-50.03,15.32,1
4096,60.61,-60.2,18.58,1
4097,60.62,-77.89,-10.31,1
4098,60.64,-78.0,-5.33,1
4099,60.65,-88.71,-0.88,1
4100,60.67,-72.79,4.54,1
4101,60.68,-90.93,-5.62,1
4102,60.69,-74.84,-1.55,1
4103,60.71,-107.69,10.21,1
4104,60.72,-91.52,17.87,1
4105,60.73,-96.44,13.06,1
4106,60.75,-97.59,21.95,1
4107,60.76,-102.3,10.0,1
4108,60.77,-95.96,6.38,1
4109,60.79,-84.7,5.81,1
4110,60.8,-98.84,-10.65,1
4111,60.81,-90.5,-15.99,1
4112,60.83,-58.1,-11.71,1
4113,60.84,-63.36,-8.41,1
4114,60.85,-49.58,-13.64,1
4115,60.87,-41.76,-20.26,1
4116,60.88,-24.28,-8.51,1
4117,60.89,-21.66,-18.08,1
4118,60.9,-23.42,-15.58,1
4119,60.92,-4.31,-1.11,1
4120,60.93,7.17,14.49,1
4121,60.95,-6.21,-3.67,1
4122,60.96,-1.0,-11.53,1
4123,60.97,-1.02,-10.42,1
4124,60.99,17.75,-13.69,1
4125,61.0,7.19,-4.91,1
4126,61.01,14.99,-11.97,1
4127,61.03,16.53,3.47,1
4128,61.04,33.93,4.64,1
4129,61.05,27.06,-10.27,1
4130,61.06,31.42,-14.08,1
4131,61.08,44.58,-6.56,1
4132,61.09,30.14,-8.23,1
4133,61.11,33.45,4.77,1
4134,61.12,32.38,10.07,1
4135,61.13,41.97,5.93,1
4136,61.15,33.7,5.86,1
4137,61.16,28.44,7.09,1
4138,61.17,31.87,5.22,1
4139,61.19,51.84,16.67,1
4140,61.2,24.99,21.19,1
4141,61.21,21.16,6.5,1
4142,61.22,31.79,10.68,1
4143,61.24,32.81,11.48,1
4144,61.25,28.09,5.6,1
4145,61.26,17.03,-7.72,1
4146,61.28,17.23,13.06,1
4147,61.29,39.96,3.02,1
4148,61.31,20.79,1.39,1
4149,61.32,30.84,-7.62,1
4150,61.33,16.92,-1.74,1
4151,61.35,33.62,-2.01,1
4152,61.36,19.72,4.24,1
4153,61.37,22.54,12.03,1
4154,61.38,25.22,-9.78,1
4155,61.4,21.08,-11.53,1
4156,61.41,22.55,3.5,1
4157,61.43,4.69,-16.81,1
4158,61.44,14.15,-6.79,1
4159,61.45,3.05,-18.92,1
4160,61.47,1.24,0.29,1
4161,61.48,7.18,9.85,1
4162,61.49,-1.07,-6.4,1
4163,61.51,-5.72,-0.86,1
4164,61.52,-13.35,15.92,1
4165,61.53,-29.73,6.17,1
4166,61.54,-2.73,3.99,1
4167,61.56,-19.56,15.64,1
4168,61.57,-5.53,-0.15,1
4169,61.59,-15.25,-0.24,1
4170,61.6,-4.21,2.05,1
4171,61.61,-11.97,7.98,1
4172,61.63,-4.11,2.03,1
4173,61.64,-14.17,9.64,1
4174,61.65,1.04,-7.71,1
4175,61.67,-21.28,-10.38,1
4176,61.68,-6.79,-21.01,1
4177,61.69,-14.44,7.48,1
4178,61.71,-6.48,6.68,1
4179,61.72,-14.15,-2.97,1
4180,61.73,-22.99,-2.32,1
4181,61.75,-18.09,4.93,1
4182,61.76,-5.85,-1.67,1
4183,61.77,-15.13,5.61,1
4184,61.79,-10.45,1.03,1
4185,61.8,-7.5,-30.68,1
4186,61.81,-0.76,18.92,1
4187,61.83,-24.02,11.18,1
4188,61.84,-19.97,12.53,1
4189,61.85,6.13,1.81,1
4190,61.86,-3.08,-3.03,1
4191,61.88,-7.01,-4.22,1
4192,61.89,-11.91,-5.48,1
4193,61.9,2.03,-0.29,1
4194,61.92,-19.92,-6.26,1
4195,61.93,-18.85,-1.47,1
4196,61.95,-21.27,-9.22,1
4197,61.96,6.78,7.83,1
4198,61.97,-6.96,14.88,1
4199,61.99,4.77,-4.71,1
4200,62.0,-15.17,-1.69,1
4201,62.01,10.06,-7.11,1
4202,62.03,2.5,-15.42,1
4203,62.04,9.77,11.95,1
4204,62.05,7.95,0.62,1
4205,62.06,14.09,7.16,1
4206,62.08,-13.99,0.95,1
4207,62.09,9.01,-15.42,1
4208,62.11,-5.78,6.3,1
4209,62.12,11.1,9.65,1
4210,62.13,15.09,13.24,1
4211,62.15,-20.23,5.11,1
4212,62.16,26.64,-10.16,2
4213,62.17,11.74,-1.87,2
4214,62.19,7.83,-14.28,2
4215,62.2,18.22,-9.97,2
4216,62.21,-4.35,-9.16,2
4217,62.22,23.97,5.85,2
4218,62.24,12.34,16.14,2
4219,62.25,1.01,12.1,2
4220,62.27,62.38,12.07,2
4221,62.28,124.51,14.7,2
4222,62.29,170.06,2.74,2
4223,62.31,194.86,-0.83,2
4224,62.32,205.69,6.77,2
4225,62.33,169.73,-5.45,2
4226,62.35,137.38,-23.8,2
4227,62.36,86.25,-17.75,2
4228,62.37,43.59,-28.08,2
4229,62.38,0.89,-25.76,2
4230,62.4,-50.22,-19.81,2
4231,62.41,-133.57,-12.87,2
4232,62.43,-224.44,-27.93,2
4233,62.44,-299.67,5.07,2
4234,62.45,-324.53,7.63,2
4235,62.47,-317.25,2.33,2
4236,62.48,-286.36,-3.4,2
4237,62.49,-255.7,4.93,2
4238,62.5,-226.07,4.44,2
4239,62.52,-163.57,9.56,2
4240,62.53,-127.77,-1.07,2
4241,62.54,-113.72,-4.51,2
4242,62.56,-82.63,14.7,1
4243,62.57,-44.74,13.23,1
4244,62.585,-12.83,5.87,1
4245,62.6,8.88,1.65,1
4246,62.61,16.6,-14.28,1
4247,62.63,60.7,2.36,1
4248,62.64,65.57,2.2,1
4249,62.65,80.31,13.38,1
4250,62.67,80.98,22.36,1
4251,62.68,101.14,10.63,1
4252,62.69,101.46,13.69,1
4253,62.71,100.0,2.55,1
4254,62.72,100.22,4.93,1
4255,62.73,128.07,-10.49,1
4256,62.75,118.43,-7.08,1
4257,62.76,113.64,1.8,1
4258,62.77,106.16,21.44,1
4259,62.79,127.91,1.48,1
4260,62.8,100.52,5.51,1
4261,62.81,100.32,-13.03,1
4262,62.83,103.23,18.22,1
4263,62.84,116.66,-5.99,1
4264,62.85,92.67,-1.38,1
4265,62.87,85.68,-6.07,1
4266,62.88,59.94,8.99,1
4267,62.89,74.21,-5.48,1
4268,62.9,52.6,-6.87,1
4269,62.92,43.29,-4.8,1
4270,62.93,39.53,2.95,1
4271,62.95,33.62,4.3,1
4272,62.96,12.7,15.11,1
4273,62.97,15.84,12.45,1
4274,62.99,9.83,4.46,1
4275,63.0,2.83,15.45,1
4276,63.01,3.91,-0.95,1
4277,63.03,-9.34,7.44,1
4278,63.04,-14.0,-6.83,1
4279,63.05,-21.01,5.99,1
4280,63.06,-36.77,-3.1,1
4281,63.08,-24.13,15.03,1
4282,63.09,-6.47,20.71,1
4283,63.11,-35.82,-7.7,1
4284,63.12,-49.88,-2.79,1
4285,63.13,-48.05,-11.6,1
4286,63.14,-47.65,-14.43,1
4287,63.16,-37.45,-20.02,1
4288,63.17,-55.75,-10.52,1
4289,63.18,-56.16,-9.79,1
4290,63.2,-52.41,-20.08,1
4291,63.21,-48.27,-11.53,1
4292,63.22,-45.22,8.23,1
4293,63.24,-50.38,0.07,1
4294,63.25,-48.66,-32.22,1
4295,63.27,-54.27,-14.09,1
4296,63.28,-38.3,-11.69,1
4297,63.29,-23.12,3.11,1
4298,63.31,-26.38,1.85,1
4299,63.32,-30.43,7.84,1
4300,63.33,-42.07,17.77,1
4301,63.35,-23.8,-1.13,1
4302,63.36,-43.5,12.56,1
4303,63.37,-37.62,1.85,1
4304,63.38,-33.17,-3.44,1
4305,63.4,-17.84,-6.65,1
4306,63.41,-11.24,-10.23,1
4307,63.43,-22.68,1.01,1
4308,63.44,-21.41,12.22,1
4309,63.45,-10.33,3.73,1
4310,63.47,-8.26,-16.63,1
4311,63.48,-12.75,1.77,1
4312,63.49,-0.96,5.52,1
4313,63.51,6.87,12.3,1
4314,63.52,-5.56,-6.75,1
4315,63.53,-4.85,4.77,1
4316,63.54,-5.46,-8.88,1
4317,63.56,17.58,-2.29,1
4318,63.57,10.06,6.65,1
4319,63.59,4.75,3.37,1
4320,63.6,15.47,2.16,1
4321,63.61,32.18,2.92,1
4322,63.63,16.17,0.74,1
4323,63.64,17.35,14.8,1
4324,63.65,34.02,5.93,1
4325,63.67,19.72,-4.69,1
4326,63.68,11.38,-11.56,1
4327,63.69,-3.09,-3.53,1
4328,63.71,29.8,-8.3,1
4329,63.72,14.01,1.11,1
4330,63.73,23.35,0.87,1
4331,63.75,2.58,11.48,1
4332,63.76,32.03,5.07,1
4333,63.77,15.75,-12.35,1
4334,63.78,13.62,-19.24,1
4335,63.8,-3.21,1.04,1
4336,63.81,25.06,-17.29,1
4337,63.82,11.55,9.56,1
4338,63.84,13.52,4.52,1
4339,63.85,-7.62,10.31,1
4340,63.86,23.09,8.96,1
4341,63.88,12.21,7.42,1
4342,63.89,8.67,11.47,1
4343,63.9,3.38,-16.91,1
4344,63.92,9.13,-4.66,1
4345,63.93,4.06,9.55,1
4346,63.95,-6.45,6.33,1
4347,63.96,4.82,16.53,1
4348,63.97,16.82,6.28,1
4349,63.99,10.6,-5.11,1
4350,64.0,2.19,-10.03,1
4351,64.01,7.26,-3.72,1
4352,64.02,14.76,12.51,1
4353,64.04,-10.69,-11.69,1
4354,64.05,-5.1,-7.59,1
4355,64.06,8.2,-19.96,1
4356,64.08,9.99,-14.06,1
4357,64.09,-7.69,7.26,1
4358,64.11,-3.27,35.61,1
4359,64.12,19.59,86.34,1
4360,64.13,-20.6,142.49,1
4361,64.14,-23.56,161.2,1
4362,64.16,-4.06,11.98,1
4363,64.17,-35.74,230.28,1
4364,64.18,-15.79,282.78,1
4365,64.2,-3.37,195.93,1
4366,64.21,-137.51,78.78,1
4367,64.22,110.86,-9.37,1
4368,64.24,72.59,-29.26,1
4369,64.25,29.37,-206.45,1
4370,64.26,-55.05,-164.75,1
4371,64.28,-133.77,-421.59,1
4372,64.29,-47.47,-276.22,1
4373,64.3,-147.81,-752.05,1
4374,64.32,-189.22,-334.45,1
4375,64.33,-91.81,181.19,1
4376,64.34,-220.8,117.8,1
4377,64.36,-13.88,-130.75,1
4378,64.37,239.57,206.04,1
4379,64.38,-58.43,-216.47,1
4380,64.4,1.73,14.88,1
4381,64.41,-54.59,-170.17,1
4382,64.42,342.66,-114.86,1
4383,64.44,-124.04,379.35,1
4384,64.45,31.23,69.36,1
4385,64.46,474.4,303.73,1
4386,64.48,350.36,209.6,1
4387,64.49,425.29,-158.55,1
4388,64.5,62.66,-256.09,1
4389,64.52,51.63,-65.77,1
4390,64.53,-1.13,-323.12,1
4391,64.54,-27.92,46.5,1
4392,64.56,-257.33,192.73,1
4393,64.57,-15.48,438.37,1
4394,64.58,-111.05,95.96,1
4395,64.6,-36.63,-294.42,1
4396,64.61,-58.06,-298.79,1
4397,64.62,356.9,-178.09,1
4398,64.64,-254.75,140.46,1
4399,64.65,-282.59,89.48,1
4400,64.66,-233.72,407.87,1
4401,64.68,-61.06,437.51,1
4402,64.69,-19.02,352.2,1
4403,64.7,271.15,-136.88,1
4404,64.72,-53.83,-90.73,1
4405,64.73,-31.1,367.14,1
4406,64.75,228.87,-219.61,1
4407,64.76,-65.29,141.55,1
4408,64.77,-245.4,186.11,1
4409,64.79,272.86,-66.13,1
4410,64.8,108.98,283.16,1
4411,64.81,52.17,-389.27,1
4412,64.82,128.22,-159.59,1
4413,64.84,-179.89,43.53,1
4414,64.85,-30.46,-32.77,1
4415,64.86,-97.13,-62.41,1
4416,64.88,-113.59,-50.71,1
4417,64.89,-49.39,-154.49,1
4418,64.9,-57.39,58.68,1
4419,64.92,-5.04,-108.3,1
4420,64.93,79.35,-137.04,1
4421,64.94,134.08,-189.15,1
4422,64.96,90.95,-127.51,1
4423,64.97,21.91,-83.39,1
4424,64.98,-83.3,-33.8,1
4425,65.0,-117.75,-1.69,1
4426,65.01,-169.11,33.49,1
4427,65.02,-175.71,92.53,1
4428,65.04,-196.8,120.02,1
4429,65.05,-140.85,138.71,1
4430,65.06,-124.16,146.77,1
4431,65.08,-112.92,142.19,1
4432,65.09,-97.34,154.65,1
4433,65.1,-61.82,105.98,1
4434,65.12,-41.36,97.44,1
4435,65.13,-23.92,73.0,1
4436,65.14,-1.84,62.91,1
4437,65.16,17.3,37.13,1
4438,65.17,19.89,44.13,1
4439,65.18,31.49,11.44,1
4440,65.2,48.06,1.28,1
4441,65.21,48.69,-7.99,1
4442,65.22,44.31,-17.23,1
4443,65.24,45.7,-46.07,1
4444,65.25,59.3,-44.61,1
4445,65.26,33.4,-66.28,1
4446,65.28,44.66,-65.4,1
4447,65.29,65.19,-56.79,1
4448,65.3,36.29,-60.63,1
4449,65.32,46.49,-67.58,1
4450,65.33,47.65,-51.35,1
4451,65.34,55.43,-50.54,1
4452,65.36,77.21,-53.34,1
4453,65.37,71.71,-43.29,1
4454,65.38,83.16,-71.6,1
4455,65.4,62.31,-51.3,1
4456,65.41,75.08,-58.36,1
4457,65.43,71.81,-37.94,1
4458,65.44,54.0,-44.41,1
4459,65.45,31.87,-47.52,1
4460,65.46,35.82,-39.2,1
4461,65.48,47.46,-43.37,1
4462,65.49,30.96,-42.01,1
4463,65.5,29.46,-31.07,1
4464,65.52,37.83,-29.55,1
4465,65.53,18.89,-29.17,1
4466,65.54,13.79,-29.8,1
4467,65.56,13.62,-3.89,1
4468,65.57,-5.89,-3.59,1
4469,65.58,-3.19,5.6,1
4470,65.6,-5.41,-3.73,1
4471,65.61,4.89,8.41,1
4472,65.62,-13.36,3.49,1
4473,65.64,-11.03,0.18,1
4474,65.65,-2.26,5.71,1
4475,65.66,-14.11,13.93,1
4476,65.68,-11.79,17.93,1
4477,65.69,-9.9,15.95,1
4478,65.7,-20.5,28.74,1
4479,65.72,-11.89,25.08,1
4480,65.73,-14.17,16.85,1
4481,65.74,-27.83,20.45,1
4482,65.76,-23.17,41.29,1
4483,65.77,-21.42,16.15,1
4484,65.78,-29.92,21.96,1
4485,65.8,-42.09,12.56,1
4486,65.81,-12.16,16.93,1
4487,65.82,-25.71,11.49,1
4488,65.84,-25.19,2.99,1
4489,65.85,-20.48,6.69,1
4490,65.86,-21.94,16.98,1
4491,65.88,-27.16,21.33,1
4492,65.89,-26.11,26.16,1
4493,65.9,-14.86,13.68,1
4494,65.92,7.94,34.24,1
4495,65.93,-21.97,22.64,1
4496,65.94,-21.66,15.78,1
4497,65.96,-41.5,20.19,1
4498,65.97,-9.28,2.25,1
4499,65.98,-17.3,15.18,1
4500,66.0,-15.81,7.66,1
4501,66.01,-13.38,9.38,1
4502,66.02,5.21,20.48,1
4503,66.04,-15.2,12.34,1
4504,66.05,-19.46,2.54,1
4505,66.06,-11.64,5.93,1
4506,66.08,-2.22,4.1,1
4507,66.09,-23.38,1.65,1
4508,66.11,-7.86,-6.38,1
4509,66.12,6.97,-12.8,1
4510,66.13,6.4,3.16,1
4511,66.14,20.75,5.26,1
4512,66.16,11.1,-19.55,2
4513,66.17,-13.99,8.38,2
4514,66.18,43.3,-9.38,2
4515,66.2,3.14,-8.58,2
4516,66.21,-19.83,-1.14,2
4517,66.22,19.89,-5.51,2
4518,66.24,3.43,-16.02,2
4519,66.25,-1.73,-32.95,2
4520,66.26,21.32,20.0,2
4521,66.28,-8.36,0.15,2
4522,66.29,46.44,7.23,2
4523,66.3,91.04,-4.24,2
4524,66.32,152.61,0.33,2
4525,66.33,220.75,-5.43,2
4526,66.34,209.38,24.34,2
4527,66.36,148.83,-13.83,2
4528,66.37,103.52,-19.65,2
4529,66.38,49.76,-4.24,2
4530,66.4,-20.0,-5.36,2
4531,66.41,-74.51,-33.83,2
4532,66.42,-130.9,12.95,2
4533,66.44,-122.83,2.53,2
4534,66.45,-170.19,-6.68,2
4535,66.46,-192.45,-7.15,2
4536,66.48,-186.28,-6.06,2
4537,66.49,-170.79,-5.81,2
4538,66.5,-169.16,10.2,2
4539,66.52,-142.5,5.68,2
4540,66.53,-116.37,9.86,2
4541,66.54,-87.73,18.09,2
4542,66.56,-85.86,12.23,1
4543,66.57,-70.97,18.6,1
4544,66.58,-47.44,16.98,1
4545,66.6,-38.12,5.59,1
4546,66.61,-8.11,-0.2,1
4547,66.62,-0.49,-3.79,1
4548,66.64,8.23,-17.55,1
4549,66.65,26.41,-20.86,1
4550,66.66,35.23,-23.04,1
4551,66.68,53.25,-10.4,1
4552,66.69,76.15,-6.1,1
4553,66.7,67.22,-5.66,1
4554,66.72,64.43,-15.48,1
4555,66.73,66.96,-7.43,1
4556,66.75,71.46,-8.94,1
4557,66.76,74.66,-5.67,1
4558,66.77,65.27,-14.1,1
4559,66.79,64.72,-3.15,1
4560,66.8,82.85,1.68,1
4561,66.81,74.16,-22.3,1
4562,66.82,67.83,-8.92,1
4563,66.84,62.92,14.87,1
4564,66.85,56.31,3.49,1
4565,66.86,52.72,3.7,1
4566,66.88,42.1,12.29,1
4567,66.89,51.67,7.05,1
4568,66.9,50.58,-5.96,1
4569,66.92,58.2,0.06,1
4570,66.93,35.4,15.01,1
4571,66.94,28.67,16.41,1
4572,66.96,29.03,3.88,1
4573,66.97,19.63,8.58,1
4574,66.98,8.48,18.43,1
4575,67.0,4.27,3.51,1
4576,67.01,19.02,-5.49,1
4577,67.02,20.2,-9.1,1
4578,67.04,-3.62,-10.73,1
4579,67.05,-5.59,-1.19,1
4580,67.06,-3.44,-7.13,1
4581,67.08,-16.86,-2.12,1
4582,67.09,-21.14,11.97,1
4583,67.1,-10.77,1.06,1
4584,67.12,-8.34,-13.6,1
4585,67.13,-17.75,4.66,1
4586,67.14,-33.52,5.57,1
4587,67.16,-15.25,4.65,1
4588,67.17,-30.74,-26.21,1
4589,67.18,-29.3,11.0,1
4590,67.2,-32.37,23.49,1
4591,67.21,-11.88,18.88,1
4592,67.22,-32.13,8.41,1
4593,67.24,-32.6,4.9,1
4594,67.25,-30.22,6.09,1
4595,67.26,-15.61,-12.05,1
4596,67.28,-22.36,-9.76,1
4597,67.29,-44.36,4.46,1
4598,67.3,-28.71,1.17,1
4599,67.32,-21.68,7.55,1
4600,67.33,-21.14,-4.59,1
4601,67.34,-29.24,0.7,1
4602,67.36,-23.16,-0.53,1
4603,67.37,-4.39,-3.22,1
4604,67.38,-33.63,-2.99,1
4605,67.4,-30.52,9.85,1
4606,67.41,-20.42,-2.37,1
4607,67.43,-24.5,-16.69,1
4608,67.44,-11.83,-4.17,1
4609,67.45,-29.73,3.34,1
4610,67.46,2.67,8.24,1
4611,67.48,-30.95,-3.95,1
4612,67.49,-4.7,-0.71,1
4613,67.5,-16.31,1.23,1
4614,67.52,5.03,-15.28,1
4615,67.53,-7.82,3.78,1
4616,67.54,0.02,20.31,1
4617,67.56,-3.63,5.38,1
4618,67.57,13.37,-10.44,1
4619,67.58,9.32,0.48,1
4620,67.6,1.46,13.88,1
4621,67.61,15.83,1.21,1
4622,67.62,7.18,-16.05,1
4623,67.64,4.25,-6.24,1
4624,67.65,3.87,-3.65,1
4625,67.66,3.43,-0.73,1
4626,67.68,21.2,-6.23,1
4627,67.69,13.71,3.59,1
4628,67.7,8.79,-11.72,1
4629,67.72,0.5,9.51,1
4630,67.73,4.77,7.91,1
4631,67.74,10.99,-1.27,1
4632,67.76,6.74,-13.03,1
4633,67.77,24.08,6.23,1
4634,67.785,12.48,-13.49,1
4635,67.8,-1.62,3.35,1
4636,67.81,10.84,-1.79,1
4637,67.82,16.93,3.36,1
4638,67.84,3.77,-10.68,1
4639,67.85,5.7,1.36,1
4640,67.86,7.87,14.86,1
4641,67.88,14.08,0.34,1
4642,67.89,-7.36,12.59,1
4643,67.9,8.29,8.77,1
4644,67.92,15.27,5.35,1
4645,67.93,15.63,-26.4,1
4646,67.94,17.53,-4.75,1
4647,67.96,1.89,-11.51,1
4648,67.97,-3.16,14.46,1
4649,67.98,12.49,-1.42,1
4650,68.0,13.51,2.08,1
4651,68.01,-14.94,-1.07,1
4652,68.02,10.83,1.81,1
4653,68.04,13.59,-6.54,1
4654,68.05,1.62,-0.49,1
4655,68.06,2.37,-0.2,1
4656,68.08,-12.28,-1.3,1
4657,68.09,-11.64,-5.68,1
4658,68.11,-9.62,-3.31,1
4659,68.12,-11.6,-3.86,1
4660,68.13,-1.81,9.12,1
4661,68.14,24.11,13.99,1
4662,68.16,-8.62,14.88,0
4663,68.17,-0.85,-6.74,0
4664,68.18,18.42,-0.6,0
4665,68.2,-7.02,8.13,0
4666,68.21,5.25,7.17,0
4667,68.22,-13.85,7.28,0
4668,68.24,-13.75,-1.4,0
4669,68.25,-2.78,0.56,0
4670,68.26,-12.87,-27.26,0
4671,68.28,-15.19,-2.88,0
4672,68.29,27.77,-7.78,0
4673,68.3,15.34,3.69,0
4674,68.32,3.63,3.33,0
4675,68.33,-121.5,-3.77,0
4676,68.34,-135.92,3.23,0
4677,68.36,-179.69,4.48,0
4678,68.37,-183.39,-20.11,0
4679,68.38,-185.28,-30.44,0
4680,68.4,-147.02,-27.07,0
4681,68.41,-110.76,-5.93,0
4682,68.42,-63.45,-7.58,0
4683,68.44,-7.51,4.02,0
4684,68.45,72.29,10.69,0
4685,68.46,147.11,7.86,0
4686,68.48,232.7,16.93,0
4687,68.49,264.63,7.85,0
4688,68.5,274.8,25.6,0
4689,68.52,259.09,16.25,0
4690,68.53,239.99,6.92,0
4691,68.54,215.11,0.19,0
4692,68.56,176.68,24.42,1
4693,68.57,138.96,18.59,1
4694,68.58,114.8,4.7,1
4695,68.6,85.03,-7.99,1
4696,68.61,46.3,-9.04,1
4697,68.62,-20.56,3.44,1
4698,68.64,-42.84,10.6,1
4699,68.65,-38.49,7.2,1
4700,68.66,-30.49,18.48,1
4701,68.68,-38.31,15.97,1
4702,68.69,-51.49,-9.3,1
4703,68.7,-57.53,-6.24,1
4704,68.72,-49.42,-7.77,1
4705,68.73,-80.5,4.35,1
4706,68.75,-84.82,2.12,1
4707,68.76,-66.78,3.39,1
4708,68.77,-87.55,-7.95,1
4709,68.79,-93.11,-30.86,1
4710,68.8,-97.45,-18.63,1
4711,68.81,-71.48,5.59,1
4712,68.82,-92.76,-5.19,1
4713,68.84,-83.8,-16.51,1
4714,68.85,-72.21,-21.41,1
4715,68.86,-63.2,12.71,1
4716,68.88,-73.72,-10.96,1
4717,68.89,-78.05,-8.55,1
4718,68.9,-50.35,-0.95,1
4719,68.92,-72.84,-2.74,1
4720,68.93,-57.16,-3.91,1
4721,68.94,-49.13,-8.77,1
4722,68.96,-36.84,-7.97,1
4723,68.97,-24.08,2.53,1
4724,68.98,-37.88,-4.57,1
4725,69.0,-26.5,-9.54,1
4726,69.01,-19.29,-5.54,1
4727,69.02,-23.15,-0.86,1
4728,69.04,-20.49,15.38,1
4729,69.05,-18.25,1.71,1
4730,69.06,-4.17,9.92,1
4731,69.08,1.19,16.83,1
4732,69.09,-17.15,6.91,1
4733,69.11,2.44,-10.7,1
4734,69.12,21.34,6.06,1
4735,69.13,17.37,-2.86,1
4736,69.14,24.0,9.44,1
4737,69.16,31.89,-1.76,1
4738,69.17,56.22,-4.47,1
4739,69.18,27.78,9.63,1
4740,69.2,31.96,6.79,1
4741,69.21,37.56,21.0,1
4742,69.22,55.9,-8.47,1
4743,69.24,39.83,-2.48,1
4744,69.25,37.81,-8.92,1
4745,69.26,25.87,0.92,1
4746,69.28,39.97,8.88,1
4747,69.29,25.09,2.43,1
4748,69.3,34.03,-1.48,1
4749,69.32,53.29,20.13,1
4750,69.33,29.09,18.42,1
4751,69.34,34.4,13.04,1
4752,69.36,24.18,-10.78,1
4753,69.37,40.47,-2.37,1
4754,69.38,32.51,-1.77,1
4755,69.4,29.05,-0.83,1
4756,69.41,16.13,-4.41,1
4757,69.43,26.37,0.34,1
4758,69.44,25.26,-3.78,1
4759,69.45,16.9,-24.53,1
4760,69.46,9.28,-22.81,1
4761,69.48,21.82,-9.46,1
4762,69.49,23.89,-1.07,1
4763,69.5,5.76,-23.64,1
4764,69.52,-17.95,1.95,1
4765,69.53,-3.39,-3.58,1
4766,69.54,-9.06,4.25,1
4767,69.56,-7.15,6.62,1
4768,69.57,8.23,-2.12,1
4769,69.58,2.76,3.54,1
4770,69.6,3.1,1.72,1
4771,69.61,-7.23,2.75,1
4772,69.62,-10.61,0.02,1
4773,69.64,10.63,-11.32,1
4774,69.65,-3.54,7.18,1
4775,69.66,2.48,2.82,1
4776,69.68,5.35,6.81,1
4777,69.69,-9.52,19.39,1
4778,69.7,-5.54,-2.71,1
4779,69.72,-27.01,6.04,1
4780,69.73,-0.95,4.91,1
4781,69.75,-25.85,1.03,1
4782,69.76,0.74,10.5,1
4783,69.77,-22.74,-1.92,1
4784,69.79,-10.92,9.44,1
4785,69.8,-6.22,-4.21,1
4786,69.81,-33.67,0.18,1
4787,69.82,-21.49,-1.22,1
4788,69.84,-6.18,10.2,1
4789,69.85,-12.42,1.97,1
4790,69.86,-9.58,-9.15,1
4791,69.88,-15.37,5.59,1
4792,69.89,-9.2,4.32,1
4793,69.9,-3.72,5.2,1
4794,69.92,-5.41,-3.45,1
4795,69.93,-7.74,2.08,1
4796,69.94,-1.16,-3.46,1
4797,69.96,-8.62,-4.15,1
4798,69.97,-14.8,-33.27,1
4799,69.98,-12.57,-13.73,1
4800,70.0,4.49,1.37,1
4801,70.01,-3.83,1.65,1
4802,70.02,-9.1,-3.91,1
4803,70.04,-4.99,6.38,1
4804,70.05,5.69,-4.82,1
4805,70.06,4.76,-5.42,1
4806,70.08,-9.36,6.68,1
4807,70.09,-15.39,13.48,1
4808,70.11,-5.16,8.61,1
4809,70.12,-25.73,-4.87,1
4810,70.13,-14.49,3.25,1
4811,70.14,18.18,21.53,1
4812,70.16,7.29,-7.82,0
4813,70.17,19.45,8.02,0
4814,70.18,6.74,6.63,0
4815,70.2,6.22,-21.1,0
4816,70.21,4.57,-9.82,0
4817,70.22,-1.5,-8.7,0
4818,70.24,-16.74,-34.97,0
4819,70.25,-17.65,-23.75,0
4820,70.26,-114.58,-8.25,0
4821,70.28,-171.93,11.22,0
4822,70.29,-189.15,9.45,0
4823,70.3,-174.57,3.67,0
4824,70.32,-136.5,21.8,0
4825,70.33,-78.55,25.7,0
4826,70.34,-29.82,24.92,0
4827,70.36,58.93,5.79,0
4828,70.37,102.86,0.91,0
4829,70.38,146.6,-21.98,0
