,Timestamp,Data1,Data2,Label
0,6.0,-8.62,16.01,1
1,6.01,-21.28,-11.34,1
2,6.03,-22.76,2.58,1
3,6.04,8.73,-3.14,1
4,6.05,-4.58,10.96,1
5,6.07,13.87,-3.84,1
6,6.08,10.44,-10.73,1
7,6.09,-11.19,-2.4,1
8,6.11,2.88,7.51,1
9,6.12,-6.42,-10.52,1
10,6.13,31.35,-3.14,1
11,6.15,18.06,3.57,2
12,6.16,9.91,-19.76,2
13,6.17,-1.66,-0.73,2
14,6.19,56.35,17.62,2
15,6.2,126.13,12.9,2
16,6.21,202.09,37.73,2
17,6.23,230.97,40.32,2
18,6.24,203.07,37.86,2
19,6.25,137.41,-1.99,2
20,6.27,59.11,-34.3,2
21,6.28,-45.61,-56.5,2
22,6.29,-79.44,-81.64,2
23,6.31,-140.22,-50.67,2
24,6.32,-172.98,-70.53,2
25,6.33,-196.5,-32.42,2
26,6.35,-186.32,-23.44,2
27,6.36,-184.01,-2.73,2
28,6.37,-194.3,-4.9,2
29,6.39,-167.92,0.63,2
30,6.4,-160.28,24.8,2
31,6.41,-134.56,30.1,2
32,6.43,-130.86,23.91,2
33,6.44,-80.63,51.07,2
34,6.45,-75.96,47.27,2
35,6.47,-80.28,18.59,2
36,6.48,-35.17,42.02,2
37,6.49,-9.27,24.62,2
38,6.51,-22.99,6.78,2
39,6.52,2.21,36.06,2
40,6.53,13.49,34.89,2
41,6.55,55.5,26.6,2
42,6.56,57.01,36.36,1
43,6.57,48.92,8.95,1
44,6.59,63.32,-9.49,1
45,6.6,73.69,-13.87,1
46,6.61,74.48,-13.19,1
47,6.63,84.45,2.13,1
48,6.64,98.89,4.76,1
49,6.65,105.81,0.71,1
50,6.67,81.26,2.7,1
51,6.68,88.98,-5.77,1
52,6.69,84.3,-12.58,1
53,6.71,88.92,-3.66,1
54,6.72,68.2,-16.21,1
55,6.73,72.6,-19.66,1
56,6.75,56.13,-7.83,1
57,6.76,76.82,-23.13,1
58,6.77,71.41,-12.82,1
59,6.79,58.63,-9.46,1
60,6.8,72.42,-6.04,1
61,6.81,43.09,8.72,1
62,6.83,29.84,-7.21,1
63,6.84,12.52,-5.41,1
64,6.85,30.32,-21.84,1
65,6.87,17.32,-13.38,1
66,6.88,19.13,-17.03,1
67,6.89,1.06,-20.57,1
68,6.91,16.46,-22.54,1
69,6.92,-6.23,-12.55,1
70,6.93,-3.86,-12.97,1
71,6.95,-13.89,3.15,1
72,6.96,3.15,-3.36,1
73,6.97,-19.52,-7.05,1
74,6.99,-35.4,-3.57,1
75,7.0,-42.02,3.35,1
76,7.01,-25.19,1.96,1
77,7.03,-27.4,-4.52,1
78,7.04,-18.76,-10.24,1
79,7.05,-29.21,-5.64,1
80,7.07,-30.52,13.69,1
81,7.08,-39.31,13.76,1
82,7.09,-28.36,7.11,1
83,7.11,-32.73,6.29,1
84,7.12,-18.65,6.49,1
85,7.13,-23.81,12.67,1
86,7.15,-27.36,0.55,1
87,7.16,-17.95,6.62,1
88,7.17,-36.36,7.74,1
89,7.19,-38.88,7.34,1
90,7.2,-43.28,-1.14,1
91,7.21,-35.94,-1.46,1
92,7.23,-10.83,-10.27,1
93,7.24,-30.96,7.34,1
94,7.25,-29.75,0.8,1
95,7.27,-20.38,7.67,1
96,7.28,-25.82,9.66,1
97,7.29,-18.16,15.8,1
98,7.31,-25.02,19.32,1
99,7.32,-20.54,4.02,1
100,7.33,-23.83,18.98,1
101,7.35,-11.54,8.51,1
102,7.36,5.62,-6.97,1
103,7.37,6.82,5.78,1
104,7.39,-3.51,10.22,1
105,7.4,-15.95,-3.46,1
106,7.41,-9.51,-6.61,1
107,7.43,9.79,10.3,1
108,7.44,13.96,-1.9,1
109,7.45,-3.34,-17.22,1
110,7.47,-25.7,-5.31,1
111,7.48,-11.21,-7.27,1
112,7.49,-8.17,-5.6,1
113,7.51,2.85,1.78,1
114,7.52,12.73,-4.93,1
115,7.53,17.76,9.99,1
116,7.55,5.02,10.52,1
117,7.56,12.68,11.76,1
118,7.57,24.65,-1.06,1
119,7.59,-2.54,0.29,1
120,7.6,7.08,-9.97,1
121,7.61,6.0,-5.29,1
122,7.63,21.37,7.18,1
123,7.64,7.09,-9.38,1
124,7.65,12.35,2.27,1
125,7.67,1.56,-5.24,1
126,7.68,28.35,-13.07,1
127,7.69,12.66,-10.06,1
128,7.71,9.96,-2.06,1
129,7.72,15.16,8.78,1
130,7.73,31.35,-1.49,1
131,7.75,0.41,-2.87,1
132,7.76,8.11,-12.17,1
133,7.77,14.5,-4.05,1
134,7.79,14.21,1.66,1
135,7.8,4.79,-9.95,1
136,7.81,9.36,-7.62,1
137,7.83,0.18,-2.43,1
138,7.84,6.74,13.66,1
139,7.85,-6.95,10.52,1
140,7.87,2.23,7.47,1
141,7.88,7.34,16.41,1
142,7.89,-2.84,-1.97,1
143,7.91,-18.08,-3.47,1
144,7.92,-9.88,-14.34,1
145,7.93,25.07,-16.9,1
146,7.95,25.92,-5.63,1
147,7.96,7.11,1.91,1
148,7.97,13.09,-0.12,1
149,7.99,-12.59,5.28,1
150,8.0,-9.17,2.55,1
151,8.01,-20.34,3.88,1
152,8.03,-3.24,0.03,1
153,8.04,30.65,-11.95,1
154,8.05,-11.98,-18.64,1
155,8.07,-6.61,-9.52,1
156,8.08,-0.2,-2.12,1
157,8.09,17.8,10.16,1
158,8.11,7.87,4.52,1
159,8.12,15.23,14.92,1
160,8.13,-4.76,13.02,1
161,8.15,21.99,12.64,0
162,8.16,-18.76,15.72,0
163,8.17,-21.39,13.4,0
164,8.19,-1.66,1.85,0
165,8.2,-5.61,-2.83,0
166,8.21,-59.67,-0.13,0
167,8.23,-127.08,0.51,0
168,8.24,-158.78,-1.75,0
169,8.25,-198.32,27.15,0
170,8.27,-195.2,13.33,0
171,8.28,-192.96,4.52,0
172,8.29,-145.44,-0.43,0
173,8.31,-99.03,-15.11,0
174,8.32,-52.79,-37.29,0
175,8.33,-8.79,-38.89,0
176,8.35,66.81,-31.17,0
177,8.36,176.62,-32.41,0
178,8.37,266.29,-26.95,0
179,8.39,302.91,4.37,0
180,8.4,308.3,19.79,0
181,8.41,298.34,14.9,0
182,8.43,263.29,22.94,0
183,8.44,213.09,17.0,0
184,8.45,205.97,3.82,0
185,8.47,152.47,12.79,0
186,8.48,113.23,11.43,0
187,8.49,84.07,8.6,0
188,8.51,56.85,1.48,0
189,8.52,43.42,-2.85,0
190,8.53,-25.35,-0.03,0
191,8.55,-28.14,11.78,1
192,8.56,-53.34,0.41,1
193,8.57,-60.21,-12.62,1
194,8.59,-64.85,6.65,1
195,8.6,-94.54,1.25,1
196,8.61,-86.68,13.66,1
197,8.63,-95.28,-0.32,1
198,8.64,-98.36,1.77,1
199,8.65,-103.02,5.57,1
200,8.67,-108.07,-6.29,1
201,8.68,-133.5,0.16,1
202,8.69,-124.22,9.55,1
203,8.71,-115.95,-9.21,1
204,8.72,-98.68,-14.19,1
205,8.73,-110.72,0.22,1
206,8.75,-104.71,-10.2,1
207,8.76,-66.48,18.53,1
208,8.77,-85.24,8.56,1
209,8.79,-71.74,-13.19,1
210,8.8,-74.32,-5.73,1
211,8.81,-55.15,11.9,1
212,8.83,-41.76,-9.55,1
213,8.84,-63.57,11.83,1
214,8.85,-41.96,1.07,1
215,8.87,-29.53,-2.38,1
216,8.88,-37.55,-0.6,1
217,8.89,-29.12,-1.01,1
218,8.91,-27.58,-2.55,1
219,8.92,12.92,-12.54,1
220,8.93,-7.45,-4.68,1
221,8.95,13.77,0.83,1
222,8.96,-0.23,-5.95,1
223,8.97,20.41,-7.15,1
224,8.99,40.25,-14.81,1
225,9.0,21.69,4.76,1
226,9.01,40.03,4.04,1
227,9.03,45.31,0.21,1
228,9.04,51.24,-0.73,1
229,9.05,49.63,-1.41,1
230,9.07,47.18,-0.72,1
231,9.08,38.71,-11.71,1
232,9.09,31.45,-12.8,1
233,9.11,25.3,-4.08,1
234,9.12,39.37,-9.86,1
235,9.13,49.5,0.13,1
236,9.15,46.06,-2.78,1
237,9.16,19.63,-0.87,1
238,9.17,49.03,8.27,1
239,9.19,41.29,2.53,1
240,9.2,17.63,0.83,1
241,9.21,23.59,-3.3,1
242,9.23,25.09,-1.57,1
243,9.24,17.21,-2.22,1
244,9.25,21.45,13.08,1
245,9.27,24.54,-6.38,1
246,9.28,47.82,-9.9,1
247,9.29,14.64,13.49,1
248,9.31,7.27,16.85,1
249,9.32,11.02,10.81,1
250,9.33,37.33,1.98,1
251,9.35,28.53,-6.34,1
252,9.36,11.0,12.84,1
253,9.37,-3.32,10.24,1
254,9.39,17.8,3.22,1
255,9.4,13.2,13.64,1
256,9.41,13.88,15.17,1
257,9.43,28.3,1.63,1
258,9.44,11.43,-2.05,1
259,9.45,-17.89,5.3,1
260,9.47,-6.76,14.6,1
261,9.48,7.4,-15.09,1
262,9.49,-14.74,-2.71,1
263,9.51,-22.18,9.92,1
264,9.52,-4.99,7.86,1
265,9.53,10.13,13.0,1
266,9.55,3.64,11.52,1
267,9.56,-14.54,-8.89,1
268,9.57,-19.52,-5.83,1
269,9.59,-5.36,-5.96,1
270,9.6,-11.75,-24.16,1
271,9.61,-18.79,-4.26,1
272,9.63,-23.77,-19.13,1
273,9.64,5.25,-1.68,1
274,9.65,-22.52,-6.14,1
275,9.67,-23.57,-0.7,1
276,9.68,-30.26,-3.36,1
277,9.69,0.2,-3.19,1
278,9.71,-7.03,2.09,1
279,9.72,-6.26,13.71,1
280,9.73,-5.4,-4.92,1
281,9.75,3.66,-13.14,1
282,9.76,-10.25,6.86,1
283,9.77,-30.22,6.19,1
284,9.79,-4.2,-12.95,1
285,9.8,-6.63,-4.91,1
286,9.81,-1.53,-9.75,1
287,9.83,-5.57,12.89,1
288,9.84,-13.23,12.84,1
289,9.85,-21.58,7.3,1
290,9.87,-13.22,-0.26,1
291,9.88,-26.1,-16.61,1
292,9.89,12.18,-6.48,1
293,9.91,-13.73,7.64,1
294,9.92,-13.52,7.79,1
295,9.93,-16.65,6.63,1
296,9.95,13.42,-10.45,1
297,9.96,3.05,-1.59,1
298,9.97,-9.5,-2.57,1
299,9.99,-7.31,3.41,1
300,10.0,31.48,4.39,1
301,10.01,-18.43,9.68,1
302,10.03,-3.14,9.51,1
303,10.04,-10.94,-2.93,1
304,10.05,3.69,-20.49,1
305,10.07,-2.69,-7.08,1
306,10.08,15.29,-15.11,1
307,10.09,11.86,-1.52,1
308,10.11,9.35,-9.6,1
309,10.12,8.28,-4.25,1
310,10.13,-0.31,-1.72,1
311,10.15,18.61,-3.24,0
312,10.16,-4.45,26.62,0
313,10.17,-52.32,31.61,0
314,10.19,-136.72,4.87,0
315,10.2,-179.63,17.53,0
316,10.21,-202.54,34.38,0
317,10.23,-192.6,59.2,0
318,10.24,-162.17,27.12,0
319,10.25,-63.96,-73.0,0
320,10.27,-15.81,-106.49,0
321,10.28,56.41,-65.11,0
322,10.29,114.56,-96.59,0
323,10.31,172.78,-42.76,0
324,10.32,191.9,-40.54,0
325,10.33,198.22,-5.67,0
326,10.35,211.41,14.23,0
327,10.36,193.16,25.36,0
328,10.37,189.15,35.3,0
329,10.39,161.11,45.2,0
330,10.4,144.14,36.59,0
331,10.41,149.8,45.35,0
332,10.43,128.26,37.31,0
333,10.44,85.77,30.68,0
334,10.45,86.39,46.44,0
335,10.47,64.71,46.75,0
336,10.48,56.95,9.82,0
337,10.49,33.36,15.7,0
338,10.51,13.02,-3.11,0
339,10.52,-18.12,9.15,0
340,10.53,-34.83,14.71,0
341,10.55,-54.29,-1.59,1
342,10.56,-42.41,14.8,1
343,10.57,-64.62,12.23,1
344,10.59,-94.78,17.8,1
345,10.6,-124.46,23.47,1
346,10.61,-129.08,-0.92,1
347,10.63,-134.99,2.13,1
348,10.64,-123.5,-3.47,1
349,10.65,-117.39,-13.49,1
350,10.67,-80.9,-26.49,1
351,10.68,-73.85,-33.51,1
352,10.69,-84.71,-23.3,1
353,10.71,-80.43,-15.44,1
354,10.72,-66.5,-16.42,1
355,10.73,-66.54,-12.95,1
356,10.75,-48.07,-19.67,1
357,10.76,-61.83,-30.03,1
358,10.77,-31.78,-12.42,1
359,10.79,-59.39,-13.77,1
360,10.8,-39.82,-22.98,1
361,10.81,-45.91,-9.95,1
362,10.83,-33.0,-14.68,1
363,10.84,-33.83,-2.55,1
364,10.85,-46.9,-14.36,1
365,10.87,-37.67,13.98,1
366,10.88,-21.66,7.09,1
367,10.89,-4.89,-18.81,1
368,10.91,-1.47,-11.12,1
369,10.92,15.77,-15.02,1
370,10.93,27.3,-0.1,1
371,10.95,24.76,3.3,1
372,10.96,23.83,16.23,1
373,10.97,37.72,-2.0,1
374,10.99,20.33,-15.64,1
375,11.0,18.77,-7.42,1
376,11.01,13.7,8.71,1
377,11.03,31.48,-1.49,1
378,11.04,16.16,5.18,1
379,11.05,14.81,4.15,1
380,11.07,20.3,7.99,1
381,11.08,34.4,9.38,1
382,11.09,38.06,2.03,1
383,11.11,45.26,11.7,1
384,11.12,30.92,15.16,1
385,11.13,40.4,2.47,1
386,11.15,24.08,4.6,1
387,11.16,34.6,5.22,1
388,11.17,39.33,14.48,1
389,11.19,41.58,8.04,1
390,11.2,30.66,-2.81,1
391,11.21,23.95,13.73,1
392,11.23,28.04,12.58,1
393,11.24,49.63,13.72,1
394,11.25,24.42,5.41,1
395,11.27,13.21,9.48,1
396,11.28,12.46,9.71,1
397,11.29,32.92,-3.4,1
398,11.31,13.73,-9.26,1
399,11.32,12.88,3.68,1
400,11.33,19.28,3.29,1
401,11.35,6.27,-1.73,1
402,11.36,-4.55,1.25,1
403,11.37,3.85,-2.16,1
404,11.39,7.55,2.32,1
405,11.4,-4.12,-9.37,1
406,11.41,0.91,5.96,1
407,11.43,5.73,7.17,1
408,11.44,14.68,-5.99,1
409,11.45,2.67,-9.1,1
410,11.47,-15.58,-11.25,1
411,11.48,-5.48,10.42,1
412,11.49,-1.84,-7.85,1
413,11.51,-7.51,-4.13,1
414,11.52,-15.69,1.48,1
415,11.53,-16.77,-5.27,1
416,11.55,1.44,-2.62,1
417,11.56,-4.36,-14.78,1
418,11.57,-5.78,5.78,1
419,11.59,-4.55,11.49,1
420,11.6,14.33,-11.03,1
421,11.61,-23.93,6.44,1
422,11.63,-0.25,-3.2,1
423,11.64,-10.47,-2.9,1
424,11.65,-4.68,5.66,1
425,11.67,-13.42,8.93,1
426,11.68,-18.22,20.14,1
427,11.69,-10.83,-26.0,1
428,11.71,8.92,-0.5,1
429,11.72,-15.45,21.51,1
430,11.73,-16.03,10.28,1
431,11.75,2.35,-29.8,1
432,11.76,-19.14,14.82,1
433,11.77,-21.42,-25.59,1
434,11.79,-12.62,-0.81,1
435,11.8,-16.25,-9.99,1
436,11.81,-19.38,7.04,1
437,11.83,-10.28,6.06,1
438,11.84,-10.43,-13.84,1
439,11.85,10.38,3.82,1
440,11.87,-22.9,15.36,1
441,11.88,-21.98,-5.22,1
442,11.89,-12.73,-12.0,1
443,11.91,5.0,-4.56,1
444,11.92,-4.3,-8.42,1
445,11.93,-8.03,-6.94,1
446,11.95,-13.59,-10.61,1
447,11.96,10.18,-12.67,1
448,11.97,7.53,0.85,1
449,11.99,2.92,-12.61,1
450,12.0,2.94,8.1,1
451,12.01,-13.5,9.1,1
452,12.03,-21.85,16.36,1
453,12.04,15.92,2.04,1
454,12.05,2.61,7.07,1
455,12.07,-3.32,5.72,1
456,12.08,-5.86,13.65,1
457,12.09,3.83,-2.81,1
458,12.11,36.35,-3.32,1
459,12.12,5.56,0.85,1
460,12.13,12.8,11.22,1
461,12.15,13.77,-10.81,2
462,12.16,16.73,-5.52,2
463,12.17,34.52,3.49,2
464,12.19,81.34,-6.75,2
465,12.2,109.79,17.74,2
466,12.21,193.9,18.13,2
467,12.23,215.29,4.45,2
468,12.24,210.59,0.2,2
469,12.25,169.45,-28.17,2
470,12.27,120.23,-16.36,2
471,12.28,72.17,-5.05,2
472,12.29,29.01,-12.94,2
473,12.31,-9.54,3.75,2
474,12.32,-60.54,-12.46,2
475,12.33,-212.11,-28.58,2
476,12.35,-296.59,-5.24,2
477,12.36,-316.39,-11.44,2
478,12.37,-325.94,-6.25,2
479,12.39,-291.64,7.0,2
480,12.4,-286.27,11.29,2
481,12.41,-216.71,13.88,2
482,12.43,-202.06,1.3,2
483,12.44,-161.71,13.42,2
484,12.45,-129.97,26.51,2
485,12.47,-78.09,-5.27,2
486,12.48,-44.93,12.47,2
487,12.49,-19.2,5.25,2
488,12.51,11.92,0.18,2
489,12.52,49.31,18.36,2
490,12.53,50.09,17.28,2
491,12.55,60.59,29.19,1
492,12.56,69.74,23.24,1
493,12.57,89.97,7.87,1
494,12.59,81.19,5.7,1
495,12.6,98.7,-4.83,1
496,12.61,106.96,-9.45,1
497,12.63,118.24,-2.6,1
498,12.64,100.38,-1.7,1
499,12.65,115.93,-10.34,1
500,12.67,124.0,10.67,1
501,12.68,116.52,4.77,1
502,12.69,109.8,-3.38,1
503,12.71,114.51,-0.16,1
504,12.72,103.87,-16.26,1
505,12.73,108.48,-23.12,1
506,12.75,90.0,-7.29,1
507,12.76,72.12,2.65,1
508,12.77,91.96,4.67,1
509,12.79,78.13,9.41,1
510,12.8,68.39,-10.39,1
511,12.81,35.64,-12.84,1
512,12.83,60.13,0.8,1
513,12.84,23.27,-13.88,1
514,12.85,39.31,2.15,1
515,12.87,23.61,-9.09,1
516,12.88,9.27,-26.4,1
517,12.89,-14.43,-11.59,1
518,12.91,-8.29,-12.49,1
519,12.92,-3.5,-7.27,1
520,12.93,-7.96,-2.34,1
521,12.95,-23.0,-7.68,1
522,12.96,-22.4,17.13,1
523,12.97,-28.09,15.93,1
524,12.99,-14.67,-1.92,1
525,13.0,-32.01,6.92,1
526,13.01,-36.16,-1.12,1
527,13.03,-35.64,4.62,1
528,13.04,-30.75,8.48,1
529,13.05,-35.04,7.77,1
530,13.07,-35.56,8.28,1
531,13.08,-64.06,5.12,1
532,13.09,-33.9,-18.09,1
533,13.11,-57.31,-12.78,1
534,13.12,-39.34,11.32,1
535,13.13,-36.29,1.57,1
536,13.15,-35.63,-5.49,1
537,13.16,-35.95,1.77,1
538,13.17,-27.5,-8.77,1
539,13.19,-28.55,7.51,1
540,13.2,-51.32,6.66,1
541,13.21,-45.29,8.69,1
542,13.23,-31.96,-4.91,1
543,13.24,-22.68,-1.64,1
544,13.25,-38.59,15.75,1
545,13.27,-43.91,-3.45,1
546,13.28,-44.45,-10.79,1
547,13.29,-33.47,4.73,1
548,13.31,-20.01,-14.5,1
549,13.32,-14.25,12.42,1
550,13.33,-21.69,19.42,1
551,13.35,-6.53,12.49,1
552,13.36,-27.78,-8.7,1
553,13.37,-23.71,-2.23,1
554,13.39,-22.76,-7.19,1
555,13.4,7.26,4.09,1
556,13.41,-8.55,-13.33,1
557,13.43,-12.69,-4.33,1
558,13.44,27.92,-3.0,1
559,13.45,25.21,24.18,1
560,13.47,11.39,-5.68,1
561,13.48,10.03,6.91,1
562,13.49,5.25,-11.31,1
563,13.51,14.31,-4.13,1
564,13.52,1.26,3.19,1
565,13.53,19.75,-14.2,1
566,13.55,28.82,-19.22,1
567,13.56,11.83,5.05,1
568,13.57,21.78,-4.86,1
569,13.59,17.46,-2.36,1
570,13.6,40.02,5.96,1
571,13.61,12.9,11.39,1
572,13.63,7.24,-10.04,1
573,13.64,13.8,-4.44,1
574,13.65,11.19,23.64,1
575,13.67,13.96,6.57,1
576,13.68,18.84,4.89,1
577,13.69,11.62,-2.61,1
578,13.71,24.88,1.4,1
579,13.72,25.15,-2.79,1
580,13.73,4.64,-10.99,1
581,13.75,6.74,2.12,1
582,13.76,2.22,16.16,1
583,13.77,-4.11,-5.75,1
584,13.79,-3.33,-0.54,1
585,13.8,9.55,-6.11,1
586,13.81,3.55,18.63,1
587,13.83,5.53,-4.88,1
588,13.84,4.94,-11.2,1
589,13.85,-0.42,1.55,1
590,13.87,23.99,-5.77,1
591,13.88,3.02,-12.53,1
592,13.89,-12.18,-5.32,1
593,13.91,8.13,0.72,1
594,13.92,-2.25,-5.32,1
595,13.93,-3.16,-11.43,1
596,13.95,5.65,-14.12,1
597,13.96,12.21,-2.21,1
598,13.97,-8.69,11.39,1
599,13.99,-7.84,7.51,1
600,14.0,0.99,-2.78,1
601,14.01,13.29,9.18,1
602,14.03,-12.31,3.21,1
603,14.04,-12.39,-0.16,1
604,14.05,-7.67,1.48,1
605,14.07,21.24,11.33,1
606,14.08,-10.95,21.1,1
607,14.09,0.72,29.35,1
608,14.11,15.63,72.61,1
609,14.12,17.56,55.38,1
610,14.13,-36.58,133.11,1
611,14.15,1.17,261.57,1
612,14.16,17.05,206.2,1
613,14.17,141.36,171.1,1
614,14.19,176.14,-155.92,1
615,14.2,-63.52,-267.23,1
616,14.21,-170.46,-190.09,1
617,14.23,-381.14,-198.24,1
618,14.24,-146.55,-127.58,1
619,14.25,-19.83,-66.45,1
620,14.27,-257.72,-195.61,1
621,14.28,85.46,13.46,1
622,14.29,187.82,-92.7,1
623,14.31,-54.9,-353.71,1
624,14.32,-158.02,219.05,1
625,14.33,-90.09,-27.35,1
626,14.35,204.08,-126.53,1
627,14.36,3.98,84.99,1
628,14.37,105.5,51.38,1
629,14.39,-46.04,-425.15,1
630,14.4,84.47,6.63,1
631,14.41,321.47,79.47,1
632,14.43,454.95,332.17,1
633,14.44,59.97,215.12,1
634,14.45,93.21,534.78,1
635,14.47,188.64,124.97,1
636,14.48,97.43,22.63,1
637,14.49,87.92,288.95,1
638,14.51,97.51,-50.64,1
639,14.52,-44.34,188.97,1
640,14.53,-50.1,34.6,1
641,14.55,-130.5,-302.19,1
642,14.56,-191.81,-420.4,1
643,14.57,-132.5,-174.96,1
644,14.59,105.52,63.22,1
645,14.6,63.86,-166.79,1
646,14.61,-113.35,-64.13,1
647,14.63,-70.37,-48.37,1
648,14.64,-127.89,49.32,1
649,14.65,-50.13,-61.47,1
650,14.67,-131.96,206.27,1
651,14.68,-102.88,145.24,1
652,14.69,7.01,55.61,1
653,14.71,-213.65,63.26,1
654,14.72,-232.34,-113.49,1
655,14.73,105.92,143.77,1
656,14.75,-188.54,-95.73,1
657,14.76,142.64,310.01,1
658,14.77,-112.8,-188.63,1
659,14.79,15.94,-254.0,1
660,14.8,-166.94,25.57,1
661,14.81,-187.65,38.03,1
662,14.83,39.39,8.37,1
663,14.84,-76.08,-129.94,1
664,14.85,29.73,-173.97,1
665,14.87,27.21,-34.67,1
666,14.88,109.02,-87.16,1
667,14.89,197.91,-78.77,1
668,14.91,150.48,-131.87,1
669,14.92,111.28,-141.3,1
670,14.93,-0.19,-125.48,1
671,14.95,-42.28,-135.09,1
672,14.96,-68.1,-100.01,1
673,14.97,-76.59,-81.05,1
674,14.99,-78.92,-43.38,1
675,15.0,-38.21,-3.49,1
676,15.01,-30.77,54.48,1
677,15.03,-0.9,96.78,1
678,15.04,24.04,137.76,1
679,15.05,34.84,207.95,1
680,15.07,20.57,225.86,1
681,15.08,46.41,238.08,1
682,15.09,72.89,245.98,1
683,15.11,73.59,214.41,1
684,15.12,61.26,179.9,1
685,15.13,48.9,170.22,1
686,15.15,58.9,150.16,1
687,15.16,67.4,91.42,1
688,15.17,47.28,80.2,1
689,15.19,33.69,58.18,1
690,15.2,43.28,32.91,1
691,15.21,42.6,-4.71,1
692,15.23,30.09,-6.5,1
693,15.24,35.55,5.06,1
694,15.25,31.86,-11.98,1
695,15.27,33.25,-34.52,1
696,15.28,10.05,-56.6,1
697,15.29,7.43,-35.63,1
698,15.31,11.71,-52.05,1
699,15.32,-4.16,-47.22,1
700,15.33,2.44,-30.58,1
701,15.35,6.0,-55.81,1
702,15.36,16.0,-64.48,1
703,15.37,-9.46,-64.21,1
704,15.39,-8.97,-52.02,1
705,15.4,0.71,-56.33,1
706,15.41,-9.87,-78.76,1
707,15.43,-23.79,-63.99,1
708,15.44,-16.78,-56.6,1
709,15.45,-24.8,-51.45,1
710,15.47,-17.85,-48.74,1
711,15.48,-21.82,-64.01,1
712,15.49,-33.14,-49.94,1
713,15.51,-6.58,-39.45,1
714,15.52,-24.44,-51.84,1
715,15.53,-23.64,-57.76,1
716,15.55,-13.55,-33.74,1
717,15.56,-17.93,-31.02,1
718,15.57,-25.98,-42.9,1
719,15.59,-38.18,-21.87,1
720,15.6,-40.59,-26.79,1
721,15.61,-0.92,-25.92,1
722,15.63,-24.27,-26.62,1
723,15.64,-32.31,-11.31,1
724,15.65,-21.55,-2.01,1
725,15.67,-15.85,-5.63,1
726,15.68,-13.56,-29.28,1
727,15.69,-3.48,1.91,1
728,15.71,-13.05,14.32,1
729,15.72,-7.93,14.58,1
730,15.73,-10.78,5.4,1
731,15.75,-23.47,15.66,1
732,15.76,18.2,8.15,1
733,15.77,8.11,14.01,1
734,15.79,8.21,0.84,1
735,15.8,-14.2,-2.85,1
736,15.81,7.83,3.19,1
737,15.83,3.69,0.46,1
738,15.84,-0.85,15.49,1
739,15.85,-3.85,33.52,1
740,15.87,15.66,39.81,1
741,15.88,-8.05,31.05,1
742,15.89,-6.38,23.3,1
743,15.91,7.71,24.94,1
744,15.92,10.67,15.38,1
745,15.93,-1.68,3.83,1
746,15.95,6.73,4.5,1
747,15.96,-3.75,10.28,1
748,15.97,15.9,11.73,1
749,15.99,-4.43,4.47,1
750,16.0,4.04,31.88,1
751,16.01,2.67,24.34,1
752,16.03,1.86,9.08,1
753,16.04,-0.47,18.21,1
754,16.05,-3.62,22.97,1
755,16.07,11.47,18.59,1
756,16.08,14.97,4.3,1
757,16.09,27.77,26.71,1
758,16.11,19.57,19.77,1
759,16.12,21.68,19.99,1
760,16.13,27.57,16.46,1
761,16.15,-2.87,6.5,1
762,16.16,10.5,5.62,2
763,16.17,24.34,5.39,2
764,16.19,-3.38,-16.78,2
765,16.2,7.87,0.8,2
766,16.21,-2.59,-29.0,2
767,16.23,97.51,-31.2,2
768,16.24,160.14,-11.04,2
769,16.25,205.72,22.46,2
770,16.27,180.31,-27.29,2
771,16.28,143.52,-12.1,2
772,16.29,74.85,-21.17,2
773,16.31,5.69,10.37,2
774,16.32,-32.54,7.08,2
775,16.33,-71.1,3.48,2
776,16.35,-133.88,-5.18,2
777,16.36,-145.14,6.83,2
778,16.37,-167.1,9.13,2
779,16.39,-151.31,-5.68,2
780,16.4,-183.58,21.21,2
781,16.41,-178.46,10.12,2
782,16.425,-162.38,-8.51,2
783,16.44,-135.91,-3.98,2
784,16.45,-129.63,11.6,2
785,16.47,-108.16,9.09,2
786,16.48,-81.81,13.97,2
787,16.49,-55.69,4.27,2
788,16.51,-42.3,1.78,2
789,16.52,-61.08,1.35,2
790,16.53,-41.56,14.45,2
791,16.55,-33.9,-13.68,1
792,16.56,-15.89,-11.8,1
793,16.57,9.07,2.26,1
794,16.59,46.65,13.73,1
795,16.6,42.57,-11.15,1
796,16.61,48.46,0.84,1
797,16.63,68.03,-5.84,1
798,16.64,75.33,-7.49,1
799,16.65,82.86,-2.54,1
800,16.67,71.37,3.68,1
801,16.68,85.11,-10.5,1
802,16.69,97.32,-13.31,1
803,16.71,83.83,-15.75,1
804,16.72,89.99,-4.88,1
805,16.73,79.24,-30.08,1
806,16.75,89.3,-31.45,1
807,16.76,75.76,-16.92,1
808,16.77,72.37,-7.43,1
809,16.79,57.05,-3.13,1
810,16.8,60.86,-13.61,1
811,16.81,34.22,8.46,1
812,16.83,36.13,-0.02,1
813,16.84,32.62,-23.55,1
814,16.85,59.88,-15.32,1
815,16.87,27.92,6.39,1
816,16.88,31.17,16.2,1
817,16.89,32.67,-11.54,1
818,16.91,22.07,2.76,1
819,16.92,11.76,3.61,1
820,16.93,-1.66,-11.08,1
821,16.95,17.3,-4.79,1
822,16.96,-2.57,19.4,1
823,16.97,-6.1,-5.34,1
824,16.99,-1.44,-9.19,1
825,17.0,2.77,8.67,1
826,17.01,-21.66,14.71,1
827,17.03,-16.91,15.59,1
828,17.04,-11.96,5.96,1
829,17.05,-9.15,11.01,1
830,17.06,-32.21,-1.22,1
831,17.08,-35.49,8.59,1
832,17.09,-29.31,2.98,1
833,17.11,-19.11,-2.93,1
834,17.12,-27.54,2.95,1
835,17.13,-31.2,4.26,1
836,17.15,-30.38,6.64,1
837,17.16,-35.31,8.72,1
838,17.17,-35.82,14.15,1
839,17.19,-52.57,4.52,1
840,17.2,-42.02,-9.21,1
841,17.21,-53.82,9.43,1
842,17.23,-34.42,5.08,1
843,17.24,-33.68,4.72,1
844,17.25,-1.81,-5.1,1
845,17.27,-7.89,0.48,1
846,17.28,-18.45,13.91,1
847,17.29,-36.06,4.73,1
848,17.31,-6.24,-5.39,1
849,17.32,-12.78,8.47,1
850,17.33,-20.58,-14.18,1
851,17.35,-16.16,-12.64,1
852,17.36,-16.09,-7.93,1
853,17.37,-23.26,6.98,1
854,17.39,-5.55,4.11,1
855,17.4,-8.46,10.51,1
856,17.41,5.36,-8.35,1
857,17.43,-14.28,-5.7,1
858,17.44,-16.15,10.27,1
859,17.45,7.51,-11.93,1
860,17.47,11.57,2.79,1
861,17.48,-1.08,5.86,1
862,17.49,9.41,-0.39,1
863,17.51,4.33,-17.15,1
864,17.52,2.17,-1.41,1
865,17.53,15.41,9.21,1
866,17.55,6.55,7.94,1
867,17.56,-6.23,-3.03,1
868,17.57,5.52,-5.9,1
869,17.59,2.61,-10.24,1
870,17.6,-5.98,-7.26,1
871,17.61,-14.17,6.37,1
872,17.63,18.17,7.31,1
873,17.64,4.84,17.28,1
874,17.65,12.94,4.49,1
875,17.67,34.88,2.94,1
876,17.68,14.92,-2.3,1
877,17.69,16.32,-3.77,1
878,17.7,6.08,-6.42,1
879,17.72,30.61,2.47,1
880,17.73,12.26,9.48,1
881,17.75,-1.6,5.02,1
882,17.76,0.83,-3.74,1
883,17.77,10.59,3.27,1
884,17.79,5.8,-10.0,1
885,17.8,14.78,-6.72,1
886,17.81,7.39,-11.42,1
887,17.83,28.38,3.71,1
888,17.84,12.6,-4.89,1
889,17.85,-4.24,-8.46,1
890,17.87,-11.14,-5.35,1
891,17.88,8.93,2.9,1
892,17.89,-0.28,5.03,1
893,17.91,-6.09,1.82,1
894,17.92,-7.02,-5.18,1
895,17.93,7.46,-3.02,1
896,17.95,-14.38,-13.99,1
897,17.96,-14.27,-7.81,1
898,17.97,2.11,13.26,1
899,17.99,26.18,10.8,1
900,18.0,18.15,2.67,1
901,18.01,-10.22,2.43,1
902,18.03,7.25,11.39,1
903,18.04,-15.75,4.38,1
904,18.05,9.3,11.68,1
905,18.07,-8.04,-11.13,1
906,18.08,-14.54,-25.25,1
907,18.09,-2.32,3.1,1
908,18.11,-8.64,7.0,1
909,18.12,-1.27,8.65,1
910,18.13,21.34,9.47,1
911,18.15,-21.33,-2.21,1
912,18.16,6.26,-9.61,0
913,18.17,-10.44,1.14,0
914,18.19,7.78,16.53,0
915,18.2,22.99,-0.52,0
916,18.21,-110.8,3.99,0
917,18.23,-166.95,-6.78,0
918,18.24,-161.7,10.99,0
919,18.25,-204.64,9.46,0
920,18.27,-195.29,-22.58,0
921,18.28,-160.44,-30.4,0
922,18.29,-114.19,-22.19,0
923,18.31,-67.05,-21.02,0
924,18.32,-11.25,-20.13,0
925,18.33,59.27,-16.02,0
926,18.34,167.14,-10.33,0
927,18.36,248.42,0.64,0
928,18.37,278.3,0.5,0
929,18.39,319.77,13.04,0
930,18.4,285.3,21.5,0
931,18.41,267.56,14.26,0
932,18.43,209.11,14.17,0
933,18.44,201.23,13.35,0
934,18.45,158.74,32.88,0
935,18.47,116.91,15.92,0
936,18.48,78.58,6.84,0
937,18.49,67.6,7.74,0
938,18.51,13.61,10.09,0
939,18.52,6.79,5.21,0
940,18.53,-19.86,-5.41,0
941,18.55,-34.82,-2.85,1
942,18.56,-53.02,0.25,1
943,18.57,-84.64,6.66,1
944,18.59,-94.95,-11.78,1
945,18.6,-79.76,-7.71,1
946,18.61,-94.54,-6.03,1
947,18.63,-109.78,16.04,1
948,18.64,-122.6,19.05,1
949,18.65,-109.93,9.94,1
950,18.67,-113.64,-8.42,1
951,18.68,-115.84,-4.66,1
952,18.69,-108.94,-6.75,1
953,18.71,-85.28,8.05,1
954,18.72,-93.84,-23.61,1
955,18.73,-94.32,-12.78,1
956,18.75,-75.99,-7.73,1
957,18.76,-70.99,-12.4,1
958,18.77,-69.83,-13.68,1
959,18.79,-82.23,6.73,1
960,18.8,-64.93,4.5,1
961,18.81,-40.8,-4.24,1
962,18.83,-55.33,-0.02,1
963,18.84,-38.37,8.73,1
964,18.85,-19.34,3.31,1
965,18.87,-21.32,-17.09,1
966,18.88,-21.38,-4.22,1
967,18.89,-27.96,-3.91,1
968,18.91,-5.36,-2.25,1
969,18.92,-2.95,2.04,1
970,18.93,1.56,-4.41,1
971,18.95,6.01,-11.57,1
972,18.96,21.11,-14.38,1
973,18.97,-3.61,-10.46,1
974,18.98,7.83,5.53,1
975,19.0,10.26,-3.82,1
976,19.01,38.08,7.05,1
977,19.025,16.02,4.67,1
978,19.04,34.81,-6.51,1
979,19.05,30.4,-6.43,1
980,19.07,57.37,11.31,1
981,19.08,43.87,6.35,1
982,19.09,47.36,0.08,1
983,19.11,29.5,1.44,1
984,19.12,42.65,5.64,1
985,19.13,53.21,7.6,1
986,19.15,27.69,16.26,1
987,19.16,54.34,2.2,1
988,19.17,43.03,1.07,1
989,19.19,35.06,-6.89,1
990,19.2,45.53,-6.13,1
991,19.21,44.59,-0.07,1
992,19.23,45.4,9.2,1
993,19.24,29.07,8.94,1
994,19.25,29.09,27.04,1
995,19.27,35.35,-2.84,1
996,19.28,24.74,-12.41,1
997,19.29,10.82,-0.06,1
998,19.31,17.26,-1.88,1
999,19.32,28.93,2.44,1
1000,19.33,13.67,9.61,1
1001,19.35,19.46,17.42,1
1002,19.36,13.7,2.9,1
1003,19.37,18.52,4.87,1
1004,19.39,-4.94,6.88,1
1005,19.4,3.54,-7.38,1
1006,19.41,2.85,-3.46,1
1007,19.43,8.94,-14.19,1
1008,19.44,-6.85,-13.26,1
1009,19.45,-23.24,-0.52,1
1010,19.47,-1.08,17.02,1
1011,19.48,-10.06,-4.83,1
1012,19.49,-1.43,-0.39,1
1013,19.51,-27.36,-18.08,1
1014,19.52,-0.13,-4.03,1
1015,19.53,-12.91,-14.04,1
1016,19.55,4.17,-4.88,1
1017,19.56,-14.39,-9.23,1
1018,19.57,-18.52,-1.17,1
1019,19.59,-10.04,-5.3,1
1020,19.6,-14.61,-7.92,1
1021,19.61,-11.37,5.24,1
1022,19.62,-1.72,0.75,1
1023,19.64,-17.32,-11.89,1
1024,19.65,-31.09,-1.57,1
1025,19.67,-39.57,16.31,1
1026,19.68,-1.21,25.92,1
1027,19.69,-2.71,-1.14,1
1028,19.71,-30.18,-1.99,1
1029,19.72,-29.51,5.52,1
1030,19.73,-9.75,5.23,1
1031,19.75,-4.21,8.24,1
1032,19.76,-21.13,7.85,1
1033,19.77,-14.79,5.14,1
1034,19.79,15.57,-11.9,1
1035,19.8,-11.55,5.73,1
1036,19.81,-7.46,11.94,1
1037,19.83,-0.23,7.62,1
1038,19.84,-7.8,1.84,1
1039,19.85,-8.11,-18.52,1
1040,19.87,-18.18,-8.13,1
1041,19.88,18.69,-5.83,1
1042,19.89,9.5,2.8,1
1043,19.91,-1.57,-13.37,1
1044,19.92,-6.56,-0.28,1
1045,19.93,-10.13,-7.6,1
1046,19.95,13.14,-16.82,1
1047,19.96,-6.93,1.41,1
1048,19.97,2.99,-10.67,1
1049,19.99,23.84,7.22,1
1050,20.0,13.65,-13.17,1
1051,20.01,1.88,13.46,1
1052,20.03,-3.32,3.07,1
1053,20.04,-16.11,13.58,1
1054,20.05,-4.49,18.05,1
1055,20.07,-16.99,2.39,1
1056,20.08,0.82,6.68,1
1057,20.09,29.49,-8.62,1
1058,20.11,7.48,1.86,1
1059,20.12,8.74,-4.18,1
1060,20.13,7.41,5.19,1
1061,20.15,12.33,4.6,1
1062,20.16,8.22,-1.66,0
1063,20.17,3.19,-0.83,0
1064,20.19,-31.26,11.91,0
1065,20.2,-62.2,-34.6,0
1066,20.21,-162.23,3.78,0
1067,20.23,-215.58,12.56,0
1068,20.24,-177.54,-17.62,0
1069,20.25,-196.61,8.48,0
1070,20.26,-125.4,-12.37,0
1071,20.28,-86.53,-3.38,0
1072,20.29,25.15,-13.07,0
1073,20.3,75.33,-11.05,0
1074,20.32,119.39,-12.84,0
1075,20.33,151.29,6.09,0
1076,20.35,199.86,6.52,0
1077,20.36,191.63,14.15,0
1078,20.37,199.29,8.22,0
1079,20.39,199.09,5.09,0
1080,20.4,194.51,18.06,0
1081,20.41,164.27,4.48,0
1082,20.43,153.49,-7.39,0
1083,20.44,134.87,5.9,0
1084,20.45,101.96,-5.44,0
1085,20.47,82.04,0.28,0
1086,20.48,57.84,-8.86,0
1087,20.49,57.34,-4.9,0
1088,20.51,51.46,4.53,0
1089,20.52,36.82,-1.04,0
1090,20.53,16.77,19.14,0
1091,20.55,-22.17,11.62,1
1092,20.56,-12.58,17.08,1
1093,20.57,-42.45,15.55,1
1094,20.59,-63.81,14.15,1
1095,20.6,-80.21,-7.79,1
1096,20.61,-73.72,1.23,1
1097,20.63,-65.4,-0.42,1
1098,20.64,-81.9,1.33,1
1099,20.65,-85.65,-2.48,1
1100,20.67,-130.28,-5.79,1
1101,20.68,-140.39,1.15,1
1102,20.69,-123.22,-1.38,1
1103,20.71,-92.4,-6.55,1
1104,20.72,-98.32,-1.14,1
1105,20.73,-85.55,-1.83,1
1106,20.75,-81.34,-12.81,1
1107,20.76,-52.04,-7.13,1
1108,20.77,-69.27,-13.91,1
1109,20.79,-50.26,-6.19,1
1110,20.8,-59.43,-2.56,1
1111,20.81,-35.79,-9.91,1
1112,20.83,-55.66,-10.24,1
1113,20.84,-42.11,2.25,1
1114,20.85,-51.09,4.7,1
1115,20.87,-43.68,-6.78,1
1116,20.88,-34.88,-10.07,1
1117,20.89,-26.44,4.37,1
1118,20.9,-14.56,8.71,1
1119,20.92,-1.25,-8.1,1
1120,20.93,-11.77,1.05,1
1121,20.94,-2.78,2.62,1
1122,20.96,17.34,-9.92,1
1123,20.97,40.61,-3.78,1
1124,20.99,12.82,5.6,1
1125,21.0,18.87,6.97,1
1126,21.01,27.0,8.92,1
1127,21.03,35.11,-2.3,1
1128,21.04,21.58,-4.89,1
1129,21.05,23.32,13.89,1
1130,21.07,31.3,20.12,1
1131,21.08,30.88,-1.6,1
1132,21.09,28.95,-17.58,1
1133,21.11,40.62,-9.59,1
1134,21.12,56.61,-2.79,1
1135,21.13,25.41,-9.83,1
1136,21.15,23.45,4.67,1
1137,21.16,45.24,-8.07,1
1138,21.17,49.57,-3.77,1
1139,21.19,47.58,-3.62,1
1140,21.2,14.1,23.33,1
1141,21.21,16.69,13.62,1
1142,21.23,33.31,5.55,1
1143,21.24,37.82,-0.72,1
1144,21.25,35.23,-3.97,1
1145,21.27,13.78,5.84,1
1146,21.28,32.71,3.08,1
1147,21.29,20.61,13.05,1
1148,21.31,11.74,3.41,1
1149,21.32,10.81,0.71,1
1150,21.33,8.69,5.65,1
1151,21.35,7.91,-2.23,1
1152,21.36,2.39,-7.63,1
1153,21.37,18.91,3.94,1
1154,21.39,14.86,-15.07,1
1155,21.4,3.18,-7.68,1
1156,21.41,-7.96,-20.35,1
1157,21.43,13.75,-15.76,1
1158,21.44,15.79,12.39,1
1159,21.45,10.06,2.83,1
1160,21.47,10.92,4.38,1
1161,21.48,7.58,2.56,1
1162,21.49,18.4,-0.01,1
1163,21.51,8.1,-10.57,1
1164,21.52,-3.66,-1.35,1
1165,21.53,-11.45,-1.05,1
1166,21.54,-16.13,1.12,1
1167,21.56,-8.02,2.05,1
1168,21.57,-17.92,-5.57,1
1169,21.58,-0.84,4.81,1
1170,21.6,-23.65,15.71,1
1171,21.61,-18.36,-5.4,1
1172,21.63,-10.83,3.53,1
1173,21.64,3.14,-9.23,1
1174,21.65,-12.22,12.78,1
1175,21.67,-25.33,15.48,1
1176,21.68,-24.39,11.12,1
1177,21.69,-18.21,6.43,1
1178,21.71,3.88,-8.6,1
1179,21.72,-7.87,-5.69,1
1180,21.73,-17.52,1.3,1
1181,21.75,-1.41,0.46,1
1182,21.76,-11.82,-10.79,1
1183,21.77,-13.06,2.17,1
1184,21.79,-7.56,-3.16,1
1185,21.8,-12.14,-12.48,1
1186,21.81,-9.79,-3.05,1
1187,21.83,-21.55,2.23,1
1188,21.84,-1.7,21.68,1
1189,21.85,-12.43,4.3,1
1190,21.87,-1.92,-1.85,1
1191,21.88,-17.2,2.38,1
1192,21.89,-0.46,8.05,1
1193,21.91,-7.07,-9.11,1
1194,21.92,-11.62,0.83,1
1195,21.93,-11.8,-2.68,1
1196,21.95,6.02,-7.86,1
1197,21.96,1.77,-7.49,1
1198,21.97,11.81,5.22,1
1199,21.99,6.13,-1.12,1
1200,22.0,12.59,-8.24,1
1201,22.01,7.18,14.46,1
1202,22.03,-10.1,-1.24,1
1203,22.04,-41.26,-8.75,1
1204,22.05,7.38,-6.4,1
1205,22.07,-4.96,5.94,1
1206,22.08,-15.59,-6.95,1
1207,22.09,4.86,2.99,1
1208,22.11,15.19,-17.06,1
1209,22.12,8.55,13.72,1
1210,22.13,8.01,1.56,1
1211,22.15,-4.06,3.69,1
1212,22.16,30.86,-4.08,2
1213,22.17,-5.7,20.08,2
1214,22.18,-6.41,5.84,2
1215,22.2,135.26,-2.48,2
1216,22.21,136.94,17.27,2
1217,22.22,205.34,20.51,2
1218,22.24,236.58,5.19,2
1219,22.25,216.84,4.6,2
1220,22.26,164.72,6.94,2
1221,22.28,113.75,-1.31,2
1222,22.29,65.04,-24.38,2
1223,22.31,21.79,-24.99,2
1224,22.32,-16.5,-17.76,2
1225,22.33,-61.64,-20.66,2
1226,22.35,-181.04,-32.52,2
1227,22.36,-272.75,-4.03,2
1228,22.37,-304.78,-22.02,2
1229,22.39,-333.28,-3.79,2
1230,22.4,-335.7,6.69,2
1231,22.41,-294.98,9.92,2
1232,22.43,-250.84,4.94,2
1233,22.44,-222.48,20.28,2
1234,22.45,-172.63,-3.37,2
1235,22.47,-131.85,-2.75,2
1236,22.48,-90.83,10.94,2
1237,22.49,-76.01,12.6,2
1238,22.51,-21.85,1.94,2
1239,22.52,15.93,-9.05,2
1240,22.53,2.35,-1.76,2
1241,22.55,32.44,-9.92,1
1242,22.56,73.44,4.26,1
1243,22.57,86.08,-3.38,1
1244,22.59,99.49,6.51,1
1245,22.6,104.35,26.94,1
1246,22.61,117.69,13.56,1
1247,22.63,124.24,11.15,1
1248,22.64,136.32,-8.66,1
1249,22.65,123.31,-10.18,1
1250,22.67,126.49,-13.52,1
1251,22.68,127.57,-4.2,1
1252,22.69,115.71,7.74,1
1253,22.71,126.53,16.81,1
1254,22.72,135.54,-3.0,1
1255,22.73,109.65,7.02,1
1256,22.75,108.83,6.97,1
1257,22.76,95.65,20.13,1
1258,22.77,84.5,17.29,1
1259,22.79,66.75,11.5,1
1260,22.8,63.3,-8.98,1
1261,22.81,54.33,-4.41,1
1262,22.82,60.33,-9.37,1
1263,22.84,34.07,-12.91,1
1264,22.85,41.95,-14.48,1
1265,22.86,25.65,-7.57,1
1266,22.88,21.67,3.67,1
1267,22.89,7.41,2.74,1
1268,22.9,1.82,6.45,1
1269,22.92,2.61,12.32,1
1270,22.93,-21.66,2.01,1
1271,22.95,-20.27,9.17,1
1272,22.96,-23.38,-6.07,1
1273,22.97,-15.26,0.91,1
1274,22.99,-36.78,-5.09,1
1275,23.0,-35.58,-1.28,1
1276,23.01,-37.22,-6.49,1
1277,23.03,-37.44,-2.72,1
1278,23.04,-29.12,-7.75,1
1279,23.05,-41.43,1.85,1
1280,23.07,-41.23,-5.56,1
1281,23.08,-23.66,-11.09,1
1282,23.09,-49.75,-1.53,1
1283,23.11,-39.25,-5.83,1
1284,23.12,-46.15,-10.72,1
1285,23.13,-25.73,2.6,1
1286,23.15,-44.86,11.45,1
1287,23.16,-56.64,-3.67,1
1288,23.17,-53.09,4.55,1
1289,23.19,-35.38,-18.53,1
1290,23.2,-49.94,-13.97,1
1291,23.21,-30.1,-6.32,1
1292,23.23,-22.69,7.54,1
1293,23.24,-15.8,-16.39,1
1294,23.25,-33.58,2.06,1
1295,23.27,-21.29,-6.15,1
1296,23.28,-21.53,-2.05,1
1297,23.29,-38.93,3.08,1
1298,23.31,-25.18,9.68,1
1299,23.32,-25.37,12.81,1
1300,23.33,-7.3,3.61,1
1301,23.35,-16.08,2.48,1
1302,23.36,-27.69,2.24,1
1303,23.37,-13.89,-2.51,1
1304,23.39,-4.17,10.6,1
1305,23.4,-12.45,10.96,1
1306,23.41,-11.86,13.73,1
1307,23.43,-11.29,-0.38,1
1308,23.44,6.58,5.49,1
1309,23.45,0.62,2.68,1
1310,23.46,-3.68,1.09,1
1311,23.48,7.07,-9.2,1
1312,23.49,15.23,-5.03,1
1313,23.5,-3.96,-10.19,1
1314,23.52,0.4,-2.54,1
1315,23.53,4.25,0.74,1
1316,23.54,18.63,5.74,1
1317,23.56,15.28,10.01,1
1318,23.57,9.93,3.86,1
1319,23.59,-1.42,-9.28,1
1320,23.6,28.56,3.43,1
1321,23.61,17.25,4.95,1
1322,23.63,10.52,2.6,1
1323,23.64,24.38,4.71,1
1324,23.65,15.13,-2.19,1
1325,23.67,11.54,10.77,1
1326,23.68,13.73,-6.19,1
1327,23.69,24.11,2.97,1
1328,23.71,15.71,4.76,1
1329,23.72,9.07,-13.83,1
1330,23.73,14.3,-11.23,1
1331,23.75,29.68,0.16,1
1332,23.76,13.48,5.79,1
1333,23.77,13.63,-0.66,1
1334,23.79,8.17,-1.08,1
1335,23.8,31.11,-12.13,1
1336,23.81,13.72,-8.54,1
1337,23.83,12.7,0.47,1
1338,23.84,-2.55,4.91,1
1339,23.85,21.5,7.54,1
1340,23.87,1.37,4.43,1
1341,23.88,5.91,-6.72,1
1342,23.89,-11.01,-6.38,1
1343,23.91,4.28,3.61,1
1344,23.92,4.89,2.54,1
1345,23.93,11.07,3.63,1
1346,23.95,1.83,7.65,1
1347,23.96,6.34,-4.51,1
1348,23.97,-23.42,-2.06,1
1349,23.99,-20.04,-0.39,1
1350,24.0,8.07,3.01,1
1351,24.01,-1.96,-9.1,1
1352,24.03,3.1,2.12,1
1353,24.04,-24.95,-1.87,1
1354,24.05,7.41,-6.09,1
1355,24.07,-20.18,-0.32,1
1356,24.08,8.72,2.32,1
1357,24.09,-1.65,-14.99,1
1358,24.1,-1.2,-15.2,1
1359,24.12,14.33,-4.04,1
1360,24.13,-19.12,5.86,1
1361,24.14,-6.68,14.69,1
1362,24.16,30.85,85.45,1
1363,24.17,-14.65,197.82,1
1364,24.18,-27.25,70.55,1
1365,24.2,-66.88,-12.72,1
1366,24.21,24.51,400.19,1
1367,24.22,271.77,148.63,1
1368,24.24,-350.99,119.79,1
1369,24.25,-237.97,177.27,1
1370,24.27,-84.72,59.92,1
1371,24.28,252.49,-49.06,1
1372,24.29,200.81,-200.2,1
1373,24.31,-132.2,-391.5,1
1374,24.32,-224.01,-56.77,1
1375,24.33,-237.95,-31.94,1
1376,24.35,-165.69,-296.52,1
1377,24.36,192.37,-485.65,1
1378,24.37,178.99,-580.5,1
1379,24.39,67.24,-153.35,1
1380,24.4,205.68,-171.87,1
1381,24.41,219.33,166.28,1
1382,24.43,-3.57,111.75,1
1383,24.44,243.24,39.28,1
1384,24.45,119.97,-66.37,1
1385,24.47,189.92,-42.11,1
1386,24.48,-145.53,-454.34,1
1387,24.49,-50.05,31.24,1
1388,24.51,-27.82,271.84,1
1389,24.52,-190.79,160.56,1
1390,24.53,-6.67,-36.87,1
1391,24.55,41.46,384.67,1
1392,24.56,-332.42,82.17,1
1393,24.57,27.71,69.54,1
1394,24.59,-84.6,49.48,1
1395,24.6,-57.85,72.33,1
1396,24.61,386.86,115.95,1
1397,24.63,-112.25,-110.71,1
1398,24.64,58.12,393.44,1
1399,24.65,38.91,-195.89,1
1400,24.67,-104.73,-178.36,1
1401,24.68,183.0,-343.12,1
1402,24.69,-216.22,258.75,1
1403,24.71,-2.09,250.7,1
1404,24.72,65.69,-3.38,1
1405,24.73,117.52,382.49,1
1406,24.75,129.53,-81.23,1
1407,24.76,-198.82,375.82,1
1408,24.77,5.31,-244.13,1
1409,24.78,-4.76,188.11,1
1410,24.8,-32.54,342.97,1
1411,24.81,-361.87,231.03,1
1412,24.82,260.63,-95.92,1
1413,24.84,-153.07,-56.8,1
1414,24.85,-19.26,241.07,1
1415,24.86,-15.88,-22.92,1
1416,24.88,80.87,-234.99,1
1417,24.89,-27.79,-222.35,1
1418,24.91,-76.56,-152.46,1
1419,24.92,-96.12,-179.43,1
1420,24.93,-1.54,-175.07,1
1421,24.95,46.26,-172.07,1
1422,24.96,23.43,-181.29,1
1423,24.97,15.23,-150.51,1
1424,24.99,-27.45,-165.53,1
1425,25.0,-51.32,-121.86,1
1426,25.01,-77.82,-87.93,1
1427,25.03,-31.97,-79.76,1
1428,25.04,-38.65,-15.22,1
1429,25.05,-36.95,24.45,1
1430,25.07,-28.07,66.95,1
1431,25.08,-23.57,127.63,1
1432,25.09,16.13,160.93,1
1433,25.11,-7.44,184.97,1
1434,25.12,28.15,175.92,1
1435,25.13,47.23,197.06,1
1436,25.15,42.55,181.82,1
1437,25.16,32.94,151.88,1
1438,25.17,56.02,123.87,1
1439,25.19,40.65,84.26,1
1440,25.2,51.44,66.63,1
1441,25.21,42.96,56.06,1
1442,25.23,50.63,28.17,1
1443,25.24,40.75,22.91,1
1444,25.25,31.79,-8.9,1
1445,25.27,28.72,-27.99,1
1446,25.28,9.72,-42.97,1
1447,25.29,9.84,-50.24,1
1448,25.31,23.03,-48.78,1
1449,25.32,3.04,-42.6,1
1450,25.33,27.62,-37.9,1
1451,25.35,41.6,-28.46,1
1452,25.36,25.72,-37.64,1
1453,25.37,-1.13,-34.38,1
1454,25.38,14.34,-43.64,1
1455,25.4,15.67,-38.09,1
1456,25.41,6.25,-31.73,1
1457,25.42,-2.14,-44.4,1
1458,25.44,2.85,-38.8,1
1459,25.45,11.98,-40.75,1
1460,25.46,-10.68,-56.81,1
1461,25.48,-2.91,-57.85,1
1462,25.49,7.36,-58.65,1
1463,25.5,-3.14,-49.1,1
1464,25.52,6.65,-33.12,1
1465,25.53,-14.59,-30.75,1
1466,25.55,3.32,-40.06,1
1467,25.56,-22.94,-43.66,1
1468,25.57,-23.97,-37.22,1
1469,25.59,-7.71,-27.48,1
1470,25.6,-14.16,-37.13,1
1471,25.61,-12.62,-39.95,1
1472,25.63,-16.56,-22.13,1
1473,25.64,-28.49,-21.26,1
1474,25.65,-13.44,-19.23,1
1475,25.67,-4.21,-4.6,1
1476,25.68,-15.97,-5.97,1
1477,25.69,-10.43,-8.8,1
1478,25.71,14.67,-12.02,1
1479,25.72,-14.73,-11.16,1
1480,25.73,-24.42,-16.2,1
1481,25.75,-30.97,5.41,1
1482,25.76,-17.23,11.95,1
1483,25.77,-11.79,17.81,1
1484,25.79,-5.48,20.7,1
1485,25.8,-14.36,18.43,1
1486,25.81,2.58,21.18,1
1487,25.83,-3.88,12.0,1
1488,25.84,-16.89,15.87,1
1489,25.85,5.66,12.46,1
1490,25.87,9.93,6.75,1
1491,25.88,-6.9,13.05,1
1492,25.89,-9.94,38.43,1
1493,25.91,8.34,30.14,1
1494,25.92,-7.32,26.0,1
1495,25.93,-16.88,20.76,1
1496,25.95,-2.57,22.67,1
1497,25.96,13.76,23.74,1
1498,25.97,0.76,17.13,1
1499,25.99,4.05,22.98,1
1500,26.0,-0.14,5.21,1
1501,26.01,11.49,22.55,1
1502,26.02,-9.67,18.77,1
1503,26.04,15.2,24.51,1
1504,26.05,-9.37,13.41,1
1505,26.06,17.43,21.4,1
1506,26.08,-0.34,30.5,1
1507,26.09,-14.11,13.02,1
1508,26.1,12.28,7.54,1
1509,26.12,22.92,8.78,1
1510,26.13,4.9,-0.13,1
1511,26.14,4.64,-5.81,1
1512,26.16,-3.7,-11.33,2
1513,26.17,23.74,-9.86,2
1514,26.19,25.45,14.01,2
1515,26.2,3.14,8.5,2
1516,26.21,17.83,29.23,2
1517,26.23,76.25,18.62,2
1518,26.24,130.23,-12.18,2
1519,26.25,201.52,-6.7,2
1520,26.27,231.23,-1.82,2
1521,26.28,144.35,-32.79,2
1522,26.29,98.12,8.54,2
1523,26.31,19.99,-16.36,2
1524,26.32,-17.32,-20.66,2
1525,26.33,-89.3,-11.07,2
1526,26.35,-136.55,-16.95,2
1527,26.36,-161.15,3.77,2
1528,26.37,-140.83,-22.1,2
1529,26.39,-186.41,-3.96,2
1530,26.4,-178.73,7.24,2
1531,26.41,-162.0,20.7,2
1532,26.43,-153.15,2.89,2
1533,26.44,-132.95,5.5,2
1534,26.45,-135.4,12.38,2
1535,26.47,-116.01,-3.71,2
1536,26.48,-79.27,-3.45,2
1537,26.49,-57.07,-14.6,2
1538,26.51,-48.0,-8.61,2
1539,26.52,-42.09,4.91,2
1540,26.53,-26.58,7.01,2
1541,26.55,-34.99,4.44,1
1542,26.56,-30.87,12.97,1
1543,26.57,-6.37,10.83,1
1544,26.59,41.02,-15.54,1
1545,26.6,37.93,-0.25,1
1546,26.61,50.33,-10.72,1
1547,26.63,71.58,1.71,1
1548,26.64,75.35,-19.78,1
1549,26.65,75.32,-14.79,1
1550,26.67,78.48,6.72,1
1551,26.68,90.55,-9.38,1
1552,26.69,83.5,-11.42,1
1553,26.7,90.05,4.69,1
1554,26.72,78.05,-4.45,1
1555,26.73,86.46,-5.65,1
1556,26.75,74.25,-12.2,1
1557,26.76,66.61,-7.46,1
1558,26.77,61.46,-12.95,1
1559,26.78,85.95,3.91,1
1560,26.8,79.12,-5.82,1
1561,26.81,58.35,-0.54,1
1562,26.83,41.85,-1.7,1
1563,26.84,66.51,-16.04,1
1564,26.85,41.23,-10.78,1
1565,26.87,33.06,5.37,1
1566,26.88,23.59,-8.14,1
1567,26.89,25.73,-6.67,1
1568,26.91,9.34,5.93,1
1569,26.92,8.17,-2.89,1
1570,26.93,-1.17,15.27,1
1571,26.95,22.83,2.66,1
1572,26.96,-13.1,-4.14,1
1573,26.97,-11.48,6.94,1
1574,26.99,8.5,-0.76,1
1575,27.0,-8.04,-10.21,1
1576,27.01,-34.79,-16.54,1
1577,27.03,-42.62,19.92,1
1578,27.04,-15.57,4.41,1
1579,27.05,-8.87,14.93,1
1580,27.07,-30.3,15.56,1
1581,27.08,-3.38,23.27,1
1582,27.09,-30.63,-3.81,1
1583,27.11,-20.24,11.27,1
1584,27.12,-20.5,2.74,1
1585,27.13,-43.91,-3.22,1
1586,27.15,-4.79,28.2,1
1587,27.16,-36.65,26.17,1
1588,27.17,-24.03,19.16,1
1589,27.19,-43.78,6.83,1
1590,27.2,-36.26,12.75,1
1591,27.21,-38.39,-24.96,1
1592,27.23,-39.58,-10.19,1
1593,27.24,-37.34,-9.4,1
1594,27.25,-14.26,-2.74,1
1595,27.27,-30.54,-5.54,1
1596,27.28,-45.58,-3.33,1
1597,27.29,-35.12,-7.57,1
1598,27.3,-19.57,0.6,1
1599,27.32,-18.49,-14.46,1
1600,27.33,-10.15,-9.52,1
1601,27.34,14.33,-17.57,1
1602,27.36,-21.92,-8.71,1
1603,27.37,-25.28,-7.11,1
1604,27.38,-14.11,4.73,1
1605,27.4,6.56,-8.01,1
1606,27.41,2.94,-7.14,1
1607,27.42,-13.29,2.67,1
1608,27.44,-8.79,2.02,1
1609,27.45,20.76,2.56,1
1610,27.46,23.54,0.83,1
1611,27.48,0.78,8.25,1
1612,27.49,-21.63,15.95,1
1613,27.51,-11.9,-6.57,1
1614,27.52,-7.16,4.06,1
1615,27.53,10.98,16.47,1
1616,27.55,26.63,-0.95,1
1617,27.56,4.07,4.74,1
1618,27.57,3.42,-8.1,1
1619,27.59,2.81,0.32,1
1620,27.6,2.37,2.62,1
1621,27.61,28.66,8.47,1
1622,27.63,4.81,-2.1,1
1623,27.64,13.61,-7.19,1
1624,27.65,6.62,-7.53,1
1625,27.67,16.36,-1.42,1
1626,27.68,4.32,1.45,1
1627,27.69,-23.39,7.2,1
1628,27.71,18.73,-2.14,1
1629,27.72,14.95,1.76,1
1630,27.73,10.46,-12.43,1
1631,27.75,0.28,5.95,1
1632,27.76,6.02,-0.49,1
1633,27.77,0.36,-11.12,1
1634,27.79,-8.23,24.02,1
1635,27.8,5.32,17.58,1
1636,27.81,28.14,7.02,1
1637,27.83,5.27,-13.54,1
1638,27.84,-6.6,-17.01,1
1639,27.85,9.25,-5.79,1
1640,27.87,25.03,-3.67,1
1641,27.88,10.75,-16.41,1
1642,27.89,11.51,-4.14,1
1643,27.91,-6.57,2.1,1
1644,27.92,9.34,-3.58,1
1645,27.93,8.55,6.38,1
1646,27.94,-2.03,1.76,1
1647,27.96,-10.25,0.32,1
1648,27.97,11.92,6.53,1
1649,27.98,9.16,9.52,1
1650,28.0,7.03,3.0,1
1651,28.01,1.42,-4.95,1
1652,28.02,16.0,-6.57,1
1653,28.04,-8.74,3.21,1
1654,28.05,-8.34,-7.54,1
1655,28.06,-9.69,-13.31,1
1656,28.08,1.44,-17.64,1
1657,28.09,-5.88,1.63,1
1658,28.1,0.83,6.73,1
1659,28.12,12.19,-12.13,1
1660,28.13,14.1,9.35,1
1661,28.15,0.57,16.84,1
1662,28.16,1.75,1.04,0
1663,28.17,-8.14,6.51,0
1664,28.19,13.63,2.64,0
1665,28.2,-7.42,14.01,0
1666,28.21,12.79,21.71,0
1667,28.23,-95.04,4.85,0
1668,28.24,-168.4,-14.48,0
1669,28.25,-187.21,-6.12,0
1670,28.27,-224.86,-18.35,0
1671,28.28,-199.97,-33.66,0
1672,28.29,-173.31,-31.29,0
1673,28.31,-120.21,-18.82,0
1674,28.32,-75.02,-1.97,0
1675,28.33,-27.5,-5.22,0
1676,28.35,35.56,25.83,0
1677,28.36,118.62,18.23,0
1678,28.37,232.32,14.12,0
1679,28.39,304.04,4.63,0
1680,28.4,309.28,38.83,0
1681,28.41,291.06,33.25,0
1682,28.43,272.23,19.21,0
1683,28.44,255.4,11.55,0
1684,28.45,207.43,19.29,0
1685,28.47,169.28,14.07,0
1686,28.48,139.95,14.44,0
1687,28.49,108.82,7.83,0
1688,28.51,81.92,9.79,0
1689,28.52,30.75,8.36,0
1690,28.53,18.69,-12.2,0
1691,28.55,-26.13,-22.24,1
1692,28.56,-51.82,-8.97,1
1693,28.57,-75.17,-6.7,1
1694,28.58,-74.18,-3.29,1
1695,28.6,-102.84,0.56,1
1696,28.61,-83.5,1.26,1
1697,28.62,-104.33,-9.14,1
1698,28.64,-98.95,-3.71,1
1699,28.65,-106.79,-3.08,1
1700,28.67,-103.76,-10.98,1
1701,28.68,-115.2,-29.57,1
1702,28.69,-86.76,-12.31,1
1703,28.7,-103.92,-9.57,1
1704,28.72,-99.16,-7.39,1
1705,28.73,-109.72,-22.49,1
1706,28.75,-69.51,-6.33,1
1707,28.76,-92.53,9.03,1
1708,28.77,-74.44,0.28,1
1709,28.79,-94.1,-4.01,1
1710,28.8,-63.25,3.67,1
1711,28.81,-68.46,-23.39,1
1712,28.83,-60.95,-10.61,1
1713,28.84,-70.94,-28.85,1
1714,28.85,-44.89,6.53,1
1715,28.87,-36.61,0.95,1
1716,28.88,-31.65,1.97,1
1717,28.89,-21.2,-4.9,1
1718,28.91,-14.81,18.36,1
1719,28.92,-24.29,2.59,1
1720,28.93,-22.04,-1.52,1
1721,28.95,9.84,-9.74,1
1722,28.96,17.97,-0.49,1
1723,28.97,28.23,-14.41,1
1724,28.99,14.52,-19.13,1
1725,29.0,11.24,-4.14,1
1726,29.01,27.33,2.24,1
1727,29.03,23.64,-4.86,1
1728,29.04,35.09,17.22,1
1729,29.05,29.81,-6.43,1
1730,29.07,57.29,12.43,1
1731,29.08,38.44,-4.55,1
1732,29.09,39.74,-4.19,1
1733,29.11,53.14,7.63,1
1734,29.12,27.14,21.98,1
1735,29.13,34.17,26.04,1
1736,29.15,24.98,0.56,1
1737,29.16,36.01,-2.67,1
1738,29.17,31.63,18.03,1
1739,29.19,36.68,8.3,1
1740,29.2,30.48,-7.65,1
1741,29.21,59.33,13.28,1
1742,29.22,39.65,19.06,1
1743,29.24,30.94,-3.94,1
1744,29.25,34.81,5.06,1
1745,29.26,37.12,22.72,1
1746,29.28,26.03,7.89,1
1747,29.29,39.74,1.16,1
1748,29.3,32.86,-1.62,1
1749,29.32,24.68,12.93,1
1750,29.33,11.89,-1.48,1
1751,29.34,4.7,-12.83,1
1752,29.36,37.85,-1.7,1
1753,29.37,19.49,7.96,1
1754,29.38,7.05,-3.83,1
1755,29.4,-5.21,-5.46,1
1756,29.41,13.33,-2.0,1
1757,29.425,5.55,-2.97,1
1758,29.44,4.92,-7.11,1
1759,29.45,-2.14,-15.72,1
1760,29.47,1.97,-6.6,1
1761,29.48,-13.56,-1.02,1
1762,29.49,-2.47,11.03,1
1763,29.51,-20.65,4.73,1
1764,29.52,5.06,9.75,1
1765,29.53,-13.39,8.93,1
1766,29.55,-22.46,-9.09,1
1767,29.56,-11.8,-15.9,1
1768,29.57,2.08,10.06,1
1769,29.59,-27.42,10.3,1
1770,29.6,-7.26,-9.59,1
1771,29.61,-10.09,-12.71,1
1772,29.63,-1.66,9.53,1
1773,29.64,-8.27,17.28,1
1774,29.65,-22.69,13.0,1
1775,29.67,-6.93,-0.33,1
1776,29.68,-23.57,-5.15,1
1777,29.69,-8.88,-12.58,1
1778,29.71,-25.49,-2.8,1
1779,29.72,-6.7,5.48,1
1780,29.73,-9.21,-12.77,1
1781,29.75,-18.77,3.85,1
1782,29.76,-15.99,3.08,1
1783,29.77,-3.01,10.0,1
1784,29.79,-6.37,-0.35,1
1785,29.8,-18.05,-10.03,1
1786,29.81,-32.42,-17.0,1
1787,29.83,-8.14,-2.49,1
1788,29.84,-11.21,-24.78,1
1789,29.85,-2.17,-9.11,1
1790,29.86,-22.75,-6.87,1
1791,29.88,-8.28,-6.2,1
1792,29.89,-2.19,9.92,1
1793,29.9,-14.47,3.22,1
1794,29.92,-11.71,0.73,1
1795,29.93,23.91,17.51,1
1796,29.94,11.83,-8.89,1
1797,29.96,20.42,-13.72,1
1798,29.97,15.53,-1.62,1
1799,29.98,-0.33,7.27,1
1800,30.0,-8.43,-2.46,1
1801,30.01,-0.24,-12.44,1
1802,30.02,12.04,-3.99,1
1803,30.04,-0.76,-8.72,1
1804,30.05,-25.12,-0.46,1
1805,30.06,-0.5,-14.55,1
1806,30.08,-5.3,21.88,1
1807,30.09,5.44,2.33,1
1808,30.11,19.36,14.3,1
1809,30.12,-3.44,5.97,1
1810,30.13,6.91,18.96,1
1811,30.15,9.98,5.17,1
1812,30.16,-8.4,-13.5,0
1813,30.17,2.6,9.33,0
1814,30.19,18.34,27.5,0
1815,30.2,-0.65,-17.23,0
1816,30.21,-61.41,8.18,0
1817,30.23,-168.92,0.34,0
1818,30.24,-201.63,-33.69,0
1819,30.25,-194.46,-15.16,0
1820,30.27,-178.03,7.51,0
1821,30.28,-136.21,-30.03,0
1822,30.29,-53.23,-11.44,0
1823,30.31,20.76,-15.43,0
1824,30.32,74.96,-10.21,0
1825,30.33,113.7,5.9,0
1826,30.35,162.82,7.73,0
1827,30.36,181.5,36.79,0
1828,30.37,200.15,-2.42,0
1829,30.39,228.96,5.88,0
1830,30.4,191.81,5.22,0
1831,30.41,197.62,-4.75,0
1832,30.43,163.31,13.79,0
1833,30.44,163.89,25.09,0
1834,30.45,127.24,17.99,0
1835,30.47,119.22,5.85,0
1836,30.48,80.86,12.45,0
1837,30.49,67.99,7.82,0
1838,30.5,49.47,15.9,0
1839,30.52,18.1,-5.6,0
1840,30.53,11.88,5.38,0
1841,30.54,12.74,-2.03,0
1842,30.56,-13.54,-5.7,1
1843,30.57,-38.52,5.14,1
1844,30.58,-64.94,12.49,1
1845,30.6,-68.03,12.14,1
1846,30.61,-79.08,4.74,1
1847,30.62,-73.95,-6.15,1
1848,30.64,-81.04,16.11,1
1849,30.65,-94.14,13.35,1
1850,30.67,-124.91,13.22,1
1851,30.68,-143.1,-22.36,1
1852,30.69,-129.21,-5.72,1
1853,30.7,-107.48,4.1,1
1854,30.72,-90.11,-17.16,1
1855,30.73,-77.51,-12.87,1
1856,30.75,-71.84,-21.88,1
1857,30.76,-54.43,-21.75,1
1858,30.77,-59.26,-27.61,1
1859,30.79,-52.27,-7.28,1
1860,30.8,-44.8,-14.65,1
1861,30.81,-55.13,-6.54,1
1862,30.83,-53.42,-10.84,1
1863,30.84,-60.0,-6.17,1
1864,30.85,-6.0,-4.25,1
1865,30.87,-37.67,-8.78,1
1866,30.88,-40.68,-5.14,1
1867,30.89,-34.21,7.23,1
1868,30.91,-25.02,-4.57,1
1869,30.92,-4.32,12.56,1
1870,30.93,2.23,2.14,1
1871,30.95,4.99,-5.59,1
1872,30.96,11.49,-0.16,1
1873,30.97,8.31,7.31,1
1874,30.99,19.83,15.48,1
1875,31.0,29.48,-12.97,1
1876,31.01,37.92,-0.69,1
1877,31.03,4.65,4.01,1
1878,31.04,19.5,-3.87,1
1879,31.05,22.79,11.52,1
1880,31.07,38.16,-18.35,1
1881,31.08,16.33,-5.82,1
1882,31.09,11.36,1.12,1
1883,31.11,31.17,-6.42,1
1884,31.12,43.26,-13.33,1
1885,31.13,39.35,-0.55,1
1886,31.14,32.82,15.19,1
1887,31.16,32.89,8.0,1
1888,31.17,27.44,14.46,1
1889,31.18,38.5,19.32,1
1890,31.2,22.12,22.05,1
1891,31.21,34.38,17.0,1
1892,31.22,45.53,5.32,1
1893,31.24,19.3,-8.69,1
1894,31.25,16.66,-0.81,1
1895,31.26,36.09,9.49,1
1896,31.28,18.02,-3.96,1
1897,31.29,16.94,-2.34,1
1898,31.3,12.32,-7.11,1
1899,31.32,28.38,12.03,1
1900,31.33,26.7,-0.27,1
1901,31.34,16.93,-33.63,1
1902,31.36,7.63,-10.59,1
1903,31.37,16.46,0.73,1
1904,31.39,12.06,-1.61,1
1905,31.4,10.34,13.06,1
1906,31.41,15.05,8.5,1
1907,31.43,13.56,14.89,1
1908,31.44,-2.25,2.47,1
1909,31.45,-0.07,-12.94,1
1910,31.47,-14.88,0.4,1
1911,31.48,20.36,0.47,1
1912,31.49,-14.72,-16.27,1
1913,31.51,-9.94,0.92,1
1914,31.52,-0.98,10.69,1
1915,31.53,-8.92,-4.17,1
1916,31.55,-2.86,-6.61,1
1917,31.56,-17.5,7.17,1
1918,31.57,2.25,6.78,1
1919,31.59,5.88,7.25,1
1920,31.6,-8.96,-3.12,1
1921,31.61,-9.55,7.29,1
1922,31.63,-12.7,3.69,1
1923,31.64,-13.56,11.77,1
1924,31.65,-9.0,2.53,1
1925,31.67,-6.22,-1.0,1
1926,31.68,0.66,-2.11,1
1927,31.69,-17.32,-5.4,1
1928,31.71,-30.04,-4.18,1
1929,31.72,0.26,-13.9,1
1930,31.73,7.82,-11.11,1
1931,31.75,-9.66,-3.47,1
1932,31.76,-2.52,-6.37,1
1933,31.77,-20.46,10.26,1
1934,31.78,1.26,5.51,1
1935,31.8,-17.37,19.79,1
1936,31.81,-7.38,-3.8,1
1937,31.82,-8.48,-4.96,1
1938,31.84,-1.01,0.7,1
1939,31.85,8.37,-11.89,1
1940,31.86,-5.19,-2.8,1
1941,31.88,10.34,0.41,1
1942,31.89,-3.96,-9.88,1
1943,31.9,-14.0,5.55,1
1944,31.92,-20.19,12.63,1
1945,31.93,13.68,6.04,1
1946,31.94,-14.9,-14.24,1
1947,31.96,-8.49,-25.43,1
1948,31.97,-22.38,-2.16,1
1949,31.98,1.6,-1.9,1
1950,32.0,-5.4,16.61,1
1951,32.01,-5.78,-5.82,1
1952,32.03,-8.69,6.75,1
1953,32.04,-0.41,3.38,1
1954,32.05,-10.3,6.95,1
1955,32.07,-23.04,-6.67,1
1956,32.08,-24.73,-11.44,1
1957,32.09,27.99,-17.16,1
1958,32.11,-11.77,1.25,1
1959,32.12,11.58,-2.71,1
1960,32.13,2.9,9.81,1
1961,32.15,18.41,14.99,1
1962,32.16,7.12,-9.46,2
1963,32.17,14.01,13.65,2
1964,32.19,-9.34,20.76,2
1965,32.2,33.75,-15.59,2
1966,32.21,20.58,9.81,2
1967,32.23,4.44,7.16,2
1968,32.24,16.97,-6.89,2
1969,32.25,20.1,-13.11,2
1970,32.27,76.26,-16.38,2
1971,32.28,102.71,-10.15,2
1972,32.29,186.14,9.74,2
1973,32.31,207.35,8.09,2
1974,32.32,211.26,29.94,2
1975,32.33,164.13,28.01,2
1976,32.35,117.38,24.66,2
1977,32.36,68.86,14.63,2
1978,32.37,26.39,18.4,2
1979,32.39,-12.02,3.01,2
1980,32.4,-55.94,-19.59,2
1981,32.41,-169.29,-10.38,2
1982,32.43,-281.76,-19.28,2
1983,32.44,-335.68,-28.54,2
1984,32.45,-316.47,-25.84,2
1985,32.47,-312.68,-12.77,2
1986,32.48,-277.84,-23.23,2
1987,32.49,-238.84,-21.15,2
1988,32.51,-205.42,-9.73,2
1989,32.52,-186.29,-12.0,2
1990,32.53,-128.56,1.45,2
1991,32.54,-97.37,13.86,2
1992,32.56,-41.57,-3.75,1
1993,32.57,-26.73,6.37,1
1994,32.59,-4.41,11.51,1
1995,32.6,38.38,5.73,1
1996,32.61,51.63,-3.93,1
1997,32.63,58.08,0.18,1
1998,32.64,75.65,-2.13,1
1999,32.65,102.14,10.41,1
2000,32.67,87.06,7.1,1
2001,32.68,95.85,-2.62,1
2002,32.69,129.64,4.95,1
2003,32.71,128.09,1.18,1
2004,32.72,111.95,5.81,1
2005,32.73,118.02,6.54,1
2006,32.75,118.27,1.96,1
2007,32.76,122.09,-4.46,1
2008,32.77,108.63,-0.28,1
2009,32.79,109.68,-0.32,1
2010,32.8,105.25,3.53,1
2011,32.81,133.36,-3.45,1
2012,32.83,108.65,-15.44,1
2013,32.84,89.36,13.11,1
2014,32.85,67.82,7.33,1
2015,32.87,62.83,18.6,1
2016,32.88,60.32,16.35,1
2017,32.89,45.9,7.5,1
2018,32.91,51.75,4.43,1
2019,32.92,40.21,-2.44,1
2020,32.93,14.32,1.83,1
2021,32.95,18.51,10.32,1
2022,32.96,37.63,18.43,1
2023,32.97,12.04,-17.06,1
2024,32.99,-7.23,-7.91,1
2025,33.0,-22.08,-3.06,1
2026,33.01,-7.15,4.26,1
2027,33.03,-24.47,-12.36,1
2028,33.04,-12.34,-8.47,1
2029,33.05,-31.47,5.34,1
2030,33.06,-12.57,-4.2,1
2031,33.08,-25.74,12.7,1
2032,33.09,-47.47,-2.51,1
2033,33.11,-49.76,-9.62,1
2034,33.12,-33.62,-6.55,1
2035,33.13,-43.4,-3.23,1
2036,33.15,-49.47,4.82,1
2037,33.16,-32.43,4.98,1
2038,33.17,-17.92,3.06,1
2039,33.19,-43.51,12.87,1
2040,33.2,-58.69,-5.57,1
2041,33.21,-51.88,-13.98,1
2042,33.22,-19.79,-0.05,1
2043,33.24,-48.01,11.28,1
2044,33.25,-55.43,5.06,1
2045,33.27,-42.04,-4.57,1
2046,33.28,-20.44,-8.03,1
2047,33.29,-34.78,-11.01,1
2048,33.31,-37.39,-10.6,1
2049,33.32,-59.06,-1.43,1
2050,33.33,-22.0,-10.47,1
2051,33.35,-23.36,-19.46,1
2052,33.36,-16.01,-2.13,1
2053,33.37,-4.4,-20.71,1
2054,33.39,-36.38,6.36,1
2055,33.4,-44.48,9.44,1
2056,33.41,-22.83,4.93,1
2057,33.43,-26.46,5.93,1
2058,33.44,-14.9,16.38,1
2059,33.45,-15.31,9.0,1
2060,33.47,-14.34,20.75,1
2061,33.48,-0.64,9.49,1
2062,33.49,0.93,1.85,1
2063,33.51,-0.09,4.46,1
2064,33.52,5.46,-0.97,1
2065,33.53,14.32,-1.67,1
2066,33.55,8.96,-10.53,1
2067,33.56,-0.44,5.72,1
2068,33.57,-3.87,10.96,1
2069,33.59,16.64,-2.74,1
2070,33.6,2.2,-2.19,1
2071,33.61,12.42,-16.35,1
2072,33.63,15.85,-4.9,1
2073,33.64,28.21,-15.36,1
2074,33.65,20.8,0.3,1
2075,33.67,16.07,-0.82,1
2076,33.68,1.09,1.35,1
2077,33.69,29.73,-3.2,1
2078,33.71,21.02,-0.97,1
2079,33.72,10.45,-11.66,1
2080,33.73,28.43,0.57,1
2081,33.75,13.11,-12.33,1
2082,33.76,22.49,4.27,1
2083,33.77,9.61,-14.75,1
2084,33.79,11.27,-12.71,1
2085,33.8,7.56,1.1,1
2086,33.81,-1.27,3.77,1
2087,33.83,20.85,11.84,1
2088,33.84,28.19,-4.06,1
2089,33.85,7.19,17.61,1
2090,33.87,6.18,7.92,1
2091,33.88,10.36,3.24,1
2092,33.89,18.88,-5.05,1
2093,33.9,4.8,-2.71,1
2094,33.92,3.5,-2.96,1
2095,33.93,-6.12,-6.03,1
2096,33.95,14.05,12.88,1
2097,33.96,7.89,18.84,1
2098,33.97,-4.03,5.1,1
2099,33.99,1.45,5.2,1
2100,34.0,14.6,-13.12,1
2101,34.01,-4.82,-1.03,1
2102,34.03,-7.75,12.97,1
2103,34.04,-21.55,2.72,1
2104,34.05,-17.41,4.9,1
2105,34.07,-22.28,-1.27,1
2106,34.08,-11.94,-7.28,1
2107,34.09,13.42,0.18,1
2108,34.11,-13.3,-3.98,1
2109,34.12,13.44,-2.25,1
2110,34.13,1.04,6.61,1
2111,34.15,22.29,35.69,1
2112,34.16,10.76,98.28,1
2113,34.17,30.91,215.47,1
2114,34.19,42.95,363.4,1
2115,34.2,47.85,56.37,1
2116,34.21,-23.78,-123.87,1
2117,34.23,248.91,149.53,1
2118,34.24,-99.27,77.25,1
2119,34.25,158.42,-117.18,1
2120,34.27,-0.32,-518.44,1
2121,34.28,-157.76,64.87,1
2122,34.29,-306.33,71.73,1
2123,34.31,-290.91,-161.38,1
2124,34.32,-81.28,-14.0,1
2125,34.33,-7.26,-189.36,1
2126,34.35,-163.71,-469.13,1
2127,34.36,166.59,-71.21,1
2128,34.37,142.22,5.27,1
2129,34.38,-13.35,174.09,1
2130,34.4,43.71,185.75,1
2131,34.41,5.4,-262.76,1
2132,34.43,75.96,-381.56,1
2133,34.44,37.49,79.6,1
2134,34.45,240.19,-220.34,1
2135,34.47,19.64,-134.73,1
2136,34.48,116.84,-139.6,1
2137,34.49,-256.19,521.58,1
2138,34.51,31.98,-78.7,1
2139,34.52,-189.34,-164.72,1
2140,34.53,53.58,209.43,1
2141,34.54,-156.69,274.52,1
2142,34.56,-77.35,65.57,1
2143,34.57,153.18,-55.26,1
2144,34.59,-72.78,-92.67,1
2145,34.6,-2.28,120.13,1
2146,34.61,68.59,-99.32,1
2147,34.63,0.0,583.57,1
2148,34.64,-229.4,-19.45,1
2149,34.65,6.21,-31.81,1
2150,34.67,173.21,71.83,1
2151,34.68,-4.07,92.7,1
2152,34.69,173.98,68.05,1
2153,34.71,270.19,106.9,1
2154,34.72,153.35,197.31,1
2155,34.73,-23.16,-94.14,1
2156,34.75,-145.45,342.7,1
2157,34.76,108.25,-196.62,1
2158,34.77,-223.55,44.71,1
2159,34.79,231.72,44.62,1
2160,34.8,-161.31,-101.12,1
2161,34.81,-36.73,-271.65,1
2162,34.83,153.05,-169.33,1
2163,34.84,-89.82,175.5,1
2164,34.85,-117.3,-128.45,1
2165,34.87,-143.32,109.57,1
2166,34.88,50.52,-19.95,1
2167,34.89,-230.21,83.55,1
2168,34.91,-20.93,-182.93,1
2169,34.92,-42.88,-262.29,1
2170,34.93,10.78,-138.48,1
2171,34.95,-29.78,123.49,1
2172,34.96,1.94,-112.5,1
2173,34.97,26.7,-89.11,1
2174,34.99,137.92,-71.87,1
2175,35.0,181.58,-139.61,1
2176,35.01,200.09,-95.8,1
2177,35.03,178.71,-69.9,1
2178,35.04,128.7,-83.53,1
2179,35.05,59.25,-13.21,1
2180,35.06,18.41,48.51,1
2181,35.08,-4.37,65.31,1
2182,35.09,-32.58,131.26,1
2183,35.11,-40.02,163.1,1
2184,35.12,-55.31,177.55,1
2185,35.13,-40.14,163.38,1
2186,35.15,-51.29,158.87,1
2187,35.16,-57.27,148.13,1
2188,35.17,-64.87,119.88,1
2189,35.19,-31.25,108.35,1
2190,35.2,-52.11,89.49,1
2191,35.21,-40.08,88.0,1
2192,35.22,-13.85,23.8,1
2193,35.24,-21.62,-3.81,1
2194,35.25,-0.38,-19.35,1
2195,35.27,-32.02,-19.78,1
2196,35.28,-7.67,-3.54,1
2197,35.29,-24.68,-12.82,1
2198,35.31,-45.53,-1.0,1
2199,35.32,-40.64,-14.4,1
2200,35.33,-24.87,-19.05,1
2201,35.35,-46.69,-25.81,1
2202,35.36,-24.71,-32.68,1
2203,35.37,-42.72,-47.61,1
2204,35.39,-23.46,-48.34,1
2205,35.4,-38.2,-65.06,1
2206,35.41,-36.98,-63.72,1
2207,35.43,-25.12,-52.68,1
2208,35.44,-9.97,-52.05,1
2209,35.45,-11.97,-46.59,1
2210,35.47,-12.53,-39.19,1
2211,35.48,9.2,-61.87,1
2212,35.49,8.71,-52.81,1
2213,35.51,-9.95,-33.62,1
2214,35.52,-2.78,-36.21,1
2215,35.53,0.82,-57.97,1
2216,35.55,-3.53,-46.13,1
2217,35.56,8.54,-45.32,1
2218,35.57,-5.73,-38.1,1
2219,35.59,17.02,-41.09,1
2220,35.6,31.08,-38.4,1
2221,35.61,22.98,-37.19,1
2222,35.63,12.38,-15.04,1
2223,35.64,20.44,-24.86,1
2224,35.65,49.08,-7.26,1
2225,35.67,-3.97,-9.26,1
2226,35.68,8.72,-11.58,1
2227,35.69,11.17,-13.85,1
2228,35.71,18.87,-4.1,1
2229,35.72,11.6,3.56,1
2230,35.73,21.84,0.87,1
2231,35.75,36.48,-2.21,1
2232,35.76,15.0,16.18,1
2233,35.77,6.86,20.54,1
2234,35.79,16.61,18.87,1
2235,35.8,31.65,21.05,1
2236,35.81,28.48,12.61,1
2237,35.83,2.31,20.15,1
2238,35.84,11.38,24.11,1
2239,35.85,35.31,21.5,1
2240,35.87,22.39,22.97,1
2241,35.88,5.28,30.2,1
2242,35.89,-12.6,38.27,1
2243,35.9,21.24,47.94,1
2244,35.92,17.77,31.05,1
2245,35.93,13.44,4.4,1
2246,35.95,8.04,5.25,1
2247,35.96,-1.23,26.77,1
2248,35.97,4.56,-0.53,1
2249,35.99,-6.89,20.48,1
2250,36.0,10.1,9.55,1
2251,36.01,10.28,18.42,1
2252,36.03,8.16,29.04,1
2253,36.04,-10.07,17.68,1
2254,36.05,-13.82,13.69,1
2255,36.07,-17.66,20.87,1
2256,36.08,-1.25,-1.54,1
2257,36.09,-26.04,17.35,1
2258,36.11,-7.89,24.07,1
2259,36.12,15.09,5.69,1
2260,36.13,-0.63,21.78,1
2261,36.15,3.54,16.47,1
2262,36.16,18.5,4.09,2
2263,36.17,-19.42,8.26,2
2264,36.19,-10.26,-0.32,2
2265,36.2,-6.13,-27.54,2
2266,36.21,-0.16,-26.23,2
2267,36.23,23.81,-14.86,2
2268,36.24,-7.3,15.33,2
2269,36.25,11.79,22.09,2
2270,36.27,35.94,-28.13,2
2271,36.28,107.58,-8.66,2
2272,36.29,192.4,-7.48,2
2273,36.31,166.57,-4.38,2
2274,36.32,169.8,-58.02,2
2275,36.33,95.77,-5.16,2
2276,36.35,34.62,-1.02,2
2277,36.36,-16.75,27.22,2
2278,36.37,-72.57,14.64,2
2279,36.38,-138.46,8.38,2
2280,36.4,-151.08,17.83,2
2281,36.41,-129.88,35.33,2
2282,36.43,-167.67,10.83,2
2283,36.44,-167.42,31.61,2
2284,36.45,-186.33,11.3,2
2285,36.47,-147.67,11.02,2
2286,36.48,-168.7,-28.68,2
2287,36.49,-138.13,-3.66,2
2288,36.51,-125.48,-41.34,2
2289,36.52,-89.08,-22.52,2
2290,36.53,-99.41,-17.21,2
2291,36.54,-64.0,-20.21,2
2292,36.56,-53.95,-16.27,1
2293,36.57,-22.54,-16.28,1
2294,36.59,-20.72,-17.42,1
2295,36.6,-0.85,-25.35,1
2296,36.61,9.53,-6.45,1
2297,36.63,21.71,-4.24,1
2298,36.64,26.99,-9.29,1
2299,36.65,44.77,-3.04,1
2300,36.67,29.21,-16.69,1
2301,36.68,87.3,-22.01,1
2302,36.69,65.35,-16.92,1
2303,36.71,63.48,0.04,1
2304,36.72,95.76,1.78,1
2305,36.73,88.42,15.32,1
2306,36.75,91.07,3.99,1
2307,36.76,88.17,-5.47,1
2308,36.77,98.83,-4.02,1
2309,36.79,95.46,16.4,1
2310,36.8,103.57,12.23,1
2311,36.81,101.87,1.88,1
2312,36.83,107.17,19.94,1
2313,36.84,73.21,-0.35,1
2314,36.85,59.75,-5.46,1
2315,36.87,46.7,-4.5,1
2316,36.88,39.47,-0.15,1
2317,36.89,40.34,-26.18,1
2318,36.9,21.86,0.09,1
2319,36.92,29.13,-8.96,1
2320,36.93,43.03,-11.53,1
2321,36.95,33.04,2.74,1
2322,36.96,20.63,-11.56,1
2323,36.97,12.05,-0.11,1
2324,36.99,-1.26,-10.17,1
2325,37.0,1.75,22.97,1
2326,37.01,-10.05,5.91,1
2327,37.03,-31.84,1.74,1
2328,37.04,-8.41,2.38,1
2329,37.05,-18.75,7.81,1
2330,37.06,-27.84,-12.53,1
2331,37.08,-26.06,23.5,1
2332,37.09,-26.12,12.74,1
2333,37.11,-24.76,12.51,1
2334,37.12,-25.43,6.65,1
2335,37.13,-22.81,18.89,1
2336,37.15,-13.66,6.98,1
2337,37.16,-16.84,11.68,1
2338,37.17,-41.2,-1.46,1
2339,37.19,-24.31,7.35,1
2340,37.2,-0.08,20.55,1
2341,37.21,-21.53,9.6,1
2342,37.225,-48.61,-3.15,1
2343,37.24,-29.52,2.42,1
2344,37.25,-46.31,-6.53,1
2345,37.27,-53.37,-1.09,1
2346,37.28,-42.45,5.48,1
2347,37.29,-27.46,-7.51,1
2348,37.31,-23.31,-3.27,1
2349,37.32,-36.4,-7.84,1
2350,37.33,-20.65,7.91,1
2351,37.35,-17.51,6.63,1
2352,37.36,-21.35,2.19,1
2353,37.37,-30.88,-2.57,1
2354,37.39,-32.02,-26.45,1
2355,37.4,-9.7,8.05,1
2356,37.41,5.59,1.62,1
2357,37.43,-15.59,1.31,1
2358,37.44,9.72,1.63,1
2359,37.45,5.13,9.51,1
2360,37.47,-10.69,9.51,1
2361,37.48,-10.2,1.78,1
2362,37.49,-1.96,0.56,1
2363,37.51,-10.11,-4.29,1
2364,37.52,-19.62,2.05,1
2365,37.53,-1.82,-0.86,1
2366,37.54,9.24,9.06,1
2367,37.56,12.7,1.46,1
2368,37.57,11.0,-5.87,1
2369,37.59,-10.96,-7.8,1
2370,37.6,8.68,9.66,1
2371,37.61,-7.65,5.88,1
2372,37.63,14.2,5.84,1
2373,37.64,7.86,-9.43,1
2374,37.65,27.84,-12.29,1
2375,37.67,15.14,-10.9,1
2376,37.68,16.33,-6.96,1
2377,37.69,-6.74,-4.29,1
2378,37.71,20.38,-5.0,1
2379,37.72,-1.26,4.4,1
2380,37.73,13.89,-7.36,1
2381,37.75,-9.69,-6.18,1
2382,37.76,24.12,-3.74,1
2383,37.77,19.91,-11.57,1
2384,37.79,-3.45,-1.81,1
2385,37.8,1.66,-10.3,1
2386,37.81,12.69,-19.35,1
2387,37.83,25.2,-1.57,1
2388,37.84,13.41,-13.43,1
2389,37.85,29.26,6.87,1
2390,37.87,12.24,-5.44,1
2391,37.88,4.46,7.46,1
2392,37.89,-15.27,8.68,1
2393,37.91,19.2,1.48,1
2394,37.92,6.62,-10.32,1
2395,37.93,13.88,2.42,1
2396,37.95,-0.18,-4.91,1
2397,37.96,33.64,-2.07,1
2398,37.97,-8.8,5.52,1
2399,37.99,-11.43,7.58,1
2400,38.0,-21.67,24.72,1
2401,38.01,4.88,-1.53,1
2402,38.03,10.96,-0.95,1
2403,38.04,-8.95,11.86,1
2404,38.05,-2.08,13.16,1
2405,38.07,-3.03,9.16,1
2406,38.08,-11.78,-3.39,1
2407,38.09,0.01,-11.68,1
2408,38.11,4.52,10.93,1
2409,38.12,-1.87,-3.54,1
2410,38.13,-24.65,4.16,1
2411,38.15,7.85,6.17,1
2412,38.16,2.16,-24.98,0
2413,38.17,3.34,-13.68,0
2414,38.19,30.03,0.6,0
2415,38.2,-19.49,6.75,0
2416,38.21,-7.95,-11.38,0
2417,38.22,-2.07,-8.85,0
2418,38.24,-62.05,7.03,0
2419,38.25,-100.81,14.64,0
2420,38.27,-126.8,-11.56,0
2421,38.28,-172.0,3.74,0
2422,38.29,-184.84,-21.29,0
2423,38.31,-176.93,-14.54,0
2424,38.32,-137.03,-36.43,0
2425,38.33,-114.35,-14.84,0
2426,38.35,-58.43,-21.15,0
2427,38.36,-8.24,-10.69,0
2428,38.37,66.76,-16.7,0
2429,38.38,147.91,7.36,0
2430,38.4,223.9,17.86,0
2431,38.41,289.72,39.23,0
2432,38.43,318.15,36.6,0
2433,38.44,287.66,34.52,0
2434,38.45,269.8,28.09,0
2435,38.47,229.51,25.28,0
2436,38.48,199.76,24.81,0
2437,38.49,141.51,12.73,0
2438,38.51,110.54,21.52,0
2439,38.52,71.56,27.74,0
2440,38.53,12.87,19.49,0
2441,38.55,-19.83,14.68,0
2442,38.56,-34.33,-12.22,1
2443,38.57,-38.29,-20.59,1
2444,38.59,-23.33,-4.44,1
2445,38.6,-53.52,7.83,1
2446,38.61,-50.67,2.49,1
2447,38.63,-48.74,2.27,1
2448,38.64,-57.26,2.54,1
2449,38.65,-78.72,-10.06,1
2450,38.67,-103.24,-6.23,1
2451,38.68,-108.04,-7.64,1
2452,38.69,-107.1,-30.47,1
2453,38.71,-101.17,-21.41,1
2454,38.72,-106.93,-23.69,1
2455,38.73,-94.12,-11.02,1
2456,38.75,-100.68,4.99,1
2457,38.76,-87.85,-19.86,1
2458,38.77,-78.13,-4.94,1
2459,38.79,-78.79,-4.63,1
2460,38.8,-65.79,-2.55,1
2461,38.81,-88.96,-17.68,1
2462,38.83,-82.14,-0.45,1
2463,38.84,-56.8,-4.83,1
2464,38.85,-43.86,2.16,1
2465,38.87,-46.89,-5.9,1
2466,38.88,-51.76,-4.77,1
2467,38.89,-34.02,-12.15,1
2468,38.9,-36.99,-3.76,1
2469,38.92,-24.25,4.9,1
2470,38.93,-31.5,1.52,1
2471,38.95,-4.09,5.35,1
2472,38.96,-17.48,-4.31,1
2473,38.97,-7.68,-8.82,1
2474,38.99,30.43,-5.64,1
2475,39.0,3.68,-12.3,1
2476,39.01,-1.76,4.63,1
2477,39.03,18.07,7.79,1
2478,39.04,37.67,9.4,1
2479,39.05,40.27,-2.11,1
2480,39.06,38.61,-16.28,1
2481,39.08,43.13,3.36,1
2482,39.09,28.94,-7.58,1
2483,39.11,18.91,-17.12,1
2484,39.12,26.41,6.59,1
2485,39.13,34.33,-1.69,1
2486,39.15,28.02,9.68,1
2487,39.16,26.14,2.67,1
2488,39.17,31.59,7.96,1
2489,39.19,33.54,11.35,1
2490,39.2,70.25,12.83,1
2491,39.21,41.22,-3.73,1
2492,39.23,19.35,1.08,1
2493,39.24,36.33,19.41,1
2494,39.25,53.93,-9.68,1
2495,39.27,34.59,9.41,1
2496,39.28,17.26,-4.22,1
2497,39.29,34.3,0.1,1
2498,39.31,52.4,-3.0,1
2499,39.32,44.52,8.51,1
2500,39.33,38.94,14.43,1
2501,39.35,34.04,13.15,1
2502,39.36,11.29,-11.35,1
2503,39.37,0.46,1.38,1
2504,39.39,-1.51,-1.06,1
2505,39.4,16.78,9.83,1
2506,39.41,14.01,8.13,1
2507,39.43,-1.26,4.3,1
2508,39.44,-0.19,9.23,1
2509,39.45,7.89,9.57,1
2510,39.47,8.89,2.08,1
2511,39.48,2.27,-1.25,1
2512,39.49,5.01,8.22,1
2513,39.51,15.84,4.6,1
2514,39.52,0.35,-8.15,1
2515,39.53,-19.78,16.97,1
2516,39.54,-18.11,-3.91,1
2517,39.56,-16.33,1.54,1
2518,39.57,-23.98,4.33,1
2519,39.59,-9.96,-4.05,1
2520,39.6,-16.92,9.1,1
2521,39.61,-6.79,-8.83,1
2522,39.63,-7.7,-4.69,1
2523,39.64,-23.08,2.94,1
2524,39.65,-15.09,-0.36,1
2525,39.67,-2.23,-4.51,1
2526,39.68,-9.43,12.87,1
2527,39.69,-22.98,-11.33,1
2528,39.71,-13.04,-22.04,1
2529,39.72,2.57,-15.96,1
2530,39.73,-8.59,-2.71,1
2531,39.75,-8.9,21.04,1
2532,39.76,-1.94,8.13,1
2533,39.77,-15.1,-11.11,1
2534,39.79,-22.85,-12.45,1
2535,39.8,2.07,-8.83,1
2536,39.81,-15.3,-6.56,1
2537,39.83,-27.63,-5.4,1
2538,39.84,-28.49,3.43,1
2539,39.85,-12.39,17.23,1
2540,39.87,-0.67,-9.02,1
2541,39.88,-9.39,5.25,1
2542,39.89,-12.59,-12.72,1
2543,39.91,-10.5,-8.49,1
2544,39.92,10.6,-6.47,1
2545,39.93,0.71,2.2,1
2546,39.95,-0.73,-2.75,1
2547,39.96,-0.22,9.56,1
2548,39.97,15.17,-16.64,1
2549,39.99,8.01,8.27,1
2550,40.0,-19.32,-4.45,1
2551,40.01,-3.61,-10.71,1
2552,40.03,-2.09,0.64,1
2553,40.04,-6.04,6.33,1
2554,40.05,-9.72,-2.95,1
2555,40.07,-2.9,-1.03,1
2556,40.08,10.84,-16.21,1
2557,40.09,-15.16,-13.16,1
2558,40.11,11.19,6.02,1
2559,40.12,21.76,-13.2,1
2560,40.13,15.95,-3.19,1
2561,40.15,16.23,23.48,1
2562,40.16,-3.51,2.85,0
2563,40.17,4.28,-11.46,0
2564,40.19,-8.21,-4.74,0
2565,40.2,2.61,12.12,0
2566,40.21,12.3,8.37,0
2567,40.22,7.49,31.18,0
2568,40.24,-132.16,16.66,0
2569,40.25,-182.71,1.34,0
2570,40.27,-229.97,-16.13,0
2571,40.28,-202.5,-25.16,0
2572,40.29,-165.3,4.95,0
2573,40.31,-104.87,-25.13,0
2574,40.32,-31.59,-8.89,0
2575,40.33,40.82,-23.52,0
2576,40.35,79.54,24.32,0
2577,40.36,142.21,2.38,0
2578,40.37,175.05,5.62,0
2579,40.38,212.41,2.42,0
2580,40.4,230.47,6.62,0
2581,40.41,215.29,13.44,0
2582,40.43,203.66,16.23,0
2583,40.44,195.72,16.3,0
2584,40.45,149.57,14.34,0
2585,40.47,162.11,22.84,0
2586,40.48,135.23,-4.65,0
2587,40.49,116.28,1.44,0
2588,40.51,78.3,10.64,0
2589,40.52,56.29,3.47,0
2590,40.53,43.99,9.26,0
2591,40.55,16.8,4.54,0
2592,40.56,-11.4,1.47,1
2593,40.57,-38.33,-14.66,1
2594,40.59,-18.22,-12.11,1
2595,40.6,-45.07,1.88,1
2596,40.61,-51.22,16.65,1
2597,40.63,-60.25,-5.89,1
2598,40.64,-68.96,-0.19,1
2599,40.65,-78.95,3.28,1
2600,40.67,-99.68,3.68,1
2601,40.68,-100.47,6.74,1
2602,40.69,-77.45,-2.36,1
2603,40.71,-103.97,-3.23,1
2604,40.72,-105.46,0.75,1
2605,40.73,-98.98,-7.73,1
2606,40.75,-87.87,-18.88,1
2607,40.76,-82.26,-11.59,1
2608,40.77,-103.99,-11.2,1
2609,40.79,-88.37,-10.0,1
2610,40.8,-55.27,4.35,1
2611,40.81,-76.97,-13.33,1
2612,40.83,-75.22,-10.22,1
2613,40.84,-59.51,-22.07,1
2614,40.85,-56.82,-12.83,1
2615,40.87,-49.16,11.14,1
2616,40.88,-57.68,-17.52,1
2617,40.89,-30.11,-7.86,1
2618,40.9,-42.73,11.3,1
2619,40.92,-30.23,14.59,1
2620,40.93,-17.52,-2.24,1
2621,40.95,12.09,-3.69,1
2622,40.96,15.75,8.69,1
2623,40.97,6.78,-10.77,1
2624,40.99,5.3,-3.51,1
2625,41.0,17.66,7.24,1
2626,41.01,16.38,8.49,1
2627,41.03,4.15,-7.22,1
2628,41.04,15.25,9.27,1
2629,41.05,26.01,3.76,1
2630,41.06,7.33,-10.76,1
2631,41.08,29.23,-6.36,1
2632,41.09,31.02,4.39,1
2633,41.11,40.47,-6.67,1
2634,41.12,21.96,10.94,1
2635,41.13,36.85,13.79,1
2636,41.15,33.2,5.96,1
2637,41.16,58.51,9.9,1
2638,41.17,41.48,-0.55,1
2639,41.19,28.97,13.44,1
2640,41.2,27.94,-6.99,1
2641,41.21,53.61,-4.85,1
2642,41.23,61.8,9.26,1
2643,41.24,39.77,0.82,1
2644,41.25,53.28,-11.52,1
2645,41.27,46.13,0.84,1
2646,41.28,39.1,27.18,1
2647,41.29,24.76,3.69,1
2648,41.31,35.62,1.46,1
2649,41.32,25.04,-9.93,1
2650,41.33,14.18,-14.2,1
2651,41.35,-7.8,-2.31,1
2652,41.36,18.64,4.55,1
2653,41.37,12.81,7.84,1
2654,41.38,0.34,-4.15,1
2655,41.4,-10.51,-24.26,1
2656,41.41,23.26,19.86,1
2657,41.43,11.81,-10.6,1
2658,41.44,-5.94,10.9,1
2659,41.45,1.59,4.16,1
2660,41.47,12.98,5.09,1
2661,41.48,18.27,-2.06,1
2662,41.49,1.94,-17.06,1
2663,41.51,-11.88,13.96,1
2664,41.52,-1.46,3.01,1
2665,41.53,-12.92,1.73,1
2666,41.54,-9.37,-22.3,1
2667,41.56,-25.55,-10.27,1
2668,41.57,2.76,8.56,1
2669,41.59,-19.88,5.64,1
2670,41.6,-4.8,-2.66,1
2671,41.61,-0.43,-4.47,1
2672,41.63,-4.94,-11.19,1
2673,41.64,-12.58,-8.4,1
2674,41.65,-30.3,3.62,1
2675,41.67,-11.05,11.27,1
2676,41.68,-12.77,4.44,1
2677,41.69,-25.55,-0.94,1
2678,41.71,-17.36,-13.13,1
2679,41.72,-18.65,2.09,1
2680,41.73,-22.05,8.66,1
2681,41.75,-19.29,4.72,1
2682,41.76,-6.02,2.97,1
2683,41.77,14.51,-2.7,1
2684,41.79,0.36,7.96,1
2685,41.8,-2.92,-12.61,1
2686,41.81,-15.49,-0.73,1
2687,41.83,1.78,5.36,1
2688,41.84,-2.69,10.59,1
2689,41.85,-6.62,-2.88,1
2690,41.87,-9.05,-2.56,1
2691,41.88,-1.11,18.78,1
2692,41.89,-4.92,8.43,1
2693,41.91,-23.16,-17.51,1
2694,41.92,-8.48,9.52,1
2695,41.93,8.09,-7.58,1
2696,41.95,4.33,-2.59,1
2697,41.96,-1.01,-9.7,1
2698,41.97,24.46,-0.21,1
2699,41.99,-7.37,1.46,1
2700,42.0,-19.77,20.96,1
2701,42.01,-6.12,-2.38,1
2702,42.03,14.84,-7.17,1
2703,42.04,17.39,-4.86,1
2704,42.05,7.76,0.08,1
2705,42.06,-29.77,11.62,1
2706,42.08,-24.54,4.75,1
2707,42.09,3.4,6.08,1
2708,42.11,11.71,-5.06,1
2709,42.12,-0.78,6.6,1
2710,42.13,9.02,7.5,1
2711,42.15,4.93,9.25,1
2712,42.16,6.48,-8.04,2
2713,42.17,2.86,-11.11,2
2714,42.19,25.39,7.89,2
2715,42.2,59.36,1.22,2
2716,42.21,115.57,-4.73,2
2717,42.22,155.41,-4.66,2
2718,42.24,216.48,22.85,2
2719,42.25,211.18,38.83,2
2720,42.27,189.71,11.22,2
2721,42.28,133.25,12.48,2
2722,42.29,87.1,-11.56,2
2723,42.31,40.13,-22.7,2
2724,42.32,0.6,-30.12,2
2725,42.33,-35.29,-24.74,2
2726,42.35,-91.99,-26.07,2
2727,42.36,-234.49,-10.92,2
2728,42.37,-308.61,-13.39,2
2729,42.38,-313.69,0.48,2
2730,42.4,-334.09,2.16,2
2731,42.41,-313.52,-14.65,2
2732,42.43,-278.58,4.24,2
2733,42.44,-229.01,-5.4,2
2734,42.45,-187.89,-17.01,2
2735,42.47,-161.61,-9.35,2
2736,42.48,-111.9,-13.16,2
2737,42.49,-65.77,3.07,2
2738,42.51,-49.28,4.81,2
2739,42.52,-9.37,-19.05,2
2740,42.53,4.0,11.96,2
2741,42.55,46.8,4.75,2
2742,42.56,46.23,5.02,1
2743,42.57,76.76,5.68,1
2744,42.59,87.23,11.01,1
2745,42.6,114.16,-1.46,1
2746,42.61,101.01,4.65,1
2747,42.63,114.65,8.01,1
2748,42.64,114.25,2.68,1
2749,42.65,137.55,9.97,1
2750,42.67,118.89,3.14,1
2751,42.68,112.46,-0.86,1
2752,42.69,120.28,0.26,1
2753,42.71,125.65,-3.49,1
2754,42.72,107.0,-8.15,1
2755,42.73,96.16,6.2,1
2756,42.75,107.16,16.87,1
2757,42.76,95.55,25.11,1
2758,42.77,100.27,-3.06,1
2759,42.79,71.28,5.96,1
2760,42.8,84.89,24.01,1
2761,42.81,65.45,-1.58,1
2762,42.83,45.09,-7.22,1
2763,42.84,59.55,0.75,1
2764,42.85,63.73,10.39,1
2765,42.87,32.39,-0.93,1
2766,42.88,21.14,-7.36,1
2767,42.89,23.58,1.04,1
2768,42.9,39.39,-6.8,1
2769,42.92,15.2,-0.19,1
2770,42.93,0.94,0.28,1
2771,42.95,-2.81,10.73,1
2772,42.96,6.9,-1.63,1
2773,42.97,-5.57,7.18,1
2774,42.99,-16.44,3.01,1
2775,43.0,-32.87,0.18,1
2776,43.01,-18.15,3.33,1
2777,43.03,-41.1,4.27,1
2778,43.04,-61.22,-2.18,1
2779,43.05,-57.1,7.85,1
2780,43.06,-32.33,-8.6,1
2781,43.08,-47.08,-22.84,1
2782,43.09,-63.74,-8.14,1
2783,43.11,-23.59,9.04,1
2784,43.12,-38.86,-6.88,1
2785,43.13,-53.23,9.5,1
2786,43.15,-60.95,-0.37,1
2787,43.16,-31.17,-4.49,1
2788,43.17,-53.29,-8.64,1
2789,43.19,-49.88,-3.64,1
2790,43.2,-38.08,10.75,1
2791,43.21,-39.77,-18.3,1
2792,43.23,-45.83,-20.92,1
2793,43.24,-41.93,-15.5,1
2794,43.25,-39.25,17.85,1
2795,43.27,-18.37,14.81,1
2796,43.28,-31.55,-5.72,1
2797,43.29,-46.29,2.54,1
2798,43.31,-38.47,-9.06,1
2799,43.32,-17.94,-2.71,1
2800,43.33,-13.87,-10.08,1
2801,43.35,-25.5,6.74,1
2802,43.36,-22.22,3.55,1
2803,43.37,-4.13,-7.52,1
2804,43.38,-10.14,-0.6,1
2805,43.4,-11.74,-3.22,1
2806,43.41,-3.87,-4.41,1
2807,43.43,7.73,2.75,1
2808,43.44,-7.49,-0.05,1
2809,43.45,-2.33,-4.13,1
2810,43.47,12.73,10.49,1
2811,43.48,-3.13,3.73,1
2812,43.49,1.46,18.35,1
2813,43.51,7.25,2.93,1
2814,43.52,29.1,8.5,1
2815,43.53,16.37,-8.78,1
2816,43.54,5.35,6.51,1
2817,43.56,-3.52,-3.84,1
2818,43.57,6.9,-7.87,1
2819,43.59,8.91,14.9,1
2820,43.6,12.44,6.07,1
2821,43.61,-4.16,0.37,1
2822,43.63,13.07,-0.8,1
2823,43.64,24.32,-4.13,1
2824,43.65,13.34,5.5,1
2825,43.67,8.76,-12.01,1
2826,43.68,23.14,0.27,1
2827,43.69,16.84,-7.78,1
2828,43.71,20.87,-16.95,1
2829,43.72,17.99,2.33,1
2830,43.73,38.56,6.85,1
2831,43.75,23.66,7.44,1
2832,43.76,31.02,11.16,1
2833,43.77,7.52,-5.55,1
2834,43.79,20.34,-23.27,1
2835,43.8,14.11,-6.07,1
2836,43.81,7.21,-2.18,1
2837,43.83,17.16,-14.46,1
2838,43.84,-2.32,6.8,1
2839,43.85,5.05,29.17,1
2840,43.87,-2.43,-12.82,1
2841,43.88,5.98,-2.97,1
2842,43.89,3.41,-13.5,1
2843,43.91,-4.07,12.46,1
2844,43.92,2.92,-2.27,1
2845,43.93,14.92,3.05,1
2846,43.95,-19.04,-0.33,1
2847,43.96,-20.7,-3.44,1
2848,43.97,-11.01,15.17,1
2849,43.99,7.76,13.94,1
2850,44.0,-4.63,10.95,1
2851,44.01,3.47,9.41,1
2852,44.03,2.3,9.19,1
2853,44.04,20.78,-15.59,1
2854,44.05,-11.26,-5.79,1
2855,44.06,-25.01,-5.53,1
2856,44.08,-13.68,4.16,1
2857,44.09,-0.09,-0.74,1
2858,44.11,-15.92,-2.2,1
2859,44.12,5.67,24.38,1
2860,44.13,5.98,33.63,1
2861,44.15,-1.57,82.46,1
2862,44.16,-2.02,176.77,1
2863,44.17,18.31,406.23,1
2864,44.19,54.39,-6.55,1
2865,44.2,76.69,-190.03,1
2866,44.21,8.76,306.89,1
2867,44.22,220.99,-4.07,1
2868,44.24,1.2,226.54,1
2869,44.25,147.31,63.04,1
2870,44.27,-369.9,-49.01,1
2871,44.28,-297.55,-310.1,1
2872,44.29,-171.07,-239.37,1
2873,44.31,187.32,-330.08,1
2874,44.32,100.99,-617.39,1
2875,44.33,57.68,-377.42,1
2876,44.35,82.28,10.41,1
2877,44.36,72.08,65.87,1
2878,44.37,13.9,-43.81,1
2879,44.38,-157.95,-25.21,1
2880,44.4,-147.11,-566.19,1
2881,44.41,-302.71,-195.93,1
2882,44.43,137.05,-101.9,1
2883,44.44,200.61,-169.68,1
2884,44.45,-8.18,268.49,1
2885,44.47,137.39,-30.45,1
2886,44.48,-16.36,80.43,1
2887,44.49,-119.99,131.01,1
2888,44.51,-78.8,123.09,1
2889,44.52,-51.7,82.38,1
2890,44.53,-123.37,154.96,1
2891,44.55,118.83,274.9,1
2892,44.56,-187.76,222.24,1
2893,44.57,48.25,-39.82,1
2894,44.59,57.16,69.75,1
2895,44.6,-60.29,194.69,1
2896,44.61,195.54,382.34,1
2897,44.63,-96.0,663.47,1
2898,44.64,-8.65,213.96,1
2899,44.65,-11.1,103.3,1
2900,44.67,117.12,-55.55,1
2901,44.68,188.97,-116.23,1
2902,44.69,-88.65,268.62,1
2903,44.71,137.94,87.96,1
2904,44.72,-50.21,29.24,1
2905,44.73,-69.89,-184.1,1
2906,44.75,-320.98,142.3,1
2907,44.76,-62.2,-201.32,1
2908,44.77,-268.74,-157.46,1
2909,44.79,138.08,79.53,1
2910,44.8,133.27,-287.33,1
2911,44.81,118.32,5.2,1
2912,44.83,-36.04,-144.3,1
2913,44.84,-17.99,6.98,1
2914,44.85,160.11,-120.55,1
2915,44.87,93.87,-110.03,1
2916,44.88,137.31,-87.4,1
2917,44.89,131.56,-70.5,1
2918,44.9,169.04,-93.62,1
2919,44.92,150.92,-120.63,1
2920,44.93,108.29,-128.02,1
2921,44.95,57.38,-98.26,1
2922,44.96,-20.18,-108.47,1
2923,44.97,-49.68,-62.33,1
2924,44.99,-73.39,-20.23,1
2925,45.0,-75.28,13.81,1
2926,45.01,-53.45,52.94,1
2927,45.03,-55.46,79.69,1
2928,45.04,-60.36,116.21,1
2929,45.05,-62.57,115.44,1
2930,45.07,-33.55,115.64,1
2931,45.08,-18.76,120.14,1
2932,45.09,-16.24,107.14,1
2933,45.11,-28.75,87.92,1
2934,45.12,-7.66,58.45,1
2935,45.13,-18.32,34.4,1
2936,45.15,2.57,29.67,1
2937,45.16,-16.79,10.06,1
2938,45.17,-8.82,-11.26,1
2939,45.19,-8.57,-16.0,1
2940,45.2,-20.7,-18.38,1
2941,45.21,-31.69,-36.14,1
2942,45.22,-6.98,-37.45,1
2943,45.24,-28.44,-38.94,1
2944,45.25,-12.02,-60.39,1
2945,45.27,-27.17,-65.45,1
2946,45.28,34.3,-50.97,1
2947,45.29,21.68,-42.07,1
2948,45.31,7.51,-43.52,1
2949,45.32,-7.44,-48.33,1
2950,45.33,-29.44,-42.72,1
2951,45.35,-25.01,-37.14,1
2952,45.36,-45.92,-24.37,1
2953,45.37,-17.7,-42.55,1
2954,45.38,-22.17,-37.67,1
2955,45.4,-16.41,-37.13,1
2956,45.41,-8.47,-30.56,1
2957,45.43,1.02,-38.29,1
2958,45.44,-3.79,-38.04,1
2959,45.45,-5.04,-28.0,1
2960,45.47,-4.91,-19.21,1
2961,45.48,16.45,-18.64,1
2962,45.49,0.25,-9.87,1
2963,45.51,-5.28,-4.45,1
2964,45.52,-13.5,-4.72,1
2965,45.53,25.33,-10.0,1
2966,45.54,13.96,0.53,1
2967,45.56,14.94,-8.34,1
2968,45.57,-7.13,16.72,1
2969,45.59,11.56,4.43,1
2970,45.6,3.4,13.19,1
2971,45.61,11.9,23.72,1
2972,45.63,2.64,11.89,1
2973,45.64,34.24,24.74,1
2974,45.65,-2.02,31.77,1
2975,45.67,15.49,24.6,1
2976,45.68,-5.74,26.94,1
2977,45.69,14.34,21.92,1
2978,45.71,5.45,37.7,1
2979,45.72,3.58,28.59,1
2980,45.73,22.54,17.38,1
2981,45.75,9.42,23.21,1
2982,45.76,22.64,33.07,1
2983,45.77,8.95,37.84,1
2984,45.79,3.71,20.54,1
2985,45.8,1.45,19.33,1
2986,45.81,8.81,42.92,1
2987,45.83,2.24,27.09,1
2988,45.84,13.26,8.03,1
2989,45.85,-8.91,16.57,1
2990,45.87,4.7,16.5,1
2991,45.88,-6.0,16.41,1
2992,45.89,12.11,18.33,1
2993,45.9,4.98,-3.33,1
2994,45.92,-12.22,11.38,1
2995,45.93,-15.08,10.39,1
2996,45.95,18.62,-0.29,1
2997,45.96,-2.28,0.46,1
2998,45.97,-7.9,1.11,1
2999,45.99,-2.73,14.59,1
3000,46.0,0.9,7.78,1
3001,46.01,-7.88,-1.93,1
3002,46.03,-9.35,8.43,1
3003,46.04,-6.49,-9.98,1
3004,46.05,-6.59,-13.4,1
3005,46.06,-24.8,-10.16,1
3006,46.08,-11.35,19.33,1
3007,46.09,24.79,2.31,1
3008,46.11,5.62,-6.57,1
3009,46.12,-6.21,2.94,1
3010,46.13,-2.3,-12.67,1
3011,46.15,25.63,-7.26,1
3012,46.16,41.46,-6.38,2
3013,46.17,7.57,-14.84,2
3014,46.19,10.35,-5.96,2
3015,46.2,12.34,-23.26,2
3016,46.21,-14.8,-24.07,2
3017,46.22,-15.19,-13.08,2
3018,46.24,-5.23,-12.92,2
3019,46.25,30.85,-14.62,2
3020,46.27,119.57,-16.34,2
3021,46.28,163.63,-15.27,2
3022,46.29,181.17,-32.14,2
3023,46.31,190.28,-8.86,2
3024,46.32,138.14,-26.0,2
3025,46.33,44.52,4.31,2
3026,46.35,-10.37,12.01,2
3027,46.36,-62.22,7.79,2
3028,46.37,-104.27,-4.23,2
3029,46.39,-135.11,2.92,2
3030,46.4,-170.38,7.82,2
3031,46.41,-180.86,11.06,2
3032,46.43,-164.36,10.05,2
3033,46.44,-156.58,-1.74,2
3034,46.45,-137.58,-3.37,2
3035,46.47,-153.05,3.22,2
3036,46.48,-144.8,12.68,2
3037,46.49,-132.23,12.84,2
3038,46.51,-101.16,3.97,2
3039,46.52,-77.54,-6.67,2
3040,46.53,-82.15,-4.08,2
3041,46.54,-73.5,8.39,2
3042,46.56,-27.44,20.8,1
3043,46.57,-35.03,15.28,1
3044,46.59,-32.11,-1.41,1
3045,46.6,4.75,-2.75,1
3046,46.61,23.43,-1.34,1
3047,46.63,51.99,1.22,1
3048,46.64,54.99,11.36,1
3049,46.65,46.33,6.75,1
3050,46.67,59.42,-7.89,1
3051,46.68,80.19,-7.17,1
3052,46.69,72.14,-12.53,1
3053,46.71,76.9,-10.78,1
3054,46.72,119.97,-15.33,1
3055,46.73,83.81,-14.58,1
3056,46.75,87.42,8.36,1
3057,46.76,72.43,-14.9,1
3058,46.77,99.18,6.06,1
3059,46.79,77.03,8.99,1
3060,46.8,84.57,-8.09,1
3061,46.81,70.43,-18.8,1
3062,46.83,74.14,-15.01,1
3063,46.84,71.67,-11.42,1
3064,46.85,63.81,-0.34,1
3065,46.87,46.91,-14.98,1
3066,46.88,35.94,-0.73,1
3067,46.89,31.07,1.33,1
3068,46.9,43.61,-1.32,1
3069,46.92,27.44,-15.71,1
3070,46.93,37.11,3.81,1
3071,46.95,18.08,32.78,1
3072,46.96,-6.26,13.36,1
3073,46.97,22.63,-4.43,1
3074,46.99,19.39,-26.18,1
3075,47.0,10.22,6.81,1
3076,47.01,-0.8,-1.52,1
3077,47.03,-11.17,5.39,1
3078,47.04,-9.19,18.34,1
3079,47.05,-34.49,14.69,1
3080,47.07,-37.29,7.38,1
3081,47.08,-20.85,6.22,1
3082,47.09,-11.87,4.29,1
3083,47.11,-35.32,23.53,1
3084,47.12,-29.49,15.56,1
3085,47.13,-18.7,-0.37,1
3086,47.15,-68.79,8.95,1
3087,47.16,-30.32,-4.98,1
3088,47.17,-27.63,5.37,1
3089,47.19,-13.08,-5.52,1
3090,47.2,-38.94,-9.47,1
3091,47.21,-36.19,-10.83,1
3092,47.22,-20.65,-9.06,1
3093,47.24,-28.69,-1.19,1
3094,47.25,-24.11,-0.07,1
3095,47.27,-25.29,-6.24,1
3096,47.28,-31.46,-12.77,1
3097,47.29,-34.19,6.97,1
3098,47.31,-32.41,-11.81,1
3099,47.32,-22.37,1.88,1
3100,47.33,-22.01,1.51,1
3101,47.35,-25.6,-0.44,1
3102,47.36,-40.15,-2.98,1
3103,47.37,-26.55,5.17,1
3104,47.38,-2.68,10.38,1
3105,47.4,-3.15,13.0,1
3106,47.41,-14.72,-5.33,1
3107,47.43,-34.42,11.93,1
3108,47.44,-12.43,6.26,1
3109,47.45,-7.71,-0.35,1
3110,47.47,-15.49,-10.43,1
3111,47.48,-25.69,-19.01,1
3112,47.49,0.79,5.37,1
3113,47.51,-3.93,-14.5,1
3114,47.52,12.87,6.24,1
3115,47.53,2.52,14.6,1
3116,47.54,13.65,-2.15,1
3117,47.56,20.43,1.75,1
3118,47.57,13.81,-9.89,1
3119,47.59,25.99,-6.59,1
3120,47.6,2.24,-11.49,1
3121,47.61,-9.43,2.79,1
3122,47.63,-6.47,10.5,1
3123,47.64,5.07,-8.13,1
3124,47.65,0.53,8.39,1
3125,47.67,16.7,7.87,1
3126,47.68,8.48,18.79,1
3127,47.69,17.33,14.61,1
3128,47.71,11.06,3.65,1
3129,47.72,13.24,9.49,1
3130,47.73,13.95,11.17,1
3131,47.75,31.47,-9.22,1
3132,47.76,5.09,-14.89,1
3133,47.77,2.72,0.03,1
3134,47.79,22.0,-6.46,1
3135,47.8,35.42,-4.14,1
3136,47.81,8.91,-8.33,1
3137,47.83,13.67,-2.49,1
3138,47.84,2.94,10.49,1
3139,47.85,21.75,5.55,1
3140,47.87,12.25,4.29,1
3141,47.88,-5.59,-3.68,1
3142,47.89,-10.18,1.08,1
3143,47.9,11.37,-5.27,1
3144,47.92,15.13,-3.2,1
3145,47.93,5.87,-0.08,1
3146,47.95,11.36,-1.77,1
3147,47.96,7.02,-10.01,1
3148,47.97,-9.43,-5.03,1
3149,47.99,-11.08,15.62,1
3150,48.0,8.71,-1.07,1
3151,48.01,4.07,-18.52,1
3152,48.03,-7.32,-6.78,1
3153,48.04,-8.89,2.22,1
3154,48.05,-15.88,9.68,1
3155,48.06,-31.15,-15.43,1
3156,48.08,1.18,-13.03,1
3157,48.09,-13.84,-3.71,1
3158,48.11,9.53,-16.03,1
3159,48.12,16.99,-4.06,1
3160,48.13,-12.03,7.8,1
3161,48.15,1.57,5.11,1
3162,48.16,-12.1,-4.98,0
3163,48.17,-4.07,2.54,0
3164,48.19,15.03,22.13,0
3165,48.2,20.09,-9.97,0
3166,48.21,35.81,8.13,0
3167,48.22,38.19,0.88,0
3168,48.24,-96.46,2.9,0
3169,48.25,-137.11,13.32,0
3170,48.27,-169.08,3.56,0
3171,48.28,-208.77,-3.27,0
3172,48.29,-206.92,-7.7,0
3173,48.31,-182.02,-20.3,0
3174,48.32,-128.16,-25.97,0
3175,48.33,-83.72,-5.37,0
3176,48.35,-36.47,-2.53,0
3177,48.36,2.99,-10.87,0
3178,48.37,88.07,2.4,0
3179,48.39,212.97,-5.37,0
3180,48.4,284.4,7.56,0
3181,48.41,328.54,15.33,0
3182,48.43,316.06,22.58,0
3183,48.44,283.08,11.98,0
3184,48.45,251.1,34.58,0
3185,48.47,221.12,14.99,0
3186,48.48,174.17,11.82,0
3187,48.49,124.41,12.57,0
3188,48.51,95.63,10.0,0
3189,48.52,68.51,13.33,0
3190,48.53,52.47,4.7,0
3191,48.54,11.12,12.29,0
3192,48.56,-16.04,5.22,1
3193,48.57,-27.96,20.64,1
3194,48.59,-53.43,-5.94,1
3195,48.6,-2.33,-9.76,1
3196,48.61,-57.3,-26.62,1
3197,48.63,-67.31,-12.05,1
3198,48.64,-103.4,-23.28,1
3199,48.65,-132.21,-9.98,1
3200,48.67,-141.4,-13.14,1
3201,48.68,-129.79,-14.96,1
3202,48.69,-145.73,-4.05,1
3203,48.71,-135.23,-6.1,1
3204,48.72,-124.71,-2.98,1
3205,48.73,-124.56,-3.81,1
3206,48.75,-119.41,-14.01,1
3207,48.76,-109.53,5.77,1
3208,48.77,-85.22,-12.81,1
3209,48.79,-93.94,-4.41,1
3210,48.8,-88.49,0.67,1
3211,48.81,-87.47,7.64,1
3212,48.83,-66.16,-1.8,1
3213,48.84,-60.45,-5.78,1
3214,48.85,-57.28,0.79,1
3215,48.87,-58.36,11.77,1
3216,48.88,-21.21,-3.89,1
3217,48.89,-34.76,-3.11,1
3218,48.9,-24.01,8.63,1
3219,48.92,-13.82,7.06,1
3220,48.93,10.57,-12.74,1
3221,48.95,-3.27,-10.38,1
3222,48.96,1.95,-3.69,1
3223,48.97,4.34,-7.64,1
3224,48.99,25.55,14.14,1
3225,49.0,19.43,-1.64,1
3226,49.01,28.77,12.33,1
3227,49.03,36.72,0.17,1
3228,49.04,43.85,13.34,1
3229,49.05,39.38,1.4,1
3230,49.06,39.16,-0.04,1
3231,49.08,44.12,4.21,1
3232,49.09,51.44,2.97,1
3233,49.11,42.54,-11.53,1
3234,49.12,40.13,4.19,1
3235,49.13,58.27,6.42,1
3236,49.15,57.06,-0.65,1
3237,49.16,46.07,2.77,1
3238,49.17,50.49,3.71,1
3239,49.19,64.77,2.38,1
3240,49.2,27.14,-10.28,1
3241,49.21,42.33,-2.74,1
3242,49.22,36.94,-2.3,1
3243,49.24,42.17,8.04,1
3244,49.25,32.78,-2.99,1
3245,49.27,11.59,-7.4,1
3246,49.28,24.66,4.52,1
3247,49.29,41.71,-8.73,1
3248,49.31,23.28,1.1,1
3249,49.32,24.36,9.45,1
3250,49.33,15.85,7.67,1
3251,49.35,30.84,7.5,1
3252,49.36,20.52,6.3,1
3253,49.37,-1.01,10.63,1
3254,49.38,-3.75,19.88,1
3255,49.4,18.55,-4.65,1
3256,49.41,22.3,-11.23,1
3257,49.43,-1.47,-5.54,1
3258,49.44,-18.57,-7.03,1
3259,49.45,3.27,-2.66,1
3260,49.47,-1.53,-3.21,1
3261,49.48,-1.46,-10.02,1
3262,49.49,-1.96,-3.29,1
3263,49.51,-17.91,1.89,1
3264,49.52,-20.66,0.78,1
3265,49.53,-23.46,-0.75,1
3266,49.54,18.83,-10.39,1
3267,49.56,-15.4,0.87,1
3268,49.57,-4.49,-9.24,1
3269,49.59,-20.78,3.77,1
3270,49.6,-6.64,3.63,1
3271,49.61,-12.65,-6.16,1
3272,49.63,-20.31,3.21,1
3273,49.64,-38.35,9.91,1
3274,49.65,10.06,7.03,1
3275,49.67,-10.9,-3.25,1
3276,49.68,-7.9,7.59,1
3277,49.69,-13.2,-13.1,1
3278,49.71,-5.69,-1.78,1
3279,49.72,-27.94,11.66,1
3280,49.73,-13.12,0.61,1
3281,49.75,-6.81,-1.33,1
3282,49.76,2.54,21.76,1
3283,49.77,-16.57,14.73,1
3284,49.79,-38.06,-10.3,1
3285,49.8,-24.65,-17.25,1
3286,49.81,-6.18,-15.49,1
3287,49.83,-7.48,6.43,1
3288,49.84,-6.65,27.1,1
3289,49.85,-3.3,-1.77,1
3290,49.87,-19.74,1.13,1
3291,49.88,0.65,-10.06,1
3292,49.89,-5.8,10.91,1
3293,49.9,10.07,6.73,1
3294,49.92,-1.98,5.46,1
3295,49.93,-8.66,-0.34,1
3296,49.95,-5.25,-4.71,1
3297,49.96,10.89,-10.76,1
3298,49.97,19.17,-19.17,1
3299,49.99,-18.98,-1.18,1
3300,50.0,-11.72,-6.39,1
3301,50.01,14.73,-3.89,1
3302,50.03,16.9,-5.25,1
3303,50.04,-2.62,-10.11,1
3304,50.05,-13.66,-5.15,1
3305,50.06,-14.37,-6.79,1
3306,50.08,0.22,0.51,1
3307,50.09,-15.31,-4.51,1
3308,50.11,-0.19,5.06,1
3309,50.12,8.33,11.38,1
3310,50.13,-10.94,-5.51,1
3311,50.15,18.28,-23.97,1
3312,50.16,-8.77,-5.02,0
3313,50.17,23.7,6.29,0
3314,50.19,12.28,7.55,0
3315,50.2,2.13,-0.8,0
3316,50.21,-12.51,23.78,0
3317,50.22,-99.54,-5.75,0
3318,50.24,-206.78,-58.9,0
3319,50.25,-230.33,-52.31,0
3320,50.27,-194.37,-47.38,0
3321,50.28,-141.8,-4.06,0
3322,50.29,-93.05,25.59,0
3323,50.31,-17.9,18.24,0
3324,50.32,53.55,23.28,0
3325,50.33,98.69,26.9,0
3326,50.35,145.49,35.79,0
3327,50.36,169.38,36.32,0
3328,50.37,213.2,24.14,0
3329,50.38,213.27,36.97,0
3330,50.4,196.53,16.3,0
3331,50.41,190.96,34.06,0
3332,50.43,227.89,27.05,0
3333,50.44,184.94,15.47,0
3334,50.45,140.72,-6.97,0
3335,50.47,99.66,17.75,0
3336,50.48,91.85,16.6,0
3337,50.49,87.06,5.92,0
3338,50.51,74.62,-8.03,0
3339,50.52,53.17,-9.24,0
3340,50.53,20.54,-3.89,0
3341,50.54,7.36,-9.46,0
3342,50.56,-15.88,-16.13,1
3343,50.57,-44.53,5.77,1
3344,50.59,-33.54,-1.62,1
3345,50.6,-66.18,-10.78,1
3346,50.61,-78.51,-17.64,1
3347,50.63,-68.8,-14.84,1
3348,50.64,-91.27,-13.6,1
3349,50.65,-84.63,6.11,1
3350,50.67,-107.51,-8.05,1
3351,50.68,-100.54,-22.08,1
3352,50.69,-97.69,-25.4,1
3353,50.71,-121.35,-26.85,1
3354,50.72,-127.17,-25.4,1
3355,50.73,-124.3,-15.01,1
3356,50.75,-105.86,-15.53,1
3357,50.76,-80.86,-14.7,1
3358,50.77,-61.74,-16.34,1
3359,50.79,-62.83,-5.26,1
3360,50.8,-80.47,-4.0,1
3361,50.81,-56.51,-5.72,1
3362,50.83,-25.52,14.99,1
3363,50.84,-24.8,5.09,1
3364,50.85,-32.3,-5.32,1
3365,50.87,-60.73,-9.92,1
3366,50.88,-46.21,4.14,1
3367,50.89,-36.36,16.27,1
3368,50.91,0.62,2.57,1
3369,50.92,-11.26,4.47,1
3370,50.93,-12.37,-0.12,1
3371,50.95,-10.35,4.73,1
3372,50.96,-20.86,17.96,1
3373,50.97,-9.6,23.99,1
3374,50.99,14.76,1.27,1
3375,51.0,2.4,7.54,1
3376,51.01,8.21,17.84,1
3377,51.03,21.12,9.18,1
3378,51.04,44.29,7.19,1
3379,51.05,22.8,-4.58,1
3380,51.06,27.91,-1.36,1
3381,51.08,33.86,-9.27,1
3382,51.09,41.89,0.63,1
3383,51.11,35.35,-1.91,1
3384,51.12,21.24,-20.92,1
3385,51.13,36.17,-2.36,1
3386,51.15,55.68,4.36,1
3387,51.16,44.55,-5.49,1
3388,51.17,49.84,6.51,1
3389,51.19,57.62,7.71,1
3390,51.2,79.02,2.82,1
3391,51.21,50.53,-5.2,1
3392,51.22,33.85,8.79,1
3393,51.24,24.45,18.88,1
3394,51.25,44.44,10.12,1
3395,51.27,16.89,-1.12,1
3396,51.28,21.27,9.08,1
3397,51.29,-14.56,8.19,1
3398,51.31,28.96,-8.94,1
3399,51.32,21.25,-6.76,1
3400,51.33,29.12,4.78,1
3401,51.35,25.57,-5.42,1
3402,51.36,11.28,-2.12,1
3403,51.37,13.04,7.43,1
3404,51.38,22.72,17.61,1
3405,51.4,4.99,-23.67,1
3406,51.41,-10.55,-14.14,1
3407,51.43,-7.23,3.3,1
3408,51.44,10.93,15.24,1
3409,51.45,7.41,-15.9,1
3410,51.47,-32.56,-2.22,1
3411,51.48,-15.11,8.64,1
3412,51.49,-9.32,-0.49,1
3413,51.51,6.0,5.4,1
3414,51.52,11.35,-12.47,1
3415,51.53,-17.51,9.3,1
3416,51.55,-8.9,4.83,1
3417,51.56,20.94,6.27,1
3418,51.57,1.93,-16.47,1
3419,51.59,0.12,-1.44,1
3420,51.6,-8.76,-14.66,1
3421,51.61,-9.89,1.51,1
3422,51.63,-2.54,-5.59,1
3423,51.64,-5.43,3.48,1
3424,51.65,-6.07,13.97,1
3425,51.67,-9.05,1.1,1
3426,51.68,-28.34,-0.78,1
3427,51.69,-12.49,-5.46,1
3428,51.71,-16.9,10.37,1
3429,51.72,6.86,0.71,1
3430,51.73,-19.06,-6.38,1
3431,51.75,-24.77,-1.28,1
3432,51.76,-3.25,-1.65,1
3433,51.77,-19.57,-19.57,1
3434,51.79,-12.94,-11.24,1
3435,51.8,-4.11,-4.08,1
3436,51.81,-13.55,-3.89,1
3437,51.83,-8.53,-7.2,1
3438,51.84,-30.0,-15.98,1
3439,51.85,-28.7,10.55,1
3440,51.87,32.04,6.2,1
3441,51.88,-4.3,-13.44,1
3442,51.89,-9.72,-0.37,1
3443,51.9,-6.46,5.0,1
3444,51.92,-6.11,7.26,1
3445,51.93,-18.11,10.57,1
3446,51.95,-40.77,10.83,1
3447,51.96,-10.66,6.98,1
3448,51.97,1.89,3.93,1
3449,51.99,31.14,3.97,1
3450,52.0,6.59,25.26,1
3451,52.01,-13.88,-0.62,1
3452,52.03,-1.74,6.82,1
3453,52.04,-1.4,-3.15,1
3454,52.05,-16.27,-0.16,1
3455,52.06,7.46,2.21,1
3456,52.08,0.79,-5.19,1
3457,52.09,-6.34,-0.3,1
3458,52.11,17.34,-3.2,1
3459,52.12,0.33,-12.55,1
3460,52.13,6.05,14.57,1
3461,52.15,12.2,5.4,1
3462,52.16,-19.27,-1.46,2
3463,52.17,24.46,-19.47,2
3464,52.19,21.66,-14.92,2
3465,52.2,31.59,16.78,2
3466,52.21,70.39,-3.61,2
3467,52.23,143.32,7.41,2
3468,52.24,173.8,-1.07,2
3469,52.25,224.81,5.13,2
3470,52.27,176.44,29.14,2
3471,52.28,180.02,9.35,2
3472,52.29,121.36,2.02,2
3473,52.31,80.68,3.67,2
3474,52.32,34.09,-0.64,2
3475,52.33,-3.16,7.22,2
3476,52.35,-37.59,-20.81,2
3477,52.36,-84.81,-22.62,2
3478,52.37,-236.23,-9.81,2
3479,52.38,-285.82,6.41,2
3480,52.4,-330.89,-3.93,2
3481,52.41,-330.84,-15.33,2
3482,52.43,-317.13,-1.56,2
3483,52.44,-260.46,-6.92,2
3484,52.45,-242.37,-4.65,2
3485,52.47,-200.59,1.14,2
3486,52.48,-153.59,-7.74,2
3487,52.49,-111.24,15.17,2
3488,52.51,-88.53,14.84,2
3489,52.52,-55.51,-3.11,2
3490,52.53,6.87,-5.28,2
3491,52.54,5.58,-1.32,2
3492,52.56,33.15,-3.38,1
3493,52.57,31.31,-14.47,1
3494,52.59,77.02,-6.14,1
3495,52.6,89.72,9.08,1
3496,52.61,115.58,4.24,1
3497,52.63,98.61,2.84,1
3498,52.64,129.18,6.1,1
3499,52.65,121.11,-0.82,1
3500,52.67,57.88,-2.28,1
3501,52.68,101.68,1.16,1
3502,52.69,124.79,-2.71,1
3503,52.71,137.03,7.32,1
3504,52.72,125.79,-6.81,1
3505,52.73,148.27,-12.47,1
3506,52.75,146.82,-2.84,1
3507,52.76,124.3,-3.07,1
3508,52.77,94.07,-1.38,1
3509,52.79,105.24,-12.77,1
3510,52.8,129.21,3.28,1
3511,52.81,92.88,-1.14,1
3512,52.83,84.48,-12.74,1
3513,52.84,74.46,1.11,1
3514,52.85,64.59,-8.48,1
3515,52.87,38.5,17.59,1
3516,52.88,56.63,-7.73,1
3517,52.89,47.28,12.99,1
3518,52.9,18.65,3.38,1
3519,52.92,4.34,6.3,1
3520,52.93,9.55,-11.88,1
3521,52.95,-1.61,5.94,1
3522,52.96,-19.07,12.22,1
3523,52.97,-44.09,-1.98,1
3524,52.99,-34.48,-4.49,1
3525,53.0,-20.0,5.89,1
3526,53.01,-44.27,-4.41,1
3527,53.03,-35.63,6.18,1
3528,53.04,-34.59,4.09,1
3529,53.05,-14.41,5.67,1
3530,53.06,-48.31,0.96,1
3531,53.08,-54.66,6.65,1
3532,53.09,-56.96,-7.79,1
3533,53.11,-57.64,-8.24,1
3534,53.12,-68.15,-2.36,1
3535,53.13,-62.19,3.78,1
3536,53.15,-59.4,11.81,1
3537,53.16,-41.35,21.65,1
3538,53.17,-62.11,5.93,1
3539,53.19,-55.9,4.71,1
3540,53.2,-41.48,-1.14,1
3541,53.21,-43.3,1.05,1
3542,53.22,-48.85,7.3,1
3543,53.24,-47.3,-12.16,1
3544,53.25,-24.84,8.7,1
3545,53.27,-34.64,5.15,1
3546,53.28,-29.77,21.04,1
3547,53.29,-42.76,-5.32,1
3548,53.31,-24.29,-0.54,1
3549,53.32,-35.96,8.77,1
3550,53.33,-40.99,-6.68,1
3551,53.35,-23.31,-15.53,1
3552,53.36,-8.48,12.63,1
3553,53.37,-21.29,-15.42,1
3554,53.38,-10.78,3.88,1
3555,53.4,-5.68,-13.04,1
3556,53.41,-3.72,-8.49,1
3557,53.43,6.31,-1.27,1
3558,53.44,-16.99,-3.04,1
3559,53.45,-20.35,9.41,1
3560,53.47,14.11,16.92,1
3561,53.48,-1.5,-11.67,1
3562,53.49,-0.55,-26.71,1
3563,53.51,0.5,-10.41,1
3564,53.52,13.82,1.98,1
3565,53.53,10.15,6.32,1
3566,53.54,23.93,-2.29,1
3567,53.56,30.49,15.51,1
3568,53.57,33.1,-6.61,1
3569,53.59,26.68,-3.69,1
3570,53.6,30.21,0.37,1
3571,53.61,42.9,7.57,1
3572,53.63,28.9,-2.73,1
3573,53.64,19.34,11.9,1
3574,53.65,0.74,-1.15,1
3575,53.67,26.22,-10.5,1
3576,53.68,5.71,-9.37,1
3577,53.69,11.66,-3.08,1
3578,53.71,6.68,-13.94,1
3579,53.72,17.64,12.12,1
3580,53.73,-2.83,1.66,1
3581,53.75,7.09,-13.79,1
3582,53.76,13.72,2.66,1
3583,53.77,32.66,18.46,1
3584,53.79,16.52,-3.41,1
3585,53.8,-10.73,-16.87,1
3586,53.81,1.62,-8.06,1
3587,53.83,18.42,6.39,1
3588,53.84,8.13,-16.7,1
3589,53.85,10.91,-14.45,1
3590,53.87,6.0,4.68,1
3591,53.88,25.35,2.57,1
3592,53.89,7.63,-0.51,1
3593,53.9,-4.38,-4.73,1
3594,53.92,-0.56,0.25,1
3595,53.93,10.86,15.3,1
3596,53.95,1.81,13.05,1
3597,53.96,-7.94,-2.6,1
3598,53.97,5.88,-5.04,1
3599,53.99,-2.31,-1.54,1
3600,54.0,-3.56,10.57,1
3601,54.01,-0.18,8.6,1
3602,54.03,15.65,0.36,1
3603,54.04,-6.26,-5.51,1
3604,54.05,-7.35,2.41,1
3605,54.06,-14.05,2.03,1
3606,54.08,-11.95,9.19,1
3607,54.09,-15.6,-11.53,1
3608,54.11,-9.87,20.19,1
3609,54.12,-14.78,5.16,1
3610,54.13,16.45,30.94,1
3611,54.15,-7.84,60.96,1
3612,54.16,-19.59,119.71,1
3613,54.17,15.67,208.92,1
3614,54.19,-4.31,349.51,1
3615,54.2,-53.04,167.11,1
3616,54.21,-226.34,123.15,1
3617,54.22,-50.54,-196.8,1
3618,54.24,403.08,-9.65,1
3619,54.25,176.19,150.77,1
3620,54.27,-117.11,12.07,1
3621,54.28,-225.63,-77.54,1
3622,54.29,-135.55,-184.51,1
3623,54.31,15.09,-509.94,1
3624,54.32,9.27,-142.28,1
3625,54.33,-5.16,-162.48,1
3626,54.35,-65.88,-279.39,1
3627,54.36,207.7,-125.71,1
3628,54.37,-45.69,-238.89,1
3629,54.38,-23.67,-42.78,1
3630,54.4,145.05,-121.68,1
3631,54.41,111.77,-85.13,1
3632,54.43,-95.46,-115.32,1
3633,54.44,-163.41,-157.16,1
3634,54.45,-150.09,-40.41,1
3635,54.47,-3.03,-95.06,1
3636,54.48,89.87,429.46,1
3637,54.49,92.06,47.86,1
3638,54.51,-133.26,-267.11,1
3639,54.52,383.39,-140.75,1
3640,54.53,84.5,148.17,1
3641,54.54,257.26,527.67,1
3642,54.56,32.51,83.11,1
3643,54.57,69.55,-148.44,1
3644,54.59,274.21,280.5,1
3645,54.6,42.61,-232.03,1
3646,54.61,188.66,50.14,1
3647,54.63,-177.36,203.52,1
3648,54.64,-48.43,-51.03,1
3649,54.65,-334.62,4.87,1
3650,54.67,-132.32,40.66,1
3651,54.68,60.59,-89.71,1
3652,54.69,-200.21,-96.25,1
3653,54.71,-256.66,-62.43,1
3654,54.72,2.21,-43.08,1
3655,54.73,-120.03,175.21,1
3656,54.75,-17.65,293.11,1
3657,54.76,-235.17,-92.32,1
3658,54.77,67.97,110.92,1
3659,54.79,-315.44,393.12,1
3660,54.8,184.1,270.76,1
3661,54.81,7.56,-86.28,1
3662,54.83,66.72,262.59,1
3663,54.84,-11.98,115.92,1
3664,54.85,-267.16,17.16,1
3665,54.87,-95.35,253.85,1
3666,54.88,-51.2,107.85,1
3667,54.89,-153.48,32.7,1
3668,54.9,-37.99,-183.86,1
3669,54.92,13.53,-9.85,1
3670,54.93,38.81,-69.42,1
3671,54.95,42.63,-74.77,1
3672,54.96,65.22,-86.61,1
3673,54.97,62.78,-121.15,1
3674,54.99,88.22,-111.35,1
3675,55.0,89.99,-106.03,1
3676,55.01,72.07,-78.72,1
3677,55.03,60.16,-40.25,1
3678,55.04,78.35,23.36,1
3679,55.05,110.92,53.41,1
3680,55.06,117.95,54.1,1
3681,55.08,118.89,81.89,1
3682,55.09,128.06,68.0,1
3683,55.11,124.57,82.73,1
3684,55.12,100.24,37.72,1
3685,55.13,55.24,27.59,1
3686,55.15,50.11,3.0,1
3687,55.16,65.58,-15.79,1
3688,55.17,54.55,-9.74,1
3689,55.19,56.47,-35.98,1
3690,55.2,3.59,-29.18,1
3691,55.21,31.85,-52.12,1
3692,55.22,4.84,-64.64,1
3693,55.24,-7.73,-81.36,1
3694,55.25,13.74,-83.91,1
3695,55.27,13.46,-96.36,1
3696,55.28,-14.65,-81.98,1
3697,55.29,-42.54,-69.55,1
3698,55.31,-51.54,-91.72,1
3699,55.32,-60.42,-83.34,1
3700,55.33,-74.1,-88.42,1
3701,55.35,-76.22,-59.12,1
3702,55.36,-64.69,-55.3,1
3703,55.37,-40.71,-64.75,1
3704,55.38,-53.74,-54.94,1
3705,55.4,-61.86,-53.56,1
3706,55.41,-74.76,-32.62,1
3707,55.43,-49.11,-50.77,1
3708,55.44,-39.13,-28.85,1
3709,55.45,-47.04,-45.06,1
3710,55.47,-40.58,-26.06,1
3711,55.48,-27.31,-20.11,1
3712,55.49,-33.78,-21.76,1
3713,55.51,-27.57,-14.37,1
3714,55.52,-30.23,-3.11,1
3715,55.53,-18.72,0.32,1
3716,55.54,-25.53,7.01,1
3717,55.56,-31.46,12.23,1
3718,55.57,10.31,12.67,1
3719,55.59,-7.56,8.73,1
3720,55.6,-10.47,32.33,1
3721,55.61,-16.52,34.3,1
3722,55.63,1.66,43.37,1
3723,55.64,2.69,32.23,1
3724,55.65,-2.87,26.12,1
3725,55.67,0.05,35.96,1
3726,55.68,20.98,36.56,1
3727,55.69,12.33,39.4,1
3728,55.71,13.48,35.12,1
3729,55.72,5.57,57.53,1
3730,55.73,12.86,46.51,1
3731,55.75,18.36,33.43,1
3732,55.76,20.79,34.37,1
3733,55.77,28.31,32.54,1
3734,55.79,21.77,29.61,1
3735,55.8,17.29,27.91,1
3736,55.81,-0.24,31.18,1
3737,55.83,18.54,24.03,1
3738,55.84,23.25,17.8,1
3739,55.85,36.7,24.04,1
3740,55.87,3.85,33.07,1
3741,55.88,22.79,28.55,1
3742,55.89,26.81,35.36,1
3743,55.9,14.61,35.41,1
3744,55.92,-7.05,14.31,1
3745,55.93,24.88,14.98,1
3746,55.95,12.72,13.41,1
3747,55.96,15.37,2.07,1
3748,55.97,2.59,-1.32,1
3749,55.99,23.9,2.41,1
3750,56.0,-1.29,18.11,1
3751,56.01,3.6,17.89,1
3752,56.03,-4.93,2.26,1
3753,56.04,10.92,-6.23,1
3754,56.05,-7.85,15.78,1
3755,56.06,-13.1,6.28,1
3756,56.08,-26.74,1.07,1
3757,56.09,0.72,-3.42,1
3758,56.11,11.23,-23.81,1
3759,56.12,6.66,-10.14,1
3760,56.13,2.68,-19.62,1
3761,56.15,12.92,-8.39,1
3762,56.16,-3.33,-6.43,2
3763,56.17,0.12,-5.5,2
3764,56.19,3.36,-16.65,2
3765,56.2,13.12,-21.2,2
3766,56.21,-13.53,-24.74,2
3767,56.22,-3.29,-35.07,2
3768,56.24,14.81,-21.32,2
3769,56.25,-2.74,-2.79,2
3770,56.27,-6.33,-36.98,2
3771,56.28,122.99,-21.37,2
3772,56.29,186.7,-34.57,2
3773,56.31,204.06,-22.53,2
3774,56.32,171.58,-16.33,2
3775,56.33,141.26,-8.78,2
3776,56.35,69.08,3.34,2
3777,56.36,-4.57,-0.13,2
3778,56.37,-64.24,7.56,2
3779,56.38,-118.28,6.03,2
3780,56.4,-123.84,7.55,2
3781,56.41,-164.7,14.28,2
3782,56.43,-169.22,-5.14,2
3783,56.44,-185.49,13.14,2
3784,56.45,-158.85,-24.03,2
3785,56.47,-152.94,1.13,2
3786,56.48,-161.06,8.54,2
3787,56.49,-151.88,3.34,2
3788,56.51,-135.01,-3.35,2
3789,56.52,-105.74,3.72,2
3790,56.53,-84.81,11.11,2
3791,56.54,-63.01,8.19,2
3792,56.56,-62.02,0.6,1
3793,56.57,-46.17,2.13,1
3794,56.59,-26.43,-3.02,1
3795,56.6,-4.55,-13.11,1
3796,56.61,-21.76,-8.17,1
3797,56.63,0.88,6.38,1
3798,56.64,24.81,-6.27,1
3799,56.65,55.41,-10.22,1
3800,56.67,63.0,17.56,1
3801,56.68,54.66,-8.8,1
3802,56.69,70.68,6.57,1
3803,56.71,84.31,-9.21,1
3804,56.72,65.5,11.28,1
3805,56.73,69.78,10.1,1
3806,56.75,65.29,6.18,1
3807,56.76,95.24,3.6,1
3808,56.77,92.83,-1.53,1
3809,56.79,98.54,-1.57,1
3810,56.8,104.03,-11.37,1
3811,56.81,98.4,-15.29,1
3812,56.83,72.24,6.06,1
3813,56.84,83.02,1.77,1
3814,56.85,65.25,1.12,1
3815,56.87,80.33,-9.31,1
3816,56.88,62.51,15.1,1
3817,56.89,40.2,13.67,1
3818,56.9,45.01,11.08,1
3819,56.92,42.07,5.87,1
3820,56.93,33.44,-0.21,1
3821,56.95,15.94,8.06,1
3822,56.96,18.14,-12.57,1
3823,56.97,1.48,-14.84,1
3824,56.99,7.31,-14.49,1
3825,57.0,4.31,-5.63,1
3826,57.01,2.31,-25.74,1
3827,57.03,8.82,-13.22,1
3828,57.04,-17.33,17.43,1
3829,57.05,-7.11,-0.72,1
3830,57.06,-13.49,-7.97,1
3831,57.08,-11.85,-2.62,1
3832,57.09,-18.8,5.62,1
3833,57.11,-38.07,17.25,1
3834,57.12,-28.62,1.32,1
3835,57.13,-54.03,7.42,1
3836,57.15,-32.34,16.24,1
3837,57.16,-38.74,6.45,1
3838,57.17,-27.86,-5.02,1
3839,57.19,-25.34,-1.52,1
3840,57.2,-38.83,-4.13,1
3841,57.21,-47.49,1.94,1
3842,57.22,-30.61,13.0,1
3843,57.24,-23.59,-3.26,1
3844,57.25,-33.07,13.63,1
3845,57.27,-38.63,5.99,1
3846,57.28,-11.01,6.71,1
3847,57.29,-21.44,4.92,1
3848,57.31,-32.66,-8.3,1
3849,57.32,-25.52,-5.87,1
3850,57.33,-44.74,2.89,1
3851,57.35,-26.22,7.54,1
3852,57.36,-15.04,18.8,1
3853,57.37,-5.89,16.25,1
3854,57.38,-14.7,-13.3,1
3855,57.4,-13.22,-3.09,1
3856,57.41,-23.45,-2.59,1
3857,57.43,-13.56,6.09,1
3858,57.44,-12.91,18.72,1
3859,57.45,-3.88,-21.9,1
3860,57.47,-7.23,-1.35,1
3861,57.48,1.31,-10.7,1
3862,57.49,-5.66,-2.74,1
3863,57.51,3.41,-12.42,1
3864,57.52,-16.63,0.88,1
3865,57.53,16.84,-2.73,1
3866,57.54,-0.2,-10.86,1
3867,57.56,3.64,-8.81,1
3868,57.57,-18.91,-7.58,1
3869,57.59,3.24,-8.18,1
3870,57.6,3.21,-4.09,1
3871,57.61,9.47,7.01,1
3872,57.63,19.32,11.66,1
3873,57.64,23.47,11.42,1
3874,57.65,14.72,6.57,1
3875,57.67,-3.66,8.95,1
3876,57.68,0.66,-6.84,1
3877,57.69,8.25,1.43,1
3878,57.71,10.52,2.83,1
3879,57.72,16.51,-4.15,1
3880,57.73,11.52,-3.28,1
3881,57.75,7.71,-4.24,1
3882,57.76,4.15,-11.78,1
3883,57.77,-5.95,-1.3,1
3884,57.79,6.09,1.19,1
3885,57.8,32.01,6.51,1
3886,57.81,10.44,-13.57,1
3887,57.83,12.89,-1.97,1
3888,57.84,29.94,5.77,1
3889,57.85,15.0,-5.21,1
3890,57.87,-5.31,14.05,1
3891,57.88,-6.39,1.29,1
3892,57.89,15.62,-5.83,1
3893,57.9,0.05,-5.41,1
3894,57.92,2.58,-15.24,1
3895,57.93,-3.81,-11.82,1
3896,57.95,25.08,-12.11,1
3897,57.96,-0.42,-2.0,1
3898,57.97,-2.12,8.61,1
3899,57.99,-1.27,-0.18,1
3900,58.0,13.51,1.16,1
3901,58.01,0.37,16.44,1
3902,58.03,-4.6,9.81,1
3903,58.04,-3.2,17.1,1
3904,58.05,14.26,20.17,1
3905,58.06,2.59,10.64,1
3906,58.08,-26.99,5.65,1
3907,58.09,13.44,-3.44,1
3908,58.11,-22.88,12.64,1
3909,58.12,-3.21,-16.98,1
3910,58.13,1.69,6.82,1
3911,58.15,-17.38,10.16,1
3912,58.16,20.02,-10.47,0
3913,58.17,4.17,5.33,0
3914,58.19,5.67,-5.63,0
3915,58.2,34.71,-15.98,0
3916,58.21,-1.8,3.27,0
3917,58.22,11.41,-15.43,0
3918,58.24,4.1,-37.68,0
3919,58.25,-14.92,9.27,0
3920,58.27,-5.0,-3.75,0
3921,58.28,14.4,9.35,0
3922,58.29,-80.08,19.22,0
3923,58.31,-122.36,35.98,0
3924,58.32,-188.14,48.68,0
3925,58.33,-218.89,38.06,0
3926,58.35,-208.38,4.78,0
3927,58.36,-154.65,-20.28,0
3928,58.37,-110.84,-49.14,0
3929,58.38,-78.15,-44.42,0
3930,58.4,-29.78,-46.62,0
3931,58.41,26.4,-36.88,0
3932,58.43,74.05,-30.18,0
3933,58.44,130.25,-26.7,0
3934,58.45,206.75,-11.68,0
3935,58.47,283.85,13.3,0
3936,58.48,303.81,8.61,0
3937,58.49,296.54,-6.59,0
3938,58.51,281.03,21.06,0
3939,58.52,248.35,9.82,0
3940,58.53,179.94,6.14,0
3941,58.54,152.15,14.65,0
3942,58.56,124.18,2.25,1
3943,58.57,77.14,6.11,1
3944,58.59,45.55,13.03,1
3945,58.6,9.43,20.01,1
3946,58.61,6.23,10.16,1
3947,58.63,-28.22,7.06,1
3948,58.64,-59.74,14.3,1
3949,58.65,-62.1,-2.25,1
3950,58.66,-71.16,10.71,1
3951,58.68,-84.23,8.53,1
3952,58.69,-97.08,-3.23,1
3953,58.71,-108.03,14.53,1
3954,58.72,-99.7,9.99,1
3955,58.73,-108.95,-0.22,1
3956,58.75,-113.92,-6.8,1
3957,58.76,-112.48,18.14,1
3958,58.77,-95.95,5.95,1
3959,58.79,-106.47,-6.29,1
3960,58.8,-105.55,-17.74,1
3961,58.81,-94.36,2.39,1
3962,58.83,-91.27,16.93,1
3963,58.84,-87.58,-4.65,1
3964,58.85,-78.38,-2.56,1
3965,58.87,-70.03,-12.98,1
3966,58.88,-59.16,11.36,1
3967,58.89,-65.49,13.78,1
3968,58.9,-65.78,-7.6,1
3969,58.92,-33.8,-3.8,1
3970,58.93,-44.62,-7.68,1
3971,58.95,-41.19,5.36,1
3972,58.96,-8.19,-11.93,1
3973,58.97,-2.77,-11.42,1
3974,58.99,-20.19,-3.9,1
3975,59.0,-13.96,-2.56,1
3976,59.01,8.76,3.62,1
3977,59.03,9.77,2.17,1
3978,59.04,24.97,-13.5,1
3979,59.05,12.84,-15.71,1
3980,59.06,9.49,-12.28,1
3981,59.08,15.44,-7.9,1
3982,59.09,32.56,4.91,1
3983,59.11,27.6,3.43,1
3984,59.12,37.84,-0.32,1
3985,59.13,45.71,-5.67,1
3986,59.15,32.82,12.89,1
3987,59.16,3.76,-1.21,1
3988,59.17,18.7,7.44,1
3989,59.19,52.04,2.3,1
3990,59.2,44.26,-4.08,1
3991,59.21,57.9,9.16,1
3992,59.22,55.33,-5.74,1
3993,59.24,46.76,-2.63,1
3994,59.25,39.09,-11.66,1
3995,59.27,28.27,2.63,1
3996,59.28,45.7,5.56,1
3997,59.29,42.31,-18.9,1
3998,59.3,30.96,0.48,1
3999,59.32,23.45,10.91,1
4000,59.33,20.58,-2.89,1
4001,59.35,20.33,1.46,1
4002,59.36,6.61,-4.48,1
4003,59.37,16.28,-15.36,1
4004,59.38,24.19,-5.92,1
4005,59.4,27.24,11.38,1
4006,59.41,18.07,0.76,1
4007,59.43,16.35,6.54,1
4008,59.44,24.63,5.22,1
4009,59.45,10.06,-1.58,1
4010,59.47,9.24,-7.66,1
4011,59.48,-9.82,-1.55,1
4012,59.49,2.02,-2.75,1
4013,59.51,-14.5,5.01,1
4014,59.52,-0.26,6.75,1
4015,59.53,3.16,13.14,1
4016,59.54,15.15,4.83,1
4017,59.56,-13.46,-3.16,1
4018,59.57,-9.83,-11.34,1
4019,59.59,6.94,7.35,1
4020,59.6,4.77,-2.39,1
4021,59.61,0.72,18.45,1
4022,59.63,-10.77,17.44,1
4023,59.64,-3.53,-0.89,1
4024,59.65,-17.09,-4.56,1
4025,59.67,-31.38,5.51,1
4026,59.68,-28.09,14.54,1
4027,59.69,-2.61,-0.87,1
4028,59.71,-22.41,4.52,1
4029,59.72,-20.9,-0.27,1
4030,59.73,-17.55,10.95,1
4031,59.75,-4.49,-7.11,1
4032,59.76,-6.02,-14.53,1
4033,59.77,-2.69,-10.37,1
4034,59.79,-21.84,8.45,1
4035,59.8,0.29,-2.94,1
4036,59.81,-9.39,-4.55,1
4037,59.83,-3.19,2.03,1
4038,59.84,-4.72,-9.91,1
4039,59.85,3.53,-2.82,1
4040,59.87,-27.37,2.97,1
4041,59.88,-6.97,4.2,1
4042,59.89,-20.86,-0.61,1
4043,59.9,1.53,12.29,1
4044,59.92,9.9,-2.34,1
4045,59.93,-7.13,0.82,1
4046,59.94,-18.07,-1.88,1
4047,59.96,-4.29,-2.63,1
4048,59.97,-0.91,-15.74,1
4049,59.985,3.97,-8.7,1
4050,60.0,6.5,-8.56,1
4051,60.01,7.66,-7.55,1
4052,60.03,-7.12,6.01,1
4053,60.04,-7.28,-9.23,1
4054,60.05,8.52,1.79,1
4055,60.06,-5.07,-3.92,1
4056,60.08,-19.92,-6.65,1
4057,60.09,-22.95,-1.35,1
4058,60.11,22.59,-3.24,1
4059,60.12,4.63,-9.26,1
4060,60.13,1.88,-5.7,1
4061,60.15,-7.61,13.02,1
4062,60.16,26.05,2.02,0
4063,60.17,-9.82,-0.12,0
4064,60.19,-1.03,19.95,0
4065,60.2,1.39,-2.69,0
4066,60.21,7.87,-22.31,0
4067,60.22,15.07,8.73,0
4068,60.24,-86.95,-6.62,0
4069,60.25,-179.25,-7.46,0
4070,60.27,-202.11,5.44,0
4071,60.28,-199.7,13.13,0
4072,60.29,-168.1,-5.77,0
4073,60.31,-117.18,20.42,0
4074,60.32,-55.94,3.68,0
4075,60.33,3.76,-6.61,0
4076,60.35,66.21,-20.43,0
4077,60.36,91.85,-10.36,0
4078,60.37,150.12,4.58,0
4079,60.38,170.11,1.09,0
4080,60.4,195.46,14.22,0
4081,60.41,210.0,9.8,0
4082,60.43,211.32,1.22,0
4083,60.44,187.71,18.32,0
4084,60.45,175.47,21.86,0
4085,60.47,169.4,5.2,0
4086,60.48,134.54,11.88,0
4087,60.49,114.14,3.55,0
4088,60.51,99.02,17.71,0
4089,60.52,80.64,16.59,0
4090,60.53,57.35,-11.39,0
4091,60.54,30.99,-1.08,0
4092,60.56,29.24,6.2,1
4093,60.57,28.38,-27.49,1
4094,60.58,9.17,4.38,1
4095,60.6,-12.88,-0.21,1
4096,60.61,-58.67,-2.75,1
4097,60.62,-55.93,3.16,1
4098,60.64,-80.87,-3.38,1
4099,60.65,-74.99,4.86,1
4100,60.67,-95.22,20.43,1
4101,60.68,-81.32,4.92,1
4102,60.69,-107.63,-10.15,1
4103,60.71,-107.64,-20.17,1
4104,60.72,-92.57,-14.24,1
4105,60.73,-88.71,-3.85,1
4106,60.75,-97.81,-12.16,1
4107,60.76,-99.84,-13.01,1
4108,60.77,-90.19,1.71,1
4109,60.79,-81.35,9.23,1
4110,60.8,-83.44,3.67,1
4111,60.81,-77.26,-4.7,1
4112,60.83,-91.09,-7.85,1
4113,60.84,-83.43,-2.5,1
4114,60.85,-75.24,-14.42,1
4115,60.87,-59.7,-16.41,1
4116,60.88,-39.3,-9.39,1
4117,60.89,-39.09,6.77,1
4118,60.9,-24.61,-11.83,1
4119,60.92,-18.82,-8.55,1
4120,60.93,-21.52,-1.69,1
4121,60.95,-15.04,-1.27,1
4122,60.96,-5.1,17.14,1
4123,60.97,6.95,-15.75,1
4124,60.99,10.52,0.81,1
4125,61.0,13.4,-2.14,1
4126,61.01,-0.66,18.36,1
4127,61.03,7.08,3.93,1
4128,61.04,37.22,1.79,1
4129,61.05,28.53,1.11,1
4130,61.06,39.16,-4.62,1
4131,61.08,28.27,-5.99,1
4132,61.09,22.4,-4.79,1
4133,61.11,30.03,15.16,1
4134,61.12,34.18,5.89,1
4135,61.13,47.88,4.03,1
4136,61.15,29.87,9.75,1
4137,61.16,31.55,1.54,1
4138,61.17,27.75,21.17,1
4139,61.19,38.53,1.86,1
4140,61.2,35.03,-8.57,1
4141,61.21,32.09,-7.45,1
4142,61.22,24.58,1.18,1
4143,61.24,40.86,7.65,1
4144,61.25,31.87,-0.77,1
4145,61.26,32.38,-8.52,1
4146,61.28,33.62,-26.15,1
4147,61.29,45.46,16.73,1
4148,61.31,27.61,-1.63,1
4149,61.32,12.91,-8.18,1
4150,61.33,35.23,1.86,1
4151,61.35,41.87,4.31,1
4152,61.36,8.42,-16.05,1
4153,61.37,18.28,-3.15,1
4154,61.38,13.77,6.78,1
4155,61.4,13.29,8.53,1
4156,61.41,14.35,3.89,1
4157,61.43,18.71,8.99,1
4158,61.44,3.55,17.5,1
4159,61.45,3.85,5.57,1
4160,61.47,-18.47,9.04,1
4161,61.48,10.15,0.23,1
4162,61.49,3.37,-12.72,1
4163,61.51,-9.92,-0.53,1
4164,61.52,-6.44,-1.4,1
4165,61.53,-12.09,-5.61,1
4166,61.54,9.02,7.38,1
4167,61.56,7.94,-15.72,1
4168,61.57,-0.0,-28.24,1
4169,61.59,-8.11,13.06,1
4170,61.6,-1.81,16.15,1
4171,61.61,-0.91,9.98,1
4172,61.63,-14.83,-9.25,1
4173,61.64,-16.73,-6.56,1
4174,61.65,0.55,13.26,1
4175,61.67,0.24,19.44,1
4176,61.68,-0.96,-2.16,1
4177,61.69,-23.64,-23.52,1
4178,61.71,-2.75,-13.71,1
4179,61.72,-29.59,10.21,1
4180,61.73,-15.82,16.22,1
4181,61.75,-22.14,9.99,1
4182,61.76,-8.24,7.95,1
4183,61.77,-29.75,-7.7,1
4184,61.79,-24.98,-20.6,1
4185,61.8,-25.77,10.94,1
4186,61.81,0.95,1.04,1
4187,61.83,-10.79,3.27,1
4188,61.84,-19.73,13.35,1
4189,61.85,-19.38,-4.43,1
4190,61.86,-2.2,5.72,1
4191,61.88,1.54,-3.37,1
4192,61.89,0.59,1.81,1
4193,61.9,-6.81,-7.08,1
4194,61.92,-6.99,-16.95,1
4195,61.93,-17.67,-8.09,1
4196,61.95,-17.43,-2.25,1
4197,61.96,6.29,13.83,1
4198,61.97,8.77,-3.91,1
4199,61.99,8.85,2.45,1
4200,62.0,-4.94,-0.68,1
4201,62.01,-4.23,-9.32,1
4202,62.03,-18.0,-8.47,1
4203,62.04,-2.52,8.97,1
4204,62.05,7.81,-5.66,1
4205,62.06,15.31,1.49,1
4206,62.08,-3.77,3.53,1
4207,62.09,-17.64,-2.81,1
4208,62.11,6.97,2.66,1
4209,62.12,12.9,-0.25,1
4210,62.13,4.11,-8.73,1
4211,62.15,-2.81,4.79,1
4212,62.16,0.1,-6.2,2
4213,62.17,32.41,-6.45,2
4214,62.19,39.76,17.86,2
4215,62.2,2.06,-15.87,2
4216,62.21,6.62,-3.93,2
4217,62.22,20.93,0.3,2
4218,62.24,-25.97,14.14,2
4219,62.25,91.95,27.48,2
4220,62.27,171.86,4.13,2
4221,62.28,239.77,0.04,2
4222,62.29,227.71,-2.07,2
4223,62.31,194.75,-5.69,2
4224,62.32,150.87,1.22,2
4225,62.33,99.84,-11.29,2
4226,62.35,53.52,-19.32,2
4227,62.36,11.25,-15.21,2
4228,62.37,-31.78,-4.12,2
4229,62.38,-125.45,-17.55,2
4230,62.4,-263.0,-12.06,2
4231,62.41,-298.24,-18.4,2
4232,62.43,-319.95,-5.17,2
4233,62.44,-321.97,-8.28,2
4234,62.45,-285.0,21.07,2
4235,62.47,-257.82,13.15,2
4236,62.48,-202.03,10.94,2
4237,62.49,-179.79,4.34,2
4238,62.5,-138.63,10.93,2
4239,62.52,-110.26,-11.1,2
4240,62.53,-55.32,0.18,2
4241,62.54,14.03,4.69,2
4242,62.56,31.29,15.65,1
4243,62.57,28.0,1.14,1
4244,62.59,26.45,7.23,1
4245,62.6,12.76,-2.14,1
4246,62.61,26.0,-6.92,1
4247,62.63,54.91,7.66,1
4248,62.64,67.19,11.96,1
4249,62.65,81.85,15.95,1
4250,62.67,95.65,-3.95,1
4251,62.68,85.0,2.96,1
4252,62.69,97.45,8.58,1
4253,62.71,85.54,12.12,1
4254,62.72,91.68,-7.9,1
4255,62.73,98.37,-12.17,1
4256,62.75,106.57,-0.97,1
4257,62.76,117.75,8.8,1
4258,62.77,112.48,17.49,1
4259,62.79,116.81,4.96,1
4260,62.8,96.7,-11.53,1
4261,62.81,85.91,-3.96,1
4262,62.83,79.0,-5.71,1
4263,62.84,79.38,-2.94,1
4264,62.85,87.84,-3.76,1
4265,62.87,75.89,2.57,1
4266,62.88,57.66,-11.37,1
4267,62.89,56.98,-17.23,1
4268,62.9,44.13,5.31,1
4269,62.92,42.84,11.25,1
4270,62.93,35.91,5.02,1
4271,62.95,39.18,11.5,1
4272,62.96,17.88,-5.86,1
4273,62.97,10.73,6.35,1
4274,62.99,4.04,-10.15,1
4275,63.0,-14.93,-3.6,1
4276,63.01,-20.29,14.37,1
4277,63.03,-22.51,-3.89,1
4278,63.04,-8.4,-10.04,1
4279,63.05,-25.94,-2.02,1
4280,63.06,-40.53,6.78,1
4281,63.08,-30.56,9.11,1
4282,63.09,-30.61,5.11,1
4283,63.11,-39.58,-4.18,1
4284,63.12,-42.69,4.11,1
4285,63.13,-60.75,3.75,1
4286,63.14,-47.2,12.16,1
4287,63.16,-38.09,-3.72,1
4288,63.17,-39.89,-15.02,1
4289,63.18,-51.39,-0.2,1
4290,63.2,-46.61,-2.62,1
4291,63.21,-44.81,-3.33,1
4292,63.22,-52.33,8.44,1
4293,63.24,-55.74,-16.3,1
4294,63.25,-36.8,3.22,1
4295,63.27,-47.39,-19.49,1
4296,63.28,-46.1,-6.15,1
4297,63.29,-27.79,-7.6,1
4298,63.31,-29.1,-10.63,1
4299,63.32,-29.96,-2.05,1
4300,63.33,-30.89,1.83,1
4301,63.35,-15.08,7.25,1
4302,63.36,-28.9,9.23,1
4303,63.37,-22.14,-7.93,1
4304,63.38,-22.55,-1.98,1
4305,63.4,-9.27,-0.14,1
4306,63.41,-14.71,-7.51,1
4307,63.43,-8.69,7.06,1
4308,63.44,-9.79,8.47,1
4309,63.45,7.66,-3.33,1
4310,63.47,-7.65,-0.72,1
4311,63.48,-10.98,0.36,1
4312,63.49,-24.27,9.6,1
4313,63.51,14.13,-4.05,1
4314,63.52,-7.26,7.37,1
4315,63.53,6.88,-5.86,1
4316,63.54,6.27,-13.84,1
4317,63.56,23.17,2.29,1
4318,63.57,22.14,0.13,1
4319,63.59,7.52,14.23,1
4320,63.6,2.92,9.81,1
4321,63.61,32.04,-5.18,1
4322,63.63,20.89,1.17,1
4323,63.64,7.66,-7.99,1
4324,63.65,-4.13,-3.09,1
4325,63.67,17.06,15.25,1
4326,63.68,6.25,10.76,1
4327,63.69,15.23,3.27,1
4328,63.71,29.88,-2.93,1
4329,63.72,14.74,8.0,1
4330,63.73,-0.68,-11.9,1
4331,63.75,2.05,-11.59,1
4332,63.76,32.06,-15.81,1
4333,63.77,28.07,7.45,1
4334,63.78,16.52,7.19,1
4335,63.8,4.91,4.25,1
4336,63.81,19.76,5.06,1
4337,63.82,-6.16,4.68,1
4338,63.84,4.46,0.06,1
4339,63.85,10.28,-11.02,1
4340,63.86,21.7,-12.05,1
4341,63.88,9.63,-1.08,1
4342,63.89,4.36,1.75,1
4343,63.9,-1.27,-0.69,1
4344,63.92,14.26,1.91,1
4345,63.93,3.83,1.77,1
4346,63.95,1.74,12.52,1
4347,63.96,-7.46,-7.15,1
4348,63.97,-2.26,-10.32,1
4349,63.99,9.6,-2.86,1
4350,64.0,-5.35,-5.68,1
4351,64.01,-9.71,-6.69,1
4352,64.02,11.3,6.93,1
4353,64.04,0.08,-16.73,1
4354,64.05,-3.01,-0.1,1
4355,64.06,1.77,14.28,1
4356,64.08,3.25,28.3,1
4357,64.09,-26.65,85.43,1
4358,64.11,11.7,231.07,1
4359,64.12,-6.68,296.94,1
4360,64.13,1.66,196.29,1
4361,64.14,13.1,80.81,1
4362,64.16,80.71,-398.04,1
4363,64.17,64.04,-32.62,1
4364,64.18,-107.38,181.32,1
4365,64.2,-43.81,-73.37,1
4366,64.21,-287.42,-85.84,1
4367,64.22,-153.2,-196.37,1
4368,64.24,-30.91,-93.46,1
4369,64.25,-18.86,-142.98,1
4370,64.26,-115.07,207.35,1
4371,64.28,-194.64,0.11,1
4372,64.29,-133.03,-0.16,1
4373,64.3,31.12,-5.05,1
4374,64.32,363.1,-2.98,1
4375,64.33,214.87,-153.84,1
4376,64.34,81.07,-203.65,1
4377,64.36,223.92,-26.77,1
4378,64.37,137.08,-299.42,1
4379,64.38,163.11,-254.41,1
4380,64.4,166.86,-201.56,1
4381,64.41,-1.92,-90.66,1
4382,64.42,120.77,172.88,1
4383,64.44,-6.14,-195.23,1
4384,64.45,361.19,-1.86,1
4385,64.46,-194.22,106.71,1
4386,64.48,276.47,-350.82,1
4387,64.49,-130.09,71.41,1
4388,64.5,141.43,386.77,1
4389,64.52,13.37,3.57,1
4390,64.53,-293.19,88.03,1
4391,64.54,13.14,157.7,1
4392,64.56,-25.01,-321.15,1
4393,64.57,-107.99,198.92,1
4394,64.58,-145.3,84.04,1
4395,64.6,81.22,123.3,1
4396,64.61,-43.35,-44.38,1
4397,64.62,137.05,241.12,1
4398,64.64,-227.25,355.84,1
4399,64.65,-57.18,274.56,1
4400,64.66,-363.29,119.82,1
4401,64.68,-36.31,-173.12,1
4402,64.69,-32.5,-257.36,1
4403,64.7,-31.73,96.42,1
4404,64.72,-259.99,114.81,1
4405,64.73,-39.73,149.56,1
4406,64.75,-284.33,-172.54,1
4407,64.76,65.41,100.03,1
4408,64.77,-79.73,-341.59,1
4409,64.79,74.94,-61.03,1
4410,64.8,-79.3,-135.53,1
4411,64.81,171.52,-81.45,1
4412,64.82,-157.83,-186.14,1
4413,64.84,-61.4,-182.25,1
4414,64.85,-14.8,82.16,1
4415,64.86,-33.08,143.24,1
4416,64.88,-24.48,146.56,1
4417,64.89,-100.01,174.06,1
4418,64.9,-140.01,140.07,1
4419,64.92,-195.97,47.09,1
4420,64.93,-177.03,14.63,1
4421,64.94,-116.59,10.24,1
4422,64.96,-85.17,31.45,1
4423,64.97,35.51,70.14,1
4424,64.98,138.97,86.04,1
4425,65.0,206.33,108.09,1
4426,65.01,223.14,127.71,1
4427,65.02,217.61,117.1,1
4428,65.04,211.15,107.45,1
4429,65.05,232.72,107.84,1
4430,65.06,181.03,79.44,1
4431,65.08,173.38,72.63,1
4432,65.09,148.79,55.07,1
4433,65.1,157.91,27.02,1
4434,65.12,110.41,9.16,1
4435,65.13,109.8,-8.0,1
4436,65.14,89.19,-23.86,1
4437,65.16,79.68,-50.95,1
4438,65.17,63.47,-46.17,1
4439,65.18,47.2,-51.52,1
4440,65.2,46.59,-54.93,1
4441,65.21,20.05,-81.71,1
4442,65.22,19.42,-102.12,1
4443,65.24,4.16,-107.8,1
4444,65.25,15.02,-89.95,1
4445,65.26,-13.34,-92.0,1
4446,65.28,-33.12,-98.22,1
4447,65.29,-55.43,-109.5,1
4448,65.3,-34.74,-88.69,1
4449,65.32,-49.59,-96.66,1
4450,65.33,-44.58,-80.9,1
4451,65.34,-51.28,-68.9,1
4452,65.36,-32.58,-65.54,1
4453,65.37,-67.76,-65.32,1
4454,65.38,-61.51,-68.29,1
4455,65.4,-75.07,-53.9,1
4456,65.41,-48.56,-53.17,1
4457,65.43,-71.28,-51.53,1
4458,65.44,-64.18,-52.39,1
4459,65.45,-47.17,-36.92,1
4460,65.46,-33.34,-21.36,1
4461,65.48,-55.97,-1.65,1
4462,65.49,-52.24,-12.56,1
4463,65.5,-54.13,-17.37,1
4464,65.52,-30.93,-11.98,1
4465,65.53,-37.71,-1.77,1
4466,65.54,-36.14,5.6,1
4467,65.56,-28.53,8.97,1
4468,65.57,-23.44,14.32,1
4469,65.58,-41.44,30.78,1
4470,65.6,-25.41,22.69,1
4471,65.61,-23.05,24.62,1
4472,65.62,-33.33,26.12,1
4473,65.64,-22.37,37.18,1
4474,65.65,-10.31,19.55,1
4475,65.66,-8.66,18.82,1
4476,65.68,-4.0,33.09,1
4477,65.69,-8.77,27.07,1
4478,65.7,-4.29,41.67,1
4479,65.72,4.01,35.33,1
4480,65.73,-4.8,32.44,1
4481,65.74,2.59,22.62,1
4482,65.76,5.64,37.71,1
4483,65.77,29.98,46.89,1
4484,65.78,26.64,28.2,1
4485,65.8,25.88,35.24,1
4486,65.81,9.48,34.33,1
4487,65.82,25.71,30.09,1
4488,65.84,17.55,18.12,1
4489,65.85,14.03,25.71,1
4490,65.86,18.0,38.23,1
4491,65.88,28.9,29.11,1
4492,65.89,9.68,27.37,1
4493,65.9,15.38,28.24,1
4494,65.92,23.98,21.17,1
4495,65.93,10.69,18.82,1
4496,65.94,10.0,21.06,1
4497,65.96,12.09,16.46,1
4498,65.97,19.51,11.4,1
4499,65.98,4.91,17.21,1
4500,66.0,-3.41,-0.42,1
4501,66.01,5.99,1.02,1
4502,66.02,26.02,4.5,1
4503,66.04,25.9,9.59,1
4504,66.05,22.63,-2.26,1
4505,66.06,18.11,4.88,1
4506,66.08,3.64,-13.43,1
4507,66.09,-11.34,-14.96,1
4508,66.11,7.93,-13.34,1
4509,66.12,3.93,-20.91,1
4510,66.13,16.59,2.48,1
4511,66.14,-7.36,-14.92,1
4512,66.16,-21.16,-20.98,2
4513,66.17,5.21,-7.11,2
4514,66.18,-18.34,-21.09,2
4515,66.2,14.86,-29.92,2
4516,66.21,6.95,-11.22,2
4517,66.22,3.45,-17.4,2
4518,66.24,-7.48,-25.6,2
4519,66.25,35.71,-25.3,2
4520,66.26,106.09,-24.68,2
4521,66.28,169.41,-17.32,2
4522,66.29,227.35,1.54,2
4523,66.3,182.07,-8.63,2
4524,66.32,118.65,16.37,2
4525,66.33,60.51,13.95,2
4526,66.34,-14.0,9.58,2
4527,66.36,-65.45,13.49,2
4528,66.37,-119.48,1.53,2
4529,66.38,-119.76,-4.82,2
4530,66.4,-141.02,-5.1,2
4531,66.41,-163.84,-5.2,2
4532,66.42,-153.11,5.46,2
4533,66.44,-154.55,5.58,2
4534,66.45,-162.83,-19.44,2
4535,66.46,-155.94,-12.95,2
4536,66.48,-136.3,-5.44,2
4537,66.49,-116.24,10.36,2
4538,66.5,-107.28,-29.14,2
4539,66.52,-87.94,8.48,2
4540,66.53,-78.22,-20.27,2
4541,66.54,-43.9,-13.07,2
4542,66.56,-48.85,-2.82,1
4543,66.57,-28.27,3.24,1
4544,66.58,-10.13,9.67,1
4545,66.6,21.45,10.65,1
4546,66.61,16.77,-10.07,1
4547,66.62,14.68,-10.68,1
4548,66.64,27.81,1.7,1
4549,66.65,47.83,14.45,1
4550,66.66,50.02,-1.39,1
4551,66.68,52.78,8.46,1
4552,66.69,82.71,0.72,1
4553,66.7,69.04,9.22,1
4554,66.72,73.61,2.85,1
4555,66.73,77.06,-2.19,1
4556,66.75,103.22,4.29,1
4557,66.76,73.45,-5.61,1
4558,66.77,87.22,-8.87,1
4559,66.79,70.71,-6.32,1
4560,66.8,82.5,1.53,1
4561,66.81,85.41,-7.69,1
4562,66.82,67.07,-6.48,1
4563,66.84,62.8,-3.01,1
4564,66.85,63.5,13.12,1
4565,66.86,56.22,2.9,1
4566,66.88,41.5,-7.2,1
4567,66.89,32.28,5.11,1
4568,66.9,34.38,9.4,1
4569,66.92,28.81,-6.52,1
4570,66.93,18.71,3.34,1
4571,66.94,14.81,2.7,1
4572,66.96,24.31,13.63,1
4573,66.97,25.67,6.08,1
4574,66.98,3.52,4.81,1
4575,67.0,11.41,11.57,1
4576,67.01,16.0,9.64,1
4577,67.02,7.48,3.28,1
4578,67.04,-16.89,0.27,1
4579,67.05,-17.16,-4.73,1
4580,67.06,-12.45,4.45,1
4581,67.08,-30.63,-0.07,1
4582,67.09,-39.52,5.9,1
4583,67.1,-21.91,-3.66,1
4584,67.12,-31.78,-6.96,1
4585,67.13,-44.6,10.27,1
4586,67.14,-41.86,-5.3,1
4587,67.16,-39.97,6.49,1
4588,67.17,-38.51,1.44,1
4589,67.18,-36.07,-5.59,1
4590,67.2,-45.7,3.26,1
4591,67.21,-27.19,-4.8,1
4592,67.22,-41.2,1.93,1
4593,67.24,-32.64,-10.1,1
4594,67.25,-45.08,3.6,1
4595,67.26,-28.96,-10.26,1
4596,67.28,-24.52,-5.86,1
4597,67.29,-28.08,6.43,1
4598,67.3,-18.37,2.24,1
4599,67.32,-10.29,-2.46,1
4600,67.33,-18.16,-13.66,1
4601,67.34,-21.77,-1.52,1
4602,67.36,-19.02,-5.82,1
4603,67.37,-2.02,-8.85,1
4604,67.38,-25.28,3.88,1
4605,67.4,-22.54,8.0,1
4606,67.41,-18.15,-0.35,1
4607,67.43,-2.86,5.49,1
4608,67.44,-3.88,19.36,1
4609,67.45,0.28,-2.68,1
4610,67.46,5.71,-7.21,1
4611,67.48,-7.3,-0.22,1
4612,67.49,6.47,9.4,1
4613,67.5,-7.33,-4.92,1
4614,67.52,19.22,-9.66,1
4615,67.53,-2.86,13.24,1
4616,67.54,-7.43,5.78,1
4617,67.56,-7.31,-6.49,1
4618,67.57,28.8,-19.66,1
4619,67.58,10.82,4.27,1
4620,67.6,-15.21,7.86,1
4621,67.61,8.37,3.37,1
4622,67.62,29.07,-4.11,1
4623,67.64,3.85,6.26,1
4624,67.65,5.63,7.64,1
4625,67.66,11.1,-0.83,1
4626,67.68,32.52,2.41,1
4627,67.69,18.1,7.59,1
4628,67.7,13.55,-15.29,1
4629,67.72,-4.71,-5.76,1
4630,67.73,23.85,2.05,1
4631,67.74,-2.65,22.44,1
4632,67.76,12.11,-4.07,1
4633,67.77,11.4,3.6,1
4634,67.785,11.38,-1.24,1
4635,67.8,-0.34,-1.11,1
4636,67.81,2.25,-6.95,1
4637,67.82,12.77,-3.13,1
4638,67.84,2.37,0.47,1
4639,67.85,1.53,7.92,1
4640,67.86,8.07,-10.79,1
4641,67.88,15.45,-11.34,1
4642,67.89,10.88,-4.13,1
4643,67.9,1.67,-8.98,1
4644,67.92,7.39,-11.27,1
4645,67.93,19.88,-1.8,1
4646,67.94,-3.48,0.47,1
4647,67.96,4.21,4.44,1
4648,67.97,-3.06,0.86,1
4649,67.98,16.8,-6.74,1
4650,68.0,-2.17,-3.89,1
4651,68.01,-4.16,3.85,1
4652,68.02,-9.24,4.82,1
4653,68.04,3.81,-2.97,1
4654,68.05,-8.95,16.03,1
4655,68.06,5.05,2.38,1
4656,68.08,-11.91,-1.08,1
4657,68.09,-0.42,-8.42,1
4658,68.11,-21.18,7.8,1
4659,68.12,-21.56,9.05,1
4660,68.13,-9.45,17.6,1
4661,68.14,-13.27,17.55,1
4662,68.16,12.17,-6.87,0
4663,68.17,-7.34,3.36,0
4664,68.18,6.96,-3.82,0
4665,68.2,7.09,-9.4,0
4666,68.21,-9.61,14.54,0
4667,68.22,-12.48,9.51,0
4668,68.24,18.33,-9.01,0
4669,68.25,11.8,-1.33,0
4670,68.26,-109.02,-11.89,0
4671,68.28,-143.22,-27.94,0
4672,68.29,-196.08,-26.51,0
4673,68.3,-220.67,-19.2,0
4674,68.32,-200.13,-34.1,0
4675,68.33,-162.2,-26.78,0
4676,68.34,-109.52,-17.32,0
4677,68.36,-64.45,-2.68,0
4678,68.37,-17.45,6.23,0
4679,68.38,54.46,14.52,0
4680,68.4,185.92,19.53,0
4681,68.41,261.83,17.41,0
4682,68.42,311.95,23.39,0
4683,68.44,311.41,17.09,0
4684,68.45,322.84,20.21,0
4685,68.46,266.3,19.33,0
4686,68.48,234.82,19.81,0
4687,68.49,194.67,12.52,0
4688,68.5,162.33,16.84,0
4689,68.52,128.37,23.27,0
4690,68.53,78.79,24.68,0
4691,68.54,47.33,1.0,0
4692,68.56,1.03,9.35,1
4693,68.57,-49.45,8.4,1
4694,68.58,-72.08,-10.7,1
4695,68.6,-48.4,-13.96,1
4696,68.61,-72.26,0.43,1
4697,68.62,-72.1,-27.82,1
4698,68.64,-83.87,-28.17,1
4699,68.65,-76.95,-16.75,1
4700,68.66,-86.49,7.02,1
4701,68.68,-90.66,-7.57,1
4702,68.69,-99.07,-4.39,1
4703,68.7,-87.77,13.36,1
4704,68.72,-102.93,-0.21,1
4705,68.73,-120.82,-1.05,1
4706,68.75,-89.57,-6.23,1
4707,68.76,-69.34,-18.25,1
4708,68.77,-94.21,-0.49,1
4709,68.79,-86.5,-6.83,1
4710,68.8,-73.59,-2.91,1
4711,68.81,-75.88,-11.66,1
4712,68.82,-76.8,4.96,1
4713,68.84,-63.21,-1.38,1
4714,68.85,-55.0,-11.05,1
4715,68.86,-51.86,-3.71,1
4716,68.88,-40.34,-3.87,1
4717,68.89,-46.11,12.31,1
4718,68.9,-50.45,3.02,1
4719,68.92,-14.71,3.51,1
4720,68.93,-34.95,9.22,1
4721,68.94,-20.63,-8.22,1
4722,68.96,-14.56,-4.1,1
4723,68.97,3.99,4.03,1
4724,68.98,6.25,5.23,1
4725,69.0,14.37,-16.4,1
4726,69.01,3.49,-5.81,1
4727,69.02,13.07,-7.52,1
4728,69.04,6.93,-10.98,1
4729,69.05,14.99,-2.78,1
4730,69.06,29.18,-5.8,1
4731,69.08,20.79,12.34,1
4732,69.09,27.75,8.97,1
4733,69.11,31.06,-2.63,1
4734,69.12,47.25,-6.86,1
4735,69.13,27.13,15.81,1
4736,69.14,43.69,8.38,1
4737,69.16,29.92,14.12,1
4738,69.17,49.29,-0.8,1
4739,69.18,37.56,6.98,1
4740,69.2,31.25,-0.46,1
4741,69.21,29.45,3.23,1
4742,69.22,38.51,-1.39,1
4743,69.24,48.11,11.08,1
4744,69.25,22.94,-22.68,1
4745,69.26,24.6,-15.54,1
4746,69.28,42.41,0.33,1
4747,69.29,24.63,-1.81,1
4748,69.3,24.01,-5.22,1
4749,69.32,41.18,7.93,1
4750,69.33,24.15,9.14,1
4751,69.34,37.88,3.71,1
4752,69.36,27.01,-16.24,1
4753,69.37,39.74,8.38,1
4754,69.38,13.62,8.93,1
4755,69.4,13.23,7.57,1
4756,69.41,9.01,-1.36,1
4757,69.43,14.27,19.14,1
4758,69.44,2.98,11.86,1
4759,69.45,2.26,-9.0,1
4760,69.46,0.93,-5.64,1
4761,69.48,2.1,-1.43,1
4762,69.49,1.45,10.12,1
4763,69.5,5.81,3.32,1
4764,69.52,4.03,-2.06,1
4765,69.53,14.23,-0.69,1
4766,69.54,-2.52,4.44,1
4767,69.56,-22.18,2.75,1
4768,69.57,-23.02,-9.37,1
4769,69.58,-3.07,4.33,1
4770,69.6,-26.02,-1.05,1
4771,69.61,-19.76,-5.43,1
4772,69.62,-21.51,7.21,1
4773,69.64,-9.26,1.17,1
4774,69.65,-6.91,-5.39,1
4775,69.66,-17.39,7.57,1
4776,69.68,-13.84,1.24,1
4777,69.69,-8.25,3.44,1
4778,69.7,-14.71,5.3,1
4779,69.72,-16.14,7.33,1
4780,69.73,4.28,-8.08,1
4781,69.75,-24.09,10.06,1
4782,69.76,-15.81,-7.41,1
4783,69.77,-8.84,-10.8,1
4784,69.79,11.97,-5.84,1
4785,69.8,-11.53,0.51,1
4786,69.81,-13.38,-6.91,1
4787,69.82,-14.38,0.25,1
4788,69.84,8.29,-10.87,1
4789,69.85,-5.79,0.29,1
4790,69.86,-9.2,-13.51,1
4791,69.88,-22.6,-3.94,1
4792,69.89,-0.7,-5.94,1
4793,69.9,-5.88,13.36,1
4794,69.92,-9.96,-5.72,1
4795,69.93,-19.92,-6.78,1
4796,69.94,10.57,0.58,1
4797,69.96,-4.36,10.15,1
4798,69.97,-1.91,-5.66,1
4799,69.98,-15.83,8.04,1
4800,70.0,-5.66,-7.7,1
4801,70.01,0.99,-5.83,1
4802,70.02,-9.53,-1.61,1
4803,70.04,12.55,4.44,1
4804,70.05,20.8,5.41,1
4805,70.06,3.18,-4.05,1
4806,70.08,-12.39,-12.88,1
4807,70.09,-9.22,-6.43,1
4808,70.11,-9.57,-10.81,1
4809,70.12,-1.89,-26.87,1
4810,70.13,-15.62,-13.36,1
4811,70.14,-2.73,36.16,1
4812,70.16,27.6,27.08,0
4813,70.17,1.92,10.55,0
4814,70.18,5.1,6.22,0
4815,70.2,27.6,-5.18,0
4816,70.21,-4.56,-11.43,0
4817,70.22,2.64,-8.93,0
4818,70.24,5.37,-14.94,0
4819,70.25,-9.36,-6.06,0
4820,70.26,-43.62,-19.42,0
4821,70.28,-134.72,3.46,0
4822,70.29,-185.8,-17.6,0
4823,70.3,-186.92,-6.67,0
4824,70.32,-181.19,-2.37,0
4825,70.33,-134.9,-2.43,0
