,Timestamp,Data1,Data2,Label
0,6.0,-22.23,7.36,1
1,6.01,-2.52,-4.43,1
2,6.03,15.13,-13.3,1
3,6.04,-24.26,-9.36,1
4,6.05,-2.38,13.35,1
5,6.07,20.3,-7.58,1
6,6.08,-9.06,7.17,1
7,6.09,3.83,-8.28,1
8,6.11,16.11,-21.82,1
9,6.12,-20.97,17.18,1
10,6.13,3.09,-4.05,1
11,6.15,14.95,-12.48,2
12,6.16,49.92,30.24,2
13,6.17,140.41,13.99,2
14,6.19,215.88,20.76,2
15,6.2,206.85,47.19,2
16,6.21,197.87,53.59,2
17,6.23,164.84,4.58,2
18,6.24,64.5,-14.63,2
19,6.25,9.56,-51.51,2
20,6.27,-51.34,-79.87,2
21,6.28,-133.15,-86.94,2
22,6.29,-201.36,-69.83,2
23,6.31,-210.65,-89.25,2
24,6.32,-233.7,-53.62,2
25,6.33,-214.07,-27.06,2
26,6.35,-170.45,1.18,2
27,6.36,-202.1,24.17,2
28,6.37,-153.04,22.36,2
29,6.39,-140.22,27.55,2
30,6.4,-140.31,31.72,2
31,6.41,-92.19,38.4,2
32,6.43,-70.62,53.16,2
33,6.44,-85.03,54.07,2
34,6.45,-48.62,41.17,2
35,6.47,-29.49,34.7,2
36,6.48,-39.75,38.51,2
37,6.49,3.96,40.97,2
38,6.51,32.57,25.83,2
39,6.52,25.13,33.39,2
40,6.53,59.73,22.26,2
41,6.55,74.64,14.01,2
42,6.56,62.38,8.26,1
43,6.57,57.69,-1.72,1
44,6.59,94.12,14.83,1
45,6.6,67.59,11.17,1
46,6.61,90.91,-9.1,1
47,6.63,96.65,-11.55,1
48,6.64,78.47,-21.54,1
49,6.65,101.23,-38.02,1
50,6.67,128.29,-34.47,1
51,6.68,86.44,-24.26,1
52,6.69,93.14,-18.08,1
53,6.71,82.11,-6.97,1
54,6.72,65.35,-5.35,1
55,6.73,64.55,-36.2,1
56,6.75,96.02,-19.15,1
57,6.76,56.23,-22.03,1
58,6.77,46.04,-21.85,1
59,6.79,70.52,1.65,1
60,6.8,32.39,-10.35,1
61,6.81,30.17,-7.66,1
62,6.83,22.87,-5.01,1
63,6.84,12.91,8.49,1
64,6.85,29.16,8.84,1
65,6.87,36.98,3.31,1
66,6.88,-12.12,-3.04,1
67,6.89,2.62,-15.5,1
68,6.91,10.8,-2.44,1
69,6.92,-34.55,-15.97,1
70,6.93,-17.18,-11.36,1
71,6.95,-0.72,-5.61,1
72,6.96,-27.15,-21.33,1
73,6.97,-29.59,-17.02,1
74,6.99,-25.93,4.02,1
75,7.0,-58.52,-9.09,1
76,7.01,-40.81,4.43,1
77,7.03,-3.03,13.48,1
78,7.04,-34.63,-1.92,1
79,7.05,-32.25,-1.14,1
80,7.07,-8.71,6.49,1
81,7.08,-44.7,2.48,1
82,7.09,-54.75,-4.76,1
83,7.11,-26.34,27.05,1
84,7.12,-67.25,6.93,1
85,7.13,-31.32,21.99,1
86,7.15,-17.76,15.82,1
87,7.16,-42.19,12.81,1
88,7.17,-45.59,8.74,1
89,7.19,-20.77,12.56,1
90,7.2,-65.88,9.04,1
91,7.21,-30.45,-0.98,1
92,7.23,2.45,5.48,1
93,7.24,-40.52,-1.12,1
94,7.25,-12.82,-3.95,1
95,7.27,-2.46,6.12,1
96,7.28,-27.35,-8.7,1
97,7.29,-7.58,7.66,1
98,7.31,14.32,13.76,1
99,7.32,-30.02,1.73,1
100,7.33,-6.65,19.73,1
101,7.35,15.69,14.13,1
102,7.36,-13.46,-20.36,1
103,7.37,2.2,-13.06,1
104,7.39,5.47,18.89,1
105,7.4,-20.17,-21.41,1
106,7.41,10.25,18.87,1
107,7.43,25.73,22.39,1
108,7.44,-7.96,-21.26,1
109,7.45,10.87,-0.52,1
110,7.47,6.9,9.21,1
111,7.48,1.69,-3.23,1
112,7.49,-2.02,3.42,1
113,7.51,20.09,20.9,1
114,7.52,-1.32,-10.05,1
115,7.53,6.51,1.24,1
116,7.55,10.75,12.19,1
117,7.56,-3.36,-9.69,1
118,7.57,3.1,6.11,1
119,7.59,13.62,10.61,1
120,7.6,-6.72,-9.28,1
121,7.61,17.91,7.81,1
122,7.63,23.15,-7.51,1
123,7.64,-3.69,-28.26,1
124,7.65,12.43,6.18,1
125,7.67,22.95,9.05,1
126,7.68,11.74,-28.34,1
127,7.69,11.9,5.24,1
128,7.71,17.19,10.87,1
129,7.72,-19.78,-6.04,1
130,7.73,14.3,-0.66,1
131,7.75,35.36,7.78,1
132,7.76,-6.81,-31.53,1
133,7.77,2.05,13.16,1
134,7.79,37.37,3.06,1
135,7.8,-9.81,-41.72,1
136,7.81,-3.18,-9.71,1
137,7.83,11.28,15.32,1
138,7.84,-11.22,-31.99,1
139,7.85,20.13,5.5,1
140,7.87,27.71,15.04,1
141,7.88,-14.88,-16.85,1
142,7.89,9.86,3.23,1
143,7.91,6.04,9.97,1
144,7.92,-9.43,-24.5,1
145,7.93,7.19,2.84,1
146,7.95,4.96,3.08,1
147,7.96,-35.75,-13.71,1
148,7.97,-2.54,15.82,1
149,7.99,16.04,16.17,1
150,8.0,-6.17,-17.35,1
151,8.01,-8.44,10.24,1
152,8.03,16.88,2.93,1
153,8.04,-26.54,-24.44,1
154,8.05,2.06,7.38,1
155,8.07,24.97,23.61,1
156,8.08,-41.13,-38.11,1
157,8.09,1.31,10.84,1
158,8.11,10.02,24.15,1
159,8.12,-14.15,-3.54,1
160,8.13,10.55,17.11,1
161,8.15,24.69,12.56,0
162,8.16,-24.61,10.43,0
163,8.17,-17.43,39.28,0
164,8.19,-122.73,-0.6,0
165,8.2,-206.57,-5.38,0
166,8.21,-226.61,-0.44,0
167,8.23,-205.97,25.84,0
168,8.24,-170.26,-24.19,0
169,8.25,-134.89,1.43,0
170,8.27,-79.8,-28.49,0
171,8.28,-27.15,-56.67,0
172,8.29,-7.56,-42.98,0
173,8.31,35.27,-44.0,0
174,8.32,91.5,-50.79,0
175,8.33,236.32,2.82,0
176,8.35,315.41,22.15,0
177,8.36,305.19,16.18,0
178,8.37,326.35,36.57,0
179,8.39,316.27,35.15,0
180,8.4,253.19,10.15,0
181,8.41,245.98,12.64,0
182,8.43,196.98,27.67,0
183,8.44,124.51,25.58,0
184,8.45,98.59,34.64,0
185,8.47,71.84,33.75,0
186,8.48,22.86,13.35,0
187,8.49,6.5,34.0,0
188,8.51,-9.78,26.44,0
189,8.52,-52.56,2.91,0
190,8.53,-69.03,15.58,0
191,8.55,-75.73,-0.28,1
192,8.56,-105.04,-25.9,1
193,8.57,-100.47,8.32,1
194,8.59,-115.74,16.4,1
195,8.6,-128.57,-11.81,1
196,8.61,-128.18,-11.68,1
197,8.63,-105.25,1.76,1
198,8.64,-139.86,-28.1,1
199,8.65,-117.43,11.16,1
200,8.67,-84.28,-10.67,1
201,8.68,-112.45,-53.31,1
202,8.69,-112.23,-15.72,1
203,8.71,-91.96,-3.08,1
204,8.72,-104.49,-43.25,1
205,8.73,-81.29,-13.36,1
206,8.75,-67.92,-10.38,1
207,8.76,-94.05,-37.15,1
208,8.77,-53.17,-11.54,1
209,8.79,-43.83,6.44,1
210,8.8,-71.76,-36.76,1
211,8.81,-39.93,-0.74,1
212,8.83,-29.29,-0.05,1
213,8.84,-53.69,-0.28,1
214,8.85,-32.5,9.74,1
215,8.87,0.72,-12.26,1
216,8.88,-19.67,-34.64,1
217,8.89,12.66,4.02,1
218,8.91,12.34,-0.84,1
219,8.92,-5.36,-19.07,1
220,8.93,14.7,21.59,1
221,8.95,27.21,17.84,1
222,8.96,2.7,9.06,1
223,8.97,26.75,26.63,1
224,8.99,45.62,9.63,1
225,9.0,30.8,-8.16,1
226,9.01,43.41,23.95,1
227,9.03,45.49,-0.4,1
228,9.04,24.26,-0.8,1
229,9.05,46.53,32.12,1
230,9.07,38.34,15.9,1
231,9.08,41.81,-18.83,1
232,9.09,46.27,11.72,1
233,9.11,40.01,20.29,1
234,9.12,44.61,-16.32,1
235,9.13,53.86,17.22,1
236,9.15,38.17,2.54,1
237,9.16,26.57,-19.48,1
238,9.17,36.28,19.74,1
239,9.19,38.19,2.34,1
240,9.2,18.16,-16.88,1
241,9.21,43.36,11.37,1
242,9.23,32.42,14.87,1
243,9.24,23.67,0.31,1
244,9.25,25.25,6.0,1
245,9.27,51.54,13.18,1
246,9.28,1.88,-15.38,1
247,9.29,25.04,10.22,1
248,9.31,32.78,1.46,1
249,9.32,3.54,-10.12,1
250,9.33,4.09,4.57,1
251,9.35,0.1,-0.6,1
252,9.36,-2.96,-26.97,1
253,9.37,-6.7,12.61,1
254,9.39,14.49,-10.76,1
255,9.4,-2.52,-14.83,1
256,9.41,12.68,1.43,1
257,9.43,7.69,-7.2,1
258,9.44,-3.72,-12.18,1
259,9.45,9.39,0.18,1
260,9.47,-1.92,12.82,1
261,9.48,3.14,2.07,1
262,9.49,0.37,15.93,1
263,9.51,4.48,15.41,1
264,9.52,-17.33,-12.05,1
265,9.53,-2.79,1.1,1
266,9.55,9.13,-2.13,1
267,9.56,-26.67,-12.44,1
268,9.57,-16.38,-4.34,1
269,9.59,-16.94,-2.85,1
270,9.6,-5.15,16.04,1
271,9.61,-21.37,11.75,1
272,9.63,6.35,-7.5,1
273,9.64,-34.78,-0.63,1
274,9.65,-24.66,7.59,1
275,9.67,-20.61,-5.89,1
276,9.68,-21.68,2.43,1
277,9.69,-27.24,8.6,1
278,9.71,-12.39,8.29,1
279,9.72,-14.54,-22.0,1
280,9.73,-3.51,-17.76,1
281,9.75,16.98,-7.42,1
282,9.76,-12.19,6.08,1
283,9.77,-13.39,5.55,1
284,9.79,-6.11,-4.2,1
285,9.8,-16.51,-2.83,1
286,9.81,-26.9,-7.6,1
287,9.83,-1.98,6.22,1
288,9.84,-12.89,-0.04,1
289,9.85,-13.54,-3.67,1
290,9.87,2.4,5.3,1
291,9.88,1.39,6.85,1
292,9.89,2.2,26.98,1
293,9.91,5.27,-3.35,1
294,9.92,1.78,15.41,1
295,9.93,-3.84,12.49,1
296,9.95,-15.8,0.32,1
297,9.96,1.21,-1.49,1
298,9.97,8.7,-22.46,1
299,9.99,10.98,-29.66,1
300,10.0,2.44,-16.62,1
301,10.01,-16.87,-26.37,1
302,10.03,0.12,-1.09,1
303,10.04,-18.02,5.02,1
304,10.05,3.84,-0.78,1
305,10.07,6.04,2.44,1
306,10.08,0.93,15.86,1
307,10.09,6.75,6.08,1
308,10.11,17.38,-17.26,1
309,10.12,13.5,28.27,1
310,10.13,7.56,-1.85,1
311,10.15,6.49,-12.46,0
312,10.16,10.8,0.97,0
313,10.17,-1.39,-2.84,0
314,10.19,-43.19,27.51,0
315,10.2,-113.37,-29.59,0
316,10.21,-182.31,-3.92,0
317,10.23,-237.23,6.05,0
318,10.24,-210.19,55.34,0
319,10.25,-166.66,-2.53,0
320,10.27,-86.06,-29.53,0
321,10.28,0.05,-55.61,0
322,10.29,62.9,-57.95,0
323,10.31,101.53,-32.6,0
324,10.32,163.92,-24.79,0
325,10.33,182.43,-26.35,0
326,10.35,213.17,11.19,0
327,10.36,225.22,25.14,0
328,10.37,186.57,35.92,0
329,10.39,210.12,29.97,0
330,10.4,161.24,38.03,0
331,10.41,141.88,25.22,0
332,10.43,144.08,34.68,0
333,10.44,116.55,48.39,0
334,10.45,96.95,19.18,0
335,10.47,89.82,32.59,0
336,10.48,51.21,51.8,0
337,10.49,34.74,10.32,0
338,10.51,8.58,12.19,0
339,10.52,-5.01,24.12,0
340,10.53,-21.6,-13.0,0
341,10.55,-48.12,0.17,1
342,10.56,-54.34,3.04,1
343,10.57,-76.59,-19.33,1
344,10.59,-75.02,-13.05,1
345,10.6,-58.9,11.33,1
346,10.61,-70.13,6.18,1
347,10.63,-83.21,-10.88,1
348,10.64,-68.88,2.25,1
349,10.65,-82.53,-30.99,1
350,10.67,-84.55,20.56,1
351,10.68,-68.02,20.25,1
352,10.69,-97.0,-33.67,1
353,10.71,-87.31,-4.0,1
354,10.72,-84.73,-16.51,1
355,10.73,-81.57,-35.71,1
356,10.75,-91.64,-3.2,1
357,10.76,-82.21,-13.37,1
358,10.77,-102.64,-6.87,1
359,10.79,-83.42,-12.07,1
360,10.8,-70.84,-16.54,1
361,10.81,-63.57,-30.56,1
362,10.83,-38.5,-3.65,1
363,10.84,-19.49,-19.54,1
364,10.85,-35.33,-38.04,1
365,10.87,-20.68,3.64,1
366,10.88,17.59,-12.76,1
367,10.89,-0.99,-31.22,1
368,10.91,-3.08,-3.15,1
369,10.92,10.27,-5.21,1
370,10.93,8.45,-33.27,1
371,10.95,-11.0,-1.03,1
372,10.96,8.74,-6.78,1
373,10.97,6.3,-25.93,1
374,10.99,21.23,-6.86,1
375,11.0,21.59,10.51,1
376,11.01,6.51,-22.12,1
377,11.03,18.42,28.52,1
378,11.04,44.58,26.88,1
379,11.05,24.12,-18.74,1
380,11.07,13.14,3.74,1
381,11.08,54.42,-7.18,1
382,11.09,56.38,-2.34,1
383,11.11,38.58,15.38,1
384,11.12,59.02,2.44,1
385,11.13,16.88,-7.04,1
386,11.15,36.21,11.38,1
387,11.16,40.72,26.56,1
388,11.17,46.5,-10.1,1
389,11.19,27.87,16.89,1
390,11.2,40.58,38.2,1
391,11.21,27.8,-1.81,1
392,11.23,26.13,20.73,1
393,11.24,46.4,21.57,1
394,11.25,10.38,-23.41,1
395,11.27,3.63,11.82,1
396,11.28,30.18,38.37,1
397,11.29,10.98,-4.28,1
398,11.31,11.94,29.03,1
399,11.32,24.83,28.36,1
400,11.33,-0.09,-26.16,1
401,11.35,7.61,38.3,1
402,11.36,13.03,3.47,1
403,11.37,6.87,-33.85,1
404,11.39,-3.49,15.34,1
405,11.4,30.74,28.38,1
406,11.41,-2.28,1.45,1
407,11.43,-8.07,4.92,1
408,11.44,16.17,4.72,1
409,11.45,-12.37,-15.59,1
410,11.47,-7.34,0.51,1
411,11.48,4.83,9.71,1
412,11.49,-17.63,-4.67,1
413,11.51,-9.43,17.83,1
414,11.52,-3.76,-0.2,1
415,11.53,-8.23,-38.94,1
416,11.55,-13.59,13.61,1
417,11.56,9.93,2.94,1
418,11.57,-11.21,-10.65,1
419,11.59,-28.04,-5.68,1
420,11.6,-14.83,-0.8,1
421,11.61,-13.83,-20.86,1
422,11.63,-25.25,12.56,1
423,11.64,-3.55,8.53,1
424,11.65,-26.85,-17.97,1
425,11.67,-9.77,15.58,1
426,11.68,13.96,8.71,1
427,11.69,-11.18,-25.44,1
428,11.71,-8.3,9.81,1
429,11.72,0.93,15.44,1
430,11.73,-22.44,-19.4,1
431,11.75,1.16,1.03,1
432,11.76,-15.73,4.2,1
433,11.77,-16.44,-30.84,1
434,11.79,-15.11,21.28,1
435,11.8,8.1,-3.34,1
436,11.81,-6.49,-32.66,1
437,11.83,-6.73,13.2,1
438,11.84,25.65,-10.21,1
439,11.85,-23.3,-25.31,1
440,11.87,-1.69,-10.74,1
441,11.88,17.01,15.86,1
442,11.89,-10.14,-19.17,1
443,11.91,17.7,-6.44,1
444,11.92,24.91,1.35,1
445,11.93,-10.09,-21.1,1
446,11.95,-4.38,10.91,1
447,11.96,15.3,19.93,1
448,11.97,-19.66,-11.81,1
449,11.99,-0.97,7.6,1
450,12.0,7.62,3.22,1
451,12.01,-21.49,-21.85,1
452,12.03,-19.63,0.44,1
453,12.04,-1.29,15.2,1
454,12.05,-19.84,-6.7,1
455,12.07,-3.6,11.01,1
456,12.08,23.61,-0.46,1
457,12.09,-7.44,9.86,1
458,12.11,10.19,20.75,1
459,12.12,33.0,-1.28,1
460,12.13,-16.24,-15.53,1
461,12.15,-4.72,8.27,2
462,12.16,19.84,5.17,2
463,12.17,-16.67,4.43,2
464,12.19,7.82,16.17,2
465,12.2,124.18,4.63,2
466,12.21,175.23,6.11,2
467,12.23,224.92,25.44,2
468,12.24,238.32,31.84,2
469,12.25,178.43,27.49,2
470,12.27,119.29,52.3,2
471,12.28,91.06,21.73,2
472,12.29,35.05,-7.78,2
473,12.31,-11.3,-3.18,2
474,12.32,-25.36,-28.03,2
475,12.33,-80.74,-51.6,2
476,12.35,-221.81,-39.01,2
477,12.36,-278.16,-43.6,2
478,12.37,-326.59,-60.79,2
479,12.39,-325.88,-32.47,2
480,12.4,-293.92,-36.05,2
481,12.41,-286.49,-51.45,2
482,12.43,-238.4,-24.1,2
483,12.44,-187.65,-16.8,2
484,12.45,-169.04,-11.42,2
485,12.47,-124.09,10.17,2
486,12.48,-57.74,-1.78,2
487,12.49,-62.48,4.52,2
488,12.51,-32.99,19.6,2
489,12.52,21.83,18.57,2
490,12.53,69.85,16.11,2
491,12.55,79.34,33.32,1
492,12.56,107.74,-3.28,1
493,12.57,63.91,4.93,1
494,12.59,106.55,7.26,1
495,12.6,112.1,12.28,1
496,12.61,88.0,6.9,1
497,12.63,99.93,23.89,1
498,12.64,114.83,6.61,1
499,12.65,99.48,6.37,1
500,12.67,112.09,4.04,1
501,12.68,144.36,19.69,1
502,12.69,108.25,22.25,1
503,12.71,100.87,34.81,1
504,12.72,127.84,4.53,1
505,12.73,93.18,2.11,1
506,12.75,107.89,16.96,1
507,12.76,97.48,17.05,1
508,12.77,71.24,3.48,1
509,12.79,64.68,17.95,1
510,12.8,76.41,8.17,1
511,12.81,48.26,2.01,1
512,12.83,51.35,13.5,1
513,12.84,75.61,6.52,1
514,12.85,20.63,5.97,1
515,12.87,3.53,9.97,1
516,12.88,25.24,0.5,1
517,12.89,-2.51,-15.27,1
518,12.91,12.02,-9.06,1
519,12.92,23.08,-16.38,1
520,12.93,-8.07,-1.7,1
521,12.95,-7.38,6.61,1
522,12.96,18.52,-6.05,1
523,12.97,-33.21,-5.95,1
524,12.99,-32.86,7.08,1
525,13.0,-6.7,-21.81,1
526,13.01,-37.39,-13.36,1
527,13.03,-25.17,-6.42,1
528,13.04,-13.55,-2.0,1
529,13.05,-40.02,-4.56,1
530,13.07,-58.84,-1.59,1
531,13.08,-48.68,-6.83,1
532,13.09,-58.26,2.18,1
533,13.11,-54.47,-6.66,1
534,13.12,-17.96,-12.61,1
535,13.13,-59.36,-3.9,1
536,13.15,-55.77,-17.35,1
537,13.16,-38.4,-0.3,1
538,13.17,-73.04,-17.05,1
539,13.19,-50.34,-9.0,1
540,13.2,-21.2,14.6,1
541,13.21,-51.74,-16.63,1
542,13.23,-35.66,-2.97,1
543,13.24,-28.18,20.06,1
544,13.25,-37.92,7.04,1
545,13.27,-27.34,-13.58,1
546,13.28,-15.21,-19.72,1
547,13.29,-33.25,-10.09,1
548,13.31,-16.14,5.09,1
549,13.32,-9.05,-11.9,1
550,13.33,-33.09,-1.82,1
551,13.35,-11.17,2.78,1
552,13.36,0.04,-2.63,1
553,13.37,-27.02,14.86,1
554,13.39,-11.62,-5.92,1
555,13.4,22.43,-6.04,1
556,13.41,10.97,-0.35,1
557,13.43,1.97,18.62,1
558,13.44,19.92,4.64,1
559,13.45,-18.71,17.68,1
560,13.47,-14.04,-4.15,1
561,13.48,2.53,11.87,1
562,13.49,-16.16,21.58,1
563,13.51,-3.19,-4.37,1
564,13.52,4.41,6.93,1
565,13.53,-6.26,1.21,1
566,13.55,10.74,-17.68,1
567,13.56,34.47,-10.31,1
568,13.57,12.12,-2.99,1
569,13.59,23.34,-17.26,1
570,13.6,34.74,10.28,1
571,13.61,5.15,2.86,1
572,13.63,6.09,-6.84,1
573,13.64,31.17,-6.22,1
574,13.65,7.21,23.35,1
575,13.67,8.62,-7.57,1
576,13.68,19.85,-0.41,1
577,13.69,-5.04,7.55,1
578,13.71,10.05,-8.15,1
579,13.72,34.56,9.7,1
580,13.73,-1.17,2.47,1
581,13.75,21.55,-22.52,1
582,13.76,31.2,7.31,1
583,13.77,-0.32,7.03,1
584,13.79,12.06,-10.14,1
585,13.8,19.44,22.31,1
586,13.81,-4.74,19.71,1
587,13.83,9.39,-27.13,1
588,13.84,21.93,3.31,1
589,13.85,-15.33,2.58,1
590,13.87,1.86,-9.43,1
591,13.88,45.78,7.61,1
592,13.89,-3.04,-0.66,1
593,13.91,-9.55,-16.37,1
594,13.92,3.0,15.63,1
595,13.93,-6.19,-5.51,1
596,13.95,-4.37,-27.16,1
597,13.96,11.98,-13.49,1
598,13.97,-13.17,20.45,1
599,13.99,-2.59,-14.43,1
600,14.0,10.05,27.97,1
601,14.01,-30.59,20.23,1
602,14.03,0.04,-12.28,1
603,14.04,2.45,6.76,1
604,14.05,-17.56,13.67,1
605,14.07,5.13,-15.11,1
606,14.08,14.63,7.82,1
607,14.09,-11.41,77.15,1
608,14.11,19.66,68.14,1
609,14.12,106.45,99.76,1
610,14.13,-306.81,251.63,1
611,14.15,-190.41,241.19,1
612,14.16,400.64,101.93,1
613,14.17,-47.22,130.21,1
614,14.19,128.18,-26.61,1
615,14.2,-398.39,-319.55,1
616,14.21,-199.73,-17.01,1
617,14.23,-282.08,-229.15,1
618,14.24,-162.95,306.85,1
619,14.25,-81.58,39.89,1
620,14.27,212.7,105.51,1
621,14.28,-159.13,29.28,1
622,14.29,19.32,-14.14,1
623,14.31,69.11,-46.67,1
624,14.32,-6.55,-62.07,1
625,14.33,105.23,-98.18,1
626,14.35,359.61,-109.62,1
627,14.36,50.21,-107.24,1
628,14.37,235.02,-140.02,1
629,14.39,166.06,-136.55,1
630,14.4,222.25,-124.93,1
631,14.41,15.39,-147.42,1
632,14.43,440.86,-139.88,1
633,14.44,-205.17,-122.51,1
634,14.45,-40.85,-183.77,1
635,14.47,-100.94,-293.48,1
636,14.48,191.27,-191.69,1
637,14.49,128.04,-211.73,1
638,14.51,-107.75,-429.4,1
639,14.52,288.49,-56.66,1
640,14.53,141.42,-199.8,1
641,14.55,180.84,-73.6,1
642,14.56,-209.96,-277.86,1
643,14.57,-190.26,355.1,1
644,14.59,-92.75,-121.09,1
645,14.6,247.67,78.24,1
646,14.61,162.46,294.71,1
647,14.63,0.35,8.59,1
648,14.64,312.53,226.27,1
649,14.65,-315.83,16.37,1
650,14.67,-212.21,115.49,1
651,14.68,319.37,338.04,1
652,14.69,73.45,-228.91,1
653,14.71,-438.39,181.13,1
654,14.72,217.56,421.06,1
655,14.73,-535.51,-151.37,1
656,14.75,-303.0,59.88,1
657,14.76,54.45,501.62,1
658,14.77,-33.71,263.4,1
659,14.79,-318.41,310.42,1
660,14.8,207.97,421.66,1
661,14.81,-535.48,112.45,1
662,14.83,12.88,-144.42,1
663,14.84,-254.98,-87.93,1
664,14.85,-333.06,-11.13,1
665,14.87,-195.51,-22.27,1
666,14.88,19.02,-50.51,1
667,14.89,19.8,-245.57,1
668,14.91,140.1,-404.86,1
669,14.92,204.52,-227.87,1
670,14.93,277.95,-208.67,1
671,14.95,283.16,-114.83,1
672,14.96,178.94,-36.44,1
673,14.97,74.31,-0.73,1
674,14.99,2.68,44.02,1
675,15.0,-43.92,102.44,1
676,15.01,-112.36,109.84,1
677,15.03,-119.99,133.65,1
678,15.04,-127.61,172.97,1
679,15.05,-113.24,198.21,1
680,15.07,-111.55,289.2,1
681,15.08,-104.76,353.66,1
682,15.09,-94.18,367.43,1
683,15.11,-74.01,313.2,1
684,15.12,-45.71,314.69,1
685,15.13,-29.3,259.04,1
686,15.15,-24.7,192.94,1
687,15.16,11.22,162.6,1
688,15.17,-9.36,113.22,1
689,15.19,19.16,32.75,1
690,15.2,20.74,29.86,1
691,15.21,13.69,2.13,1
692,15.23,34.5,-41.78,1
693,15.24,47.63,-69.6,1
694,15.25,35.22,-107.18,1
695,15.27,78.56,-139.61,1
696,15.28,73.99,-141.11,1
697,15.29,66.33,-152.82,1
698,15.31,75.75,-183.75,1
699,15.32,70.71,-164.58,1
700,15.33,63.41,-186.93,1
701,15.35,71.99,-206.88,1
702,15.36,76.74,-189.34,1
703,15.37,54.11,-189.81,1
704,15.39,69.93,-204.54,1
705,15.4,77.22,-179.01,1
706,15.41,66.58,-183.6,1
707,15.43,63.77,-191.4,1
708,15.44,57.7,-170.37,1
709,15.45,40.08,-173.38,1
710,15.47,59.48,-180.26,1
711,15.48,35.09,-133.17,1
712,15.49,23.68,-127.61,1
713,15.51,26.57,-130.52,1
714,15.52,32.29,-92.63,1
715,15.53,14.45,-108.91,1
716,15.55,26.37,-90.12,1
717,15.56,22.35,-54.93,1
718,15.57,8.59,-59.36,1
719,15.59,11.69,-55.24,1
720,15.6,9.38,-25.42,1
721,15.61,9.51,-27.93,1
722,15.63,-3.99,-29.97,1
723,15.64,0.21,7.13,1
724,15.65,-15.33,24.27,1
725,15.67,2.39,17.56,1
726,15.68,-11.71,33.14,1
727,15.69,-18.97,32.66,1
728,15.71,-15.4,55.51,1
729,15.72,-7.38,59.65,1
730,15.73,-23.72,53.62,1
731,15.75,-34.28,40.19,1
732,15.76,-23.4,69.45,1
733,15.77,-13.08,80.46,1
734,15.79,-40.45,59.53,1
735,15.8,-31.28,78.08,1
736,15.81,-27.57,76.04,1
737,15.83,-30.23,55.43,1
738,15.84,-16.19,71.53,1
739,15.85,-23.15,77.26,1
740,15.87,-24.52,81.01,1
741,15.88,-17.96,80.65,1
742,15.89,-13.21,67.58,1
743,15.91,-39.38,77.99,1
744,15.92,-25.3,76.21,1
745,15.93,-32.22,60.31,1
746,15.95,-41.41,57.08,1
747,15.96,-26.8,65.68,1
748,15.97,-24.98,40.37,1
749,15.99,-29.42,44.26,1
750,16.0,-11.36,56.54,1
751,16.01,-23.43,55.94,1
752,16.03,-21.54,34.97,1
753,16.04,-16.55,57.82,1
754,16.05,-12.3,35.64,1
755,16.07,-0.46,35.25,1
756,16.08,6.33,41.57,1
757,16.09,0.96,16.56,1
758,16.11,1.23,6.28,1
759,16.12,15.57,14.66,1
760,16.13,1.86,9.36,1
761,16.15,-9.76,10.3,1
762,16.16,4.08,25.43,2
763,16.17,104.97,19.76,2
764,16.19,187.8,25.13,2
765,16.2,231.04,4.17,2
766,16.21,217.77,-32.34,2
767,16.23,153.26,-20.03,2
768,16.24,91.31,-38.48,2
769,16.25,13.84,-47.73,2
770,16.27,-52.38,-44.14,2
771,16.28,-79.35,-64.28,2
772,16.29,-122.11,-46.24,2
773,16.31,-156.08,-41.98,2
774,16.32,-168.22,-33.21,2
775,16.33,-184.23,-19.33,2
776,16.35,-182.44,4.22,2
777,16.36,-177.53,-5.76,2
778,16.37,-160.41,8.01,2
779,16.39,-146.29,21.98,2
780,16.4,-132.72,-26.82,2
781,16.41,-112.36,1.71,2
782,16.42,-98.56,34.03,2
783,16.44,-76.34,-10.97,2
784,16.45,-48.78,-10.73,2
785,16.47,-43.0,5.6,2
786,16.48,-15.15,-1.2,2
787,16.49,-1.22,-1.7,2
788,16.51,3.65,-11.05,2
789,16.52,45.9,-24.22,2
790,16.53,45.22,-24.46,2
791,16.55,54.54,4.06,1
792,16.56,52.15,-44.14,1
793,16.57,83.49,-10.32,1
794,16.59,96.82,-7.62,1
795,16.6,99.83,-35.52,1
796,16.61,88.37,-15.53,1
797,16.63,81.28,4.93,1
798,16.64,67.5,-44.21,1
799,16.65,101.0,-5.38,1
800,16.67,72.59,-8.49,1
801,16.68,92.77,-47.7,1
802,16.69,81.88,-17.02,1
803,16.71,92.92,5.38,1
804,16.72,92.74,-41.57,1
805,16.73,76.91,-4.69,1
806,16.75,71.31,1.49,1
807,16.76,61.62,-29.14,1
808,16.77,47.93,15.84,1
809,16.79,41.98,28.35,1
810,16.8,49.04,-24.59,1
811,16.81,39.51,-1.33,1
812,16.83,33.64,7.93,1
813,16.84,25.7,-19.82,1
814,16.85,25.54,23.94,1
815,16.87,-2.69,20.26,1
816,16.88,49.74,2.22,1
817,16.89,6.43,34.77,1
818,16.91,-1.61,27.89,1
819,16.92,-14.0,-37.0,1
820,16.93,-12.43,9.36,1
821,16.95,-47.17,13.56,1
822,16.96,-7.52,-29.03,1
823,16.97,-17.37,-12.37,1
824,16.99,-59.02,6.55,1
825,17.0,-29.63,-23.82,1
826,17.01,-31.06,14.05,1
827,17.03,-25.93,39.08,1
828,17.04,-44.24,-14.28,1
829,17.05,-41.87,-6.17,1
830,17.06,-59.25,10.42,1
831,17.08,-29.69,-14.87,1
832,17.09,-30.54,3.69,1
833,17.11,-45.95,18.27,1
834,17.12,-36.04,-13.77,1
835,17.13,-28.32,39.16,1
836,17.15,-37.65,27.64,1
837,17.16,-23.01,-25.42,1
838,17.17,-23.58,28.43,1
839,17.19,-47.16,41.11,1
840,17.2,-21.85,-10.38,1
841,17.21,-22.94,30.24,1
842,17.23,-25.19,40.31,1
843,17.24,-27.72,-2.18,1
844,17.25,-10.84,13.43,1
845,17.27,-25.12,22.31,1
846,17.28,-10.21,-11.78,1
847,17.29,-10.44,19.27,1
848,17.31,-6.35,15.56,1
849,17.32,4.05,-15.48,1
850,17.33,3.74,24.18,1
851,17.35,-6.59,23.96,1
852,17.36,-18.17,-14.42,1
853,17.37,-1.84,-1.55,1
854,17.39,-6.93,9.2,1
855,17.4,-11.18,-47.32,1
856,17.41,13.62,-4.04,1
857,17.43,5.85,17.84,1
858,17.44,9.25,-41.86,1
859,17.45,16.32,4.81,1
860,17.47,-18.08,25.63,1
861,17.48,8.37,-41.68,1
862,17.49,19.97,3.7,1
863,17.51,2.63,4.71,1
864,17.52,-14.9,-47.57,1
865,17.53,-0.48,-4.29,1
866,17.55,-9.78,9.59,1
867,17.56,-1.65,-29.5,1
868,17.57,23.13,-13.56,1
869,17.59,-0.47,16.3,1
870,17.6,21.66,-14.36,1
871,17.61,22.96,16.0,1
872,17.63,-1.44,9.24,1
873,17.64,3.51,-35.19,1
874,17.65,24.86,2.67,1
875,17.67,18.39,8.76,1
876,17.68,4.27,-15.52,1
877,17.69,25.6,14.2,1
878,17.7,16.29,11.33,1
879,17.72,12.08,-34.55,1
880,17.73,33.81,-1.72,1
881,17.75,0.36,29.06,1
882,17.76,-11.05,-14.11,1
883,17.77,10.41,6.78,1
884,17.79,14.29,11.92,1
885,17.8,9.14,-24.06,1
886,17.81,10.05,3.85,1
887,17.83,-0.59,24.12,1
888,17.84,-4.33,-26.51,1
889,17.85,19.7,12.31,1
890,17.87,-4.4,4.51,1
891,17.88,-4.39,-24.71,1
892,17.89,7.81,15.58,1
893,17.91,-2.93,17.86,1
894,17.92,-17.51,-22.92,1
895,17.93,26.19,1.82,1
896,17.95,-8.08,33.11,1
897,17.96,-8.93,-20.02,1
898,17.97,17.4,9.81,1
899,17.99,-19.57,7.81,1
900,18.0,-1.05,-21.01,1
901,18.01,2.12,10.65,1
902,18.03,-37.45,30.43,1
903,18.04,-34.66,-38.94,1
904,18.05,-101.52,19.32,1
905,18.07,-145.12,15.18,1
906,18.08,-154.82,-23.32,1
907,18.09,-140.01,16.42,1
908,18.11,-187.8,8.91,1
909,18.12,-138.53,-20.37,1
910,18.13,-103.96,-10.62,1
911,18.15,-89.37,-2.33,1
912,18.16,-47.42,-38.89,0
913,18.17,6.44,-36.36,0
914,18.19,37.81,-28.55,0
915,18.2,145.27,-27.44,0
916,18.21,259.3,5.01,0
917,18.23,284.94,30.68,0
918,18.24,316.43,1.47,0
919,18.25,320.36,14.36,0
920,18.27,268.72,27.96,0
921,18.28,238.3,3.64,0
922,18.29,220.02,33.08,0
923,18.31,139.76,39.17,0
924,18.32,117.98,11.18,0
925,18.33,106.04,38.56,0
926,18.34,65.93,41.29,0
927,18.36,20.07,-13.23,0
928,18.37,12.97,14.67,0
929,18.39,-33.85,21.61,0
930,18.4,-72.23,-15.28,0
931,18.41,-91.9,13.62,0
932,18.43,-102.44,-5.36,0
933,18.44,-85.72,-8.01,0
934,18.45,-71.74,3.55,0
935,18.47,-113.54,3.57,0
936,18.48,-95.7,-25.98,0
937,18.49,-85.62,-10.67,0
938,18.51,-106.22,-13.84,0
939,18.52,-93.25,-19.55,0
940,18.53,-79.54,-1.57,0
941,18.55,-115.12,-7.85,1
942,18.56,-107.69,-5.52,1
943,18.57,-100.18,-1.08,1
944,18.59,-110.17,-11.81,1
945,18.6,-96.36,-25.89,1
946,18.61,-60.65,1.15,1
947,18.63,-102.63,-2.67,1
948,18.64,-79.48,-16.01,1
949,18.65,-65.64,-5.01,1
950,18.67,-82.87,1.45,1
951,18.68,-59.34,-1.81,1
952,18.69,-47.3,-17.8,1
953,18.71,-52.73,1.44,1
954,18.72,-24.13,-0.38,1
955,18.73,-19.35,-15.03,1
956,18.75,-29.47,-15.73,1
957,18.76,-1.02,5.84,1
958,18.77,11.37,-1.59,1
959,18.79,-17.76,8.69,1
960,18.8,-1.94,-11.57,1
961,18.81,38.63,3.93,1
962,18.83,-10.73,3.34,1
963,18.84,33.35,-8.9,1
964,18.85,32.7,-3.73,1
965,18.87,19.85,12.61,1
966,18.88,21.27,7.4,1
967,18.89,38.98,-0.46,1
968,18.91,22.18,-0.64,1
969,18.92,31.38,7.61,1
970,18.93,51.17,8.65,1
971,18.95,40.27,13.13,1
972,18.96,46.83,-0.99,1
973,18.97,64.0,18.78,1
974,18.98,32.65,8.35,1
975,19.0,35.1,19.47,1
976,19.01,56.82,-5.06,1
977,19.02,22.19,-2.21,1
978,19.04,41.11,4.92,1
979,19.05,59.9,-3.57,1
980,19.07,36.95,20.37,1
981,19.08,38.29,11.83,1
982,19.09,54.61,-9.72,1
983,19.11,23.81,-18.95,1
984,19.12,35.4,-6.17,1
985,19.13,41.13,1.23,1
986,19.15,3.08,3.82,1
987,19.16,22.83,-9.99,1
988,19.17,42.6,4.56,1
989,19.19,-12.8,-7.62,1
990,19.2,13.45,8.08,1
991,19.21,18.48,-6.59,1
992,19.23,10.14,-10.72,1
993,19.24,17.0,-4.91,1
994,19.25,26.7,31.91,1
995,19.27,-13.66,5.13,1
996,19.28,12.32,-0.32,1
997,19.29,12.56,-19.33,1
998,19.31,-22.07,18.43,1
999,19.32,-18.94,7.66,1
1000,19.33,13.56,-4.59,1
1001,19.35,-23.38,-10.07,1
1002,19.36,-11.39,-3.43,1
1003,19.37,19.66,2.47,1
1004,19.39,-18.6,-10.97,1
1005,19.4,-14.01,13.77,1
1006,19.41,7.87,-10.47,1
1007,19.43,-35.36,-1.04,1
1008,19.44,-1.39,-4.16,1
1009,19.45,9.46,-18.45,1
1010,19.47,-29.28,-1.07,1
1011,19.48,-16.53,14.98,1
1012,19.49,-1.93,-26.32,1
1013,19.51,-33.26,-10.26,1
1014,19.52,-28.0,2.9,1
1015,19.53,0.42,-8.85,1
1016,19.55,-24.81,4.65,1
1017,19.56,-21.84,23.95,1
1018,19.57,4.97,-4.49,1
1019,19.59,-25.18,4.7,1
1020,19.6,-22.2,18.81,1
1021,19.61,7.34,-13.84,1
1022,19.62,-29.93,12.37,1
1023,19.64,-2.66,31.39,1
1024,19.65,16.47,7.55,1
1025,19.67,-11.62,0.68,1
1026,19.68,-21.15,-8.35,1
1027,19.69,11.4,-20.98,1
1028,19.71,-19.79,-6.08,1
1029,19.72,-10.35,14.22,1
1030,19.73,12.19,-15.06,1
1031,19.75,-16.79,2.91,1
1032,19.76,-14.02,11.59,1
1033,19.77,-0.83,-21.2,1
1034,19.79,-12.04,-8.35,1
1035,19.8,3.92,7.83,1
1036,19.81,17.4,-7.56,1
1037,19.83,-1.14,-4.17,1
1038,19.84,7.03,24.04,1
1039,19.85,8.76,-16.72,1
1040,19.87,-26.09,11.1,1
1041,19.88,-1.05,14.19,1
1042,19.89,16.61,-32.65,1
1043,19.91,-21.6,-9.04,1
1044,19.92,-9.28,13.51,1
1045,19.93,15.75,-24.13,1
1046,19.95,-17.61,19.17,1
1047,19.96,6.01,27.19,1
1048,19.97,7.9,-4.75,1
1049,19.99,-3.17,2.35,1
1050,20.0,7.42,14.08,1
1051,20.01,18.11,-15.49,1
1052,20.03,-13.09,16.89,1
1053,20.04,-11.18,25.96,1
1054,20.05,23.33,-19.92,1
1055,20.07,-11.15,10.46,1
1056,20.08,9.07,8.84,1
1057,20.09,18.48,-15.05,1
1058,20.11,-6.04,-0.58,1
1059,20.12,17.26,10.95,1
1060,20.13,8.3,-32.14,1
1061,20.15,-8.03,-12.24,1
1062,20.16,10.99,11.09,0
1063,20.17,21.18,-36.43,0
1064,20.19,-13.38,20.84,0
1065,20.2,0.35,-11.85,0
1066,20.21,-30.39,-37.83,0
1067,20.23,-151.45,-3.4,0
1068,20.24,-181.33,40.95,0
1069,20.25,-186.48,0.63,0
1070,20.26,-213.47,-41.47,0
1071,20.28,-142.02,-17.05,0
1072,20.29,-89.31,-45.35,0
1073,20.3,-27.97,4.01,0
1074,20.32,47.16,7.64,0
1075,20.33,128.27,-37.42,0
1076,20.35,123.33,6.63,0
1077,20.36,185.85,25.16,0
1078,20.37,220.01,-51.53,0
1079,20.39,183.75,9.46,0
1080,20.4,206.09,22.22,0
1081,20.41,207.95,-33.48,0
1082,20.43,169.16,32.19,0
1083,20.44,174.69,58.76,0
1084,20.45,160.51,-1.17,0
1085,20.47,101.34,39.2,0
1086,20.48,107.1,54.82,0
1087,20.49,93.65,12.25,0
1088,20.51,40.12,27.09,0
1089,20.52,34.54,45.16,0
1090,20.53,25.63,3.62,0
1091,20.55,-33.98,30.79,1
1092,20.56,-12.23,28.1,1
1093,20.57,-15.93,-4.47,1
1094,20.59,-67.54,15.92,1
1095,20.6,-36.74,45.98,1
1096,20.61,-51.67,-16.94,1
1097,20.63,-75.67,9.82,1
1098,20.64,-86.35,25.28,1
1099,20.65,-72.65,-30.85,1
1100,20.67,-105.4,-7.02,1
1101,20.68,-94.91,18.64,1
1102,20.69,-86.33,-18.71,1
1103,20.71,-125.92,7.44,1
1104,20.72,-125.38,-7.2,1
1105,20.73,-112.08,-44.71,1
1106,20.75,-128.59,-13.27,1
1107,20.76,-98.51,-1.94,1
1108,20.77,-78.43,-32.37,1
1109,20.79,-71.96,-19.49,1
1110,20.8,-68.76,-1.28,1
1111,20.81,-31.52,-52.19,1
1112,20.83,-47.39,-34.28,1
1113,20.84,-40.35,-18.84,1
1114,20.85,-27.94,-61.74,1
1115,20.87,-40.46,-0.79,1
1116,20.88,-30.56,9.59,1
1117,20.89,-21.11,-32.16,1
1118,20.9,-26.34,-13.84,1
1119,20.92,-4.73,4.34,1
1120,20.93,10.94,-28.32,1
1121,20.94,-7.55,7.34,1
1122,20.96,-16.89,14.24,1
1123,20.97,13.01,-26.7,1
1124,20.99,2.78,3.8,1
1125,21.0,-0.57,14.36,1
1126,21.01,16.72,-18.09,1
1127,21.03,26.85,14.92,1
1128,21.04,26.54,13.13,1
1129,21.05,32.64,-30.72,1
1130,21.07,32.67,3.05,1
1131,21.08,1.12,25.03,1
1132,21.09,38.91,-5.65,1
1133,21.11,61.11,19.89,1
1134,21.12,57.83,27.13,1
1135,21.13,42.16,-26.05,1
1136,21.15,34.09,-7.88,1
1137,21.16,31.54,0.68,1
1138,21.17,42.61,-13.15,1
1139,21.19,46.72,9.37,1
1140,21.2,41.75,32.73,1
1141,21.21,52.81,-3.01,1
1142,21.23,53.21,43.13,1
1143,21.24,39.16,17.92,1
1144,21.25,25.12,-12.08,1
1145,21.27,17.13,19.05,1
1146,21.28,-1.79,3.52,1
1147,21.29,3.55,-12.41,1
1148,21.31,-0.14,12.74,1
1149,21.32,19.15,32.62,1
1150,21.33,26.52,15.36,1
1151,21.35,25.83,7.28,1
1152,21.36,6.68,10.32,1
1153,21.37,25.49,2.94,1
1154,21.39,28.48,11.32,1
1155,21.4,1.92,8.86,1
1156,21.41,10.18,-20.42,1
1157,21.43,7.78,4.16,1
1158,21.44,-7.5,6.75,1
1159,21.45,0.47,-12.85,1
1160,21.47,1.92,18.58,1
1161,21.48,-24.05,35.85,1
1162,21.49,-4.95,-14.54,1
1163,21.51,13.75,6.67,1
1164,21.52,-6.6,5.86,1
1165,21.53,2.65,-39.02,1
1166,21.54,9.29,-8.11,1
1167,21.56,-21.83,-3.51,1
1168,21.57,-18.46,-9.03,1
1169,21.58,-8.15,7.35,1
1170,21.6,-32.08,2.63,1
1171,21.61,-13.16,-34.07,1
1172,21.625,7.35,-10.46,1
1173,21.64,3.87,13.29,1
1174,21.65,-13.33,-8.78,1
1175,21.67,-0.4,-9.44,1
1176,21.68,2.22,-0.35,1
1177,21.69,-0.16,-30.84,1
1178,21.71,-20.69,-2.05,1
1179,21.72,-29.77,6.95,1
1180,21.73,-22.21,3.93,1
1181,21.75,-26.08,2.63,1
1182,21.76,-19.92,2.16,1
1183,21.77,-2.57,7.0,1
1184,21.79,-0.43,16.69,1
1185,21.8,-18.41,10.57,1
1186,21.81,11.38,-19.27,1
1187,21.83,19.55,-10.74,1
1188,21.84,3.87,-4.67,1
1189,21.85,-3.76,-21.01,1
1190,21.87,-10.14,-5.41,1
1191,21.88,-34.67,-10.47,1
1192,21.89,-11.22,6.68,1
1193,21.91,-6.59,-0.29,1
1194,21.92,-8.12,15.14,1
1195,21.93,-12.48,2.98,1
1196,21.95,-4.49,12.94,1
1197,21.96,-2.21,6.73,1
1198,21.97,25.46,-3.72,1
1199,21.99,17.19,-10.98,1
1200,22.0,-15.58,-9.67,1
1201,22.01,-19.42,2.96,1
1202,22.03,9.2,19.1,1
1203,22.04,-44.3,10.58,1
1204,22.05,-14.98,-8.3,1
1205,22.07,0.45,14.49,1
1206,22.08,-7.38,-12.82,1
1207,22.09,5.23,-24.66,1
1208,22.11,30.16,9.61,1
1209,22.12,2.24,-1.34,1
1210,22.13,32.01,-0.85,1
1211,22.15,31.44,8.07,1
1212,22.16,23.94,27.32,2
1213,22.17,96.45,71.38,2
1214,22.18,171.7,81.1,2
1215,22.2,156.37,116.1,2
1216,22.21,180.55,139.14,2
1217,22.22,184.05,89.23,2
1218,22.24,138.29,-10.71,2
1219,22.25,106.43,-78.1,2
1220,22.26,77.35,-138.72,2
1221,22.28,15.83,-146.0,2
1222,22.29,-31.01,-132.44,2
1223,22.31,-88.19,-133.02,2
1224,22.32,-145.12,-114.75,2
1225,22.33,-233.25,-86.72,2
1226,22.35,-285.59,-68.66,2
1227,22.36,-321.34,-38.72,2
1228,22.37,-294.45,-7.64,2
1229,22.39,-273.87,4.32,2
1230,22.4,-266.05,15.23,2
1231,22.41,-222.36,22.24,2
1232,22.43,-162.39,23.0,2
1233,22.44,-139.97,34.39,2
1234,22.45,-93.46,62.09,2
1235,22.47,-46.5,23.17,2
1236,22.48,-35.82,34.14,2
1237,22.49,-5.45,40.99,2
1238,22.51,35.1,24.84,2
1239,22.52,52.62,33.36,2
1240,22.53,92.53,62.21,2
1241,22.55,135.63,43.89,1
1242,22.56,131.54,24.7,1
1243,22.57,125.15,32.24,1
1244,22.59,127.15,15.38,1
1245,22.6,105.05,12.51,1
1246,22.61,104.96,38.38,1
1247,22.63,113.61,-11.02,1
1248,22.64,119.36,21.1,1
1249,22.65,115.94,5.71,1
1250,22.67,108.2,3.1,1
1251,22.68,100.89,17.58,1
1252,22.69,75.83,35.17,1
1253,22.71,101.7,-6.19,1
1254,22.72,77.7,-8.55,1
1255,22.73,78.94,10.62,1
1256,22.75,79.44,-34.24,1
1257,22.76,61.74,-3.99,1
1258,22.77,57.0,20.15,1
1259,22.79,60.84,-0.54,1
1260,22.8,50.63,11.65,1
1261,22.81,36.83,8.73,1
1262,22.82,49.62,-29.66,1
1263,22.84,11.16,-18.49,1
1264,22.85,5.1,12.32,1
1265,22.86,11.34,-36.95,1
1266,22.88,4.52,-20.07,1
1267,22.89,11.43,28.06,1
1268,22.9,4.8,-30.98,1
1269,22.92,-28.74,-16.83,1
1270,22.93,-22.53,16.03,1
1271,22.95,-34.26,-29.81,1
1272,22.96,-29.73,-4.88,1
1273,22.97,-20.76,21.09,1
1274,22.99,-15.94,-19.93,1
1275,23.0,-33.13,-18.31,1
1276,23.01,-24.13,9.87,1
1277,23.03,-30.46,-36.71,1
1278,23.04,-32.73,-6.0,1
1279,23.05,-44.96,12.49,1
1280,23.07,-32.39,-25.71,1
1281,23.08,-65.85,-12.58,1
1282,23.09,-30.37,6.95,1
1283,23.11,-22.62,-16.38,1
1284,23.12,-50.02,-3.25,1
1285,23.13,-52.21,9.64,1
1286,23.15,-30.63,-6.73,1
1287,23.16,-53.29,8.85,1
1288,23.17,-45.78,4.49,1
1289,23.19,-37.02,-18.02,1
1290,23.2,-24.66,-7.88,1
1291,23.21,-19.51,14.46,1
1292,23.23,-9.5,-36.43,1
1293,23.24,-38.28,3.62,1
1294,23.25,-31.24,19.27,1
1295,23.27,-14.73,-33.87,1
1296,23.28,-27.04,5.01,1
1297,23.29,-23.79,23.45,1
1298,23.31,8.69,-15.13,1
1299,23.32,-27.1,25.65,1
1300,23.33,-8.75,30.48,1
1301,23.35,4.42,-21.54,1
1302,23.36,2.35,15.66,1
1303,23.37,-0.26,24.96,1
1304,23.39,-2.44,-40.0,1
1305,23.4,-17.15,22.8,1
1306,23.41,-17.47,46.21,1
1307,23.43,13.33,-4.72,1
1308,23.44,-14.28,21.18,1
1309,23.45,-2.91,-7.69,1
1310,23.46,3.59,-36.49,1
1311,23.48,-7.71,11.29,1
1312,23.49,8.22,20.32,1
1313,23.5,30.32,-30.3,1
1314,23.52,2.06,-1.54,1
1315,23.53,11.22,14.56,1
1316,23.54,16.94,-37.59,1
1317,23.56,-1.77,0.38,1
1318,23.57,4.13,0.92,1
1319,23.59,30.33,-23.12,1
1320,23.6,0.95,8.42,1
1321,23.61,5.25,23.14,1
1322,23.63,15.04,-41.66,1
1323,23.64,6.93,6.14,1
1324,23.65,10.55,18.09,1
1325,23.67,24.65,-51.32,1
1326,23.68,5.0,9.6,1
1327,23.69,15.38,32.56,1
1328,23.71,32.54,-10.46,1
1329,23.72,18.95,6.02,1
1330,23.73,12.37,48.15,1
1331,23.75,23.86,-19.2,1
1332,23.76,-2.52,6.58,1
1333,23.77,0.53,18.7,1
1334,23.79,11.0,-42.5,1
1335,23.8,-12.61,5.55,1
1336,23.81,-4.74,23.35,1
1337,23.83,11.48,-30.06,1
1338,23.84,-12.89,2.3,1
1339,23.85,9.7,11.81,1
1340,23.87,25.93,-29.6,1
1341,23.88,-0.76,17.88,1
1342,23.89,6.13,39.41,1
1343,23.91,25.05,-22.26,1
1344,23.92,-18.15,10.14,1
1345,23.93,-5.29,34.6,1
1346,23.95,21.91,-9.29,1
1347,23.96,-0.61,8.55,1
1348,23.97,3.23,20.81,1
1349,23.99,13.54,-28.69,1
1350,24.0,-16.42,7.69,1
1351,24.01,-1.82,23.41,1
1352,24.03,12.37,-36.95,1
1353,24.04,-16.77,18.11,1
1354,24.05,-8.85,11.61,1
1355,24.07,22.51,-35.2,1
1356,24.08,-10.73,-5.51,1
1357,24.09,8.26,2.84,1
1358,24.1,7.75,-19.35,1
1359,24.12,-17.89,25.64,1
1360,24.13,4.41,85.33,1
1361,24.14,42.5,48.48,1
1362,24.16,17.77,156.06,1
1363,24.17,135.61,129.59,1
1364,24.18,-158.25,229.4,1
1365,24.2,171.63,248.89,1
1366,24.21,176.38,58.02,1
1367,24.22,-395.55,219.06,1
1368,24.24,-99.99,103.48,1
1369,24.25,-453.12,54.9,1
1370,24.27,-221.15,-6.49,1
1371,24.28,-143.68,-20.76,1
1372,24.29,-181.29,-84.57,1
1373,24.31,42.35,-108.01,1
1374,24.32,-23.7,-111.98,1
1375,24.33,272.38,-152.62,1
1376,24.35,-165.18,-163.32,1
1377,24.36,-14.18,-151.48,1
1378,24.37,-43.89,-180.37,1
1379,24.39,161.48,-179.31,1
1380,24.4,15.64,-156.88,1
1381,24.41,276.36,-177.6,1
1382,24.43,62.99,-168.25,1
1383,24.44,698.31,-138.93,1
1384,24.45,3.45,-153.38,1
1385,24.47,438.09,-140.89,1
1386,24.48,44.91,-106.15,1
1387,24.49,57.44,-116.98,1
1388,24.51,-182.65,-101.59,1
1389,24.52,-114.72,-67.37,1
1390,24.53,27.58,-76.59,1
1391,24.55,31.54,-60.12,1
1392,24.56,297.91,-25.4,1
1393,24.57,-80.55,-58.81,1
1394,24.59,-76.9,-65.21,1
1395,24.6,-55.52,-13.53,1
1396,24.61,-201.94,-24.04,1
1397,24.63,-28.7,-170.28,1
1398,24.64,-0.71,-0.04,1
1399,24.65,-12.49,-49.28,1
1400,24.67,-89.23,-147.38,1
1401,24.68,316.67,93.02,1
1402,24.69,-4.28,51.36,1
1403,24.71,166.06,85.04,1
1404,24.72,46.49,-44.02,1
1405,24.73,-221.8,-58.46,1
1406,24.75,-139.87,-135.19,1
1407,24.76,-79.25,-4.98,1
1408,24.77,-167.32,424.14,1
1409,24.78,131.31,304.95,1
1410,24.8,121.24,-28.37,1
1411,24.81,354.24,-91.52,1
1412,24.82,-339.18,110.37,1
1413,24.84,68.73,273.42,1
1414,24.85,-153.31,238.43,1
1415,24.86,-197.69,347.99,1
1416,24.88,29.29,249.36,1
1417,24.89,128.91,-49.34,1
1418,24.91,138.95,-94.68,1
1419,24.92,-49.35,-168.41,1
1420,24.93,-9.89,-74.08,1
1421,24.95,145.33,-39.8,1
1422,24.96,162.29,59.61,1
1423,24.97,195.69,80.6,1
1424,24.99,138.44,115.5,1
1425,25.0,71.97,171.38,1
1426,25.01,-60.33,172.14,1
1427,25.03,-137.33,179.77,1
1428,25.04,-222.08,217.5,1
1429,25.05,-270.14,199.56,1
1430,25.07,-247.22,190.98,1
1431,25.08,-288.07,213.13,1
1432,25.09,-271.65,184.57,1
1433,25.11,-228.13,164.09,1
1434,25.12,-221.3,176.95,1
1435,25.13,-203.28,141.64,1
1436,25.15,-154.07,115.64,1
1437,25.16,-170.64,123.54,1
1438,25.17,-128.27,127.45,1
1439,25.19,-84.23,202.6,1
1440,25.2,-97.12,238.96,1
1441,25.21,-56.76,217.74,1
1442,25.23,-15.39,163.83,1
1443,25.24,-58.0,128.07,1
1444,25.25,-22.37,82.63,1
1445,25.27,27.81,32.57,1
1446,25.28,45.93,-12.06,1
1447,25.29,67.81,-59.68,1
1448,25.31,121.52,-99.89,1
1449,25.32,92.05,-153.03,1
1450,25.33,115.68,-176.54,1
1451,25.35,134.98,-208.79,1
1452,25.36,116.78,-248.27,1
1453,25.37,124.43,-251.47,1
1454,25.38,149.95,-263.98,1
1455,25.4,122.05,-261.8,1
1456,25.41,125.0,-282.09,1
1457,25.42,134.65,-311.33,1
1458,25.44,95.63,-300.36,1
1459,25.45,109.4,-301.98,1
1460,25.46,137.59,-287.67,1
1461,25.48,101.5,-286.14,1
1462,25.49,91.77,-259.13,1
1463,25.5,99.46,-238.28,1
1464,25.52,64.84,-212.22,1
1465,25.53,54.92,-210.14,1
1466,25.55,82.04,-201.16,1
1467,25.56,63.3,-181.14,1
1468,25.57,42.86,-151.16,1
1469,25.59,64.0,-125.56,1
1470,25.6,32.57,-118.15,1
1471,25.61,37.71,-93.15,1
1472,25.63,45.95,-57.11,1
1473,25.64,16.31,-34.19,1
1474,25.65,12.35,-21.2,1
1475,25.67,27.39,8.16,1
1476,25.68,-13.63,-30.75,1
1477,25.69,6.55,10.43,1
1478,25.71,1.99,45.78,1
1479,25.72,-25.42,48.01,1
1480,25.73,-11.18,52.95,1
1481,25.75,2.6,68.58,1
1482,25.76,-42.75,63.66,1
1483,25.77,-24.94,83.55,1
1484,25.79,-28.5,104.77,1
1485,25.8,-53.83,96.65,1
1486,25.81,-39.66,99.96,1
1487,25.83,-10.18,148.14,1
1488,25.84,-33.97,103.68,1
1489,25.85,-38.45,121.31,1
1490,25.87,-19.59,133.63,1
1491,25.88,-52.83,105.06,1
1492,25.89,-38.23,132.23,1
1493,25.91,-36.2,143.71,1
1494,25.92,-64.61,90.17,1
1495,25.93,-40.99,129.7,1
1496,25.95,-26.5,131.25,1
1497,25.96,-64.82,92.07,1
1498,25.97,-45.4,89.48,1
1499,25.99,-28.86,120.06,1
1500,26.0,-39.26,71.05,1
1501,26.01,-38.86,72.7,1
1502,26.02,2.12,83.16,1
1503,26.04,-48.25,44.89,1
1504,26.05,-31.58,80.79,1
1505,26.06,-8.29,79.91,1
1506,26.08,-22.78,37.61,1
1507,26.09,-28.49,51.58,1
1508,26.1,-5.54,75.7,1
1509,26.12,-14.46,11.32,1
1510,26.13,-8.99,29.82,1
1511,26.14,19.22,34.41,1
1512,26.16,-12.29,-1.14,2
1513,26.17,1.87,14.65,2
1514,26.19,75.54,42.38,2
1515,26.2,146.4,-12.63,2
1516,26.21,202.75,14.06,2
1517,26.23,242.25,47.62,2
1518,26.24,159.66,-32.4,2
1519,26.25,119.19,-6.98,2
1520,26.27,59.72,-43.31,2
1521,26.28,-24.66,-102.46,2
1522,26.29,-49.49,-85.55,2
1523,26.31,-92.22,-69.78,2
1524,26.32,-177.78,-114.58,2
1525,26.33,-188.41,-47.3,2
1526,26.35,-157.32,-25.32,2
1527,26.36,-213.35,-71.96,2
1528,26.37,-189.92,-20.15,2
1529,26.39,-151.32,16.2,2
1530,26.4,-192.27,-41.44,2
1531,26.41,-139.66,-34.03,2
1532,26.43,-102.75,22.18,2
1533,26.44,-96.4,-16.11,2
1534,26.45,-61.93,8.72,2
1535,26.47,-44.95,29.79,2
1536,26.48,-69.28,-30.3,2
1537,26.49,-7.31,-16.03,2
1538,26.51,2.51,18.07,2
1539,26.52,4.13,-36.88,2
1540,26.53,33.47,15.78,2
1541,26.55,59.8,26.35,1
1542,26.56,29.72,-47.67,1
1543,26.57,63.19,-0.67,1
1544,26.59,79.57,1.94,1
1545,26.6,56.88,-30.86,1
1546,26.61,101.0,-4.03,1
1547,26.63,97.34,32.74,1
1548,26.64,99.43,-47.74,1
1549,26.65,80.51,-11.51,1
1550,26.67,120.5,-21.46,1
1551,26.68,84.72,-77.27,1
1552,26.69,106.44,-17.08,1
1553,26.7,126.81,-6.76,1
1554,26.72,66.55,-56.08,1
1555,26.73,85.22,-21.79,1
1556,26.75,90.57,0.87,1
1557,26.76,43.03,-29.14,1
1558,26.77,74.0,-16.29,1
1559,26.78,63.72,9.11,1
1560,26.8,49.64,-25.3,1
1561,26.81,43.24,-5.56,1
1562,26.82,64.27,13.07,1
1563,26.84,3.36,-30.83,1
1564,26.85,51.44,0.34,1
1565,26.87,30.99,17.68,1
1566,26.88,26.96,-17.45,1
1567,26.89,19.63,22.62,1
1568,26.91,14.47,52.68,1
1569,26.92,-32.39,-16.32,1
1570,26.93,-28.26,7.48,1
1571,26.95,-23.44,22.8,1
1572,26.96,-11.91,-42.16,1
1573,26.97,-32.92,-2.21,1
1574,26.99,-4.73,6.11,1
1575,27.0,-28.43,-22.6,1
1576,27.01,-40.86,12.72,1
1577,27.03,-32.04,28.41,1
1578,27.04,-58.27,3.24,1
1579,27.05,-31.3,37.82,1
1580,27.07,-12.26,46.9,1
1581,27.08,-66.3,-12.02,1
1582,27.09,-20.59,15.1,1
1583,27.11,-4.67,17.61,1
1584,27.12,-50.68,-36.16,1
1585,27.13,-42.13,7.81,1
1586,27.15,-17.92,39.5,1
1587,27.16,-41.98,-15.58,1
1588,27.17,-41.37,12.92,1
1589,27.19,-25.68,28.78,1
1590,27.2,-50.64,-17.2,1
1591,27.21,-24.85,17.56,1
1592,27.23,-32.36,36.08,1
1593,27.24,-50.88,-20.6,1
1594,27.25,-16.54,31.24,1
1595,27.27,-14.26,11.75,1
1596,27.28,-41.51,-30.54,1
1597,27.29,-22.45,-1.8,1
1598,27.3,-1.06,20.02,1
1599,27.32,-41.97,-6.26,1
1600,27.33,-29.56,-5.41,1
1601,27.34,13.15,46.33,1
1602,27.36,-9.55,-4.29,1
1603,27.37,4.82,2.74,1
1604,27.38,9.55,25.52,1
1605,27.4,-20.06,-21.29,1
1606,27.41,7.86,13.2,1
1607,27.42,19.82,4.87,1
1608,27.44,-8.52,-20.71,1
1609,27.45,-5.9,-4.4,1
1610,27.46,21.89,9.93,1
1611,27.48,-32.03,-17.18,1
1612,27.49,-8.1,16.87,1
1613,27.51,5.23,15.49,1
1614,27.52,-1.67,-31.95,1
1615,27.53,5.43,-10.81,1
1616,27.55,23.85,25.01,1
1617,27.56,9.31,-6.42,1
1618,27.57,11.5,23.87,1
1619,27.59,17.75,-3.51,1
1620,27.6,-6.89,-25.13,1
1621,27.61,4.75,15.58,1
1622,27.63,32.03,0.59,1
1623,27.64,21.31,-33.62,1
1624,27.65,16.32,-8.33,1
1625,27.67,31.94,14.97,1
1626,27.68,17.96,-9.48,1
1627,27.69,20.39,10.0,1
1628,27.71,38.68,3.45,1
1629,27.72,-5.23,-15.11,1
1630,27.73,2.88,-2.52,1
1631,27.75,24.29,11.3,1
1632,27.76,0.17,-9.59,1
1633,27.77,22.6,8.04,1
1634,27.79,1.96,2.51,1
1635,27.8,-14.52,-18.83,1
1636,27.81,2.96,10.5,1
1637,27.83,18.67,0.21,1
1638,27.84,2.44,-18.15,1
1639,27.85,12.85,12.42,1
1640,27.87,1.63,8.43,1
1641,27.88,-0.71,-36.0,1
1642,27.89,5.0,-24.87,1
1643,27.91,14.97,6.26,1
1644,27.92,-8.95,-20.83,1
1645,27.93,3.92,-3.86,1
1646,27.94,22.3,-11.2,1
1647,27.96,-2.95,-1.63,1
1648,27.97,-6.14,10.5,1
1649,27.98,0.78,-7.15,1
1650,28.0,-1.83,4.12,1
1651,28.01,-7.9,1.24,1
1652,28.02,-0.39,12.01,1
1653,28.04,-14.79,-1.8,1
1654,28.05,-24.06,-10.56,1
1655,28.06,2.13,2.02,1
1656,28.08,-8.69,-10.5,1
1657,28.09,-13.69,-7.88,1
1658,28.1,8.7,4.27,1
1659,28.12,-11.34,5.65,1
1660,28.13,-11.88,-0.48,1
1661,28.15,18.71,-30.95,1
1662,28.16,13.13,5.85,0
1663,28.17,-136.34,22.78,0
1664,28.19,-157.02,3.48,0
1665,28.2,-243.65,9.65,0
1666,28.21,-243.42,25.63,0
1667,28.23,-198.46,23.62,0
1668,28.24,-130.12,-18.14,0
1669,28.25,-99.63,-46.21,0
1670,28.27,-52.12,-66.67,0
1671,28.28,6.67,-74.28,0
1672,28.29,21.99,-61.76,0
1673,28.31,62.72,-43.01,0
1674,28.32,185.95,-2.67,0
1675,28.33,296.36,18.5,0
1676,28.35,353.14,26.1,0
1677,28.36,329.44,49.52,0
1678,28.37,315.09,50.8,0
1679,28.39,292.5,57.79,0
1680,28.4,253.1,65.15,0
1681,28.41,204.97,37.0,0
1682,28.43,168.02,39.51,0
1683,28.44,130.42,58.61,0
1684,28.45,79.58,29.55,0
1685,28.47,49.83,28.03,0
1686,28.48,-4.03,18.77,0
1687,28.49,-21.31,9.08,0
1688,28.51,-2.3,25.23,0
1689,28.52,-10.35,30.17,0
1690,28.53,-51.28,11.73,0
1691,28.55,-71.13,-3.7,1
1692,28.56,-120.22,16.99,1
1693,28.57,-141.89,-0.89,1
1694,28.58,-138.39,-29.44,1
1695,28.6,-140.11,-21.24,1
1696,28.61,-160.02,-18.52,1
1697,28.62,-141.34,-6.92,1
1698,28.64,-133.49,-22.81,1
1699,28.65,-139.63,-42.73,1
1700,28.67,-119.83,-9.27,1
1701,28.68,-149.6,11.2,1
1702,28.69,-129.64,-26.99,1
1703,28.7,-105.0,-23.44,1
1704,28.72,-114.73,4.57,1
1705,28.73,-96.48,-18.29,1
1706,28.75,-77.64,-27.44,1
1707,28.76,-58.65,-4.44,1
1708,28.77,-59.96,-40.98,1
1709,28.79,-44.8,-26.99,1
1710,28.8,-34.39,-7.42,1
1711,28.81,-45.52,-12.91,1
1712,28.83,-24.99,-10.85,1
1713,28.84,-15.51,8.73,1
1714,28.85,3.33,-31.63,1
1715,28.87,11.73,-11.4,1
1716,28.88,-1.49,6.38,1
1717,28.89,-4.72,-32.71,1
1718,28.91,28.06,-0.61,1
1719,28.92,7.56,31.52,1
1720,28.93,26.33,-8.11,1
1721,28.95,29.13,-9.87,1
1722,28.96,29.74,11.48,1
1723,28.97,30.22,-13.56,1
1724,28.99,42.22,2.47,1
1725,29.0,55.86,14.83,1
1726,29.01,44.61,-16.44,1
1727,29.03,50.9,29.51,1
1728,29.04,44.57,12.09,1
1729,29.05,30.07,-27.93,1
1730,29.07,49.44,-10.62,1
1731,29.08,56.14,21.48,1
1732,29.09,31.68,-13.75,1
1733,29.11,45.33,-0.06,1
1734,29.12,38.23,12.22,1
1735,29.13,37.15,-27.81,1
1736,29.15,40.7,7.3,1
1737,29.16,44.41,49.2,1
1738,29.17,31.95,-33.57,1
1739,29.19,42.4,12.1,1
1740,29.2,50.43,35.79,1
1741,29.21,31.69,-23.94,1
1742,29.22,26.81,1.8,1
1743,29.24,19.95,5.06,1
1744,29.25,34.7,9.76,1
1745,29.26,31.13,30.2,1
1746,29.28,19.52,43.47,1
1747,29.29,17.95,-16.9,1
1748,29.3,2.18,6.85,1
1749,29.32,29.04,36.83,1
1750,29.33,0.63,-19.51,1
1751,29.34,16.66,-0.43,1
1752,29.36,6.8,31.24,1
1753,29.37,-7.51,-29.47,1
1754,29.38,-3.22,11.96,1
1755,29.4,9.42,31.09,1
1756,29.41,-16.8,-22.93,1
1757,29.42,19.25,21.58,1
1758,29.44,13.05,25.91,1
1759,29.45,-19.01,-21.78,1
1760,29.47,-14.32,9.51,1
1761,29.48,-1.45,28.13,1
1762,29.49,-26.39,-17.24,1
1763,29.51,-20.55,12.82,1
1764,29.52,-16.46,15.44,1
1765,29.53,-35.82,-38.51,1
1766,29.55,-15.55,-2.74,1
1767,29.56,0.84,23.26,1
1768,29.57,-10.53,-43.64,1
1769,29.59,-24.93,-8.67,1
1770,29.6,-8.61,17.89,1
1771,29.61,-25.36,-38.31,1
1772,29.63,-16.22,3.78,1
1773,29.64,2.74,26.61,1
1774,29.65,-19.92,-32.68,1
1775,29.67,-26.66,-20.16,1
1776,29.68,-5.31,20.18,1
1777,29.69,-27.01,-36.69,1
1778,29.71,-19.57,7.74,1
1779,29.72,6.77,5.04,1
1780,29.73,-24.5,-25.17,1
1781,29.75,-13.7,15.17,1
1782,29.76,-17.86,21.69,1
1783,29.77,-20.42,-35.12,1
1784,29.79,-9.32,3.78,1
1785,29.8,-8.34,14.08,1
1786,29.81,-12.98,-23.06,1
1787,29.83,-5.31,5.82,1
1788,29.84,6.14,25.13,1
1789,29.85,-1.17,-27.12,1
1790,29.86,6.26,25.72,1
1791,29.88,10.54,7.81,1
1792,29.89,-6.35,-39.86,1
1793,29.9,-4.98,14.65,1
1794,29.92,15.63,7.72,1
1795,29.93,-10.31,-27.21,1
1796,29.94,-3.62,-15.67,1
1797,29.96,12.62,10.52,1
1798,29.97,-11.58,-55.22,1
1799,29.98,0.23,9.3,1
1800,30.0,10.32,26.86,1
1801,30.01,9.56,-25.23,1
1802,30.02,-3.56,6.28,1
1803,30.04,35.58,22.22,1
1804,30.05,-16.55,-29.31,1
1805,30.06,6.17,9.19,1
1806,30.08,18.16,39.1,1
1807,30.09,2.26,-15.65,1
1808,30.11,6.09,39.96,1
1809,30.12,13.27,22.69,1
1810,30.13,13.34,-30.53,1
1811,30.15,3.78,5.95,1
1812,30.16,14.24,27.93,0
1813,30.17,-8.25,-20.15,0
1814,30.19,-21.63,-18.94,0
1815,30.2,-63.73,-22.12,0
1816,30.21,-191.47,-51.01,0
1817,30.23,-237.5,-11.61,0
1818,30.24,-195.76,1.95,0
1819,30.25,-193.47,-30.9,0
1820,30.27,-135.82,-16.27,0
1821,30.28,-73.08,28.87,0
1822,30.29,-4.37,-34.32,0
1823,30.31,55.99,21.44,0
1824,30.32,150.68,26.53,0
1825,30.33,171.08,17.06,0
1826,30.35,197.58,45.07,0
1827,30.36,229.45,73.19,0
1828,30.37,210.88,30.58,0
1829,30.39,235.05,44.03,0
1830,30.4,204.39,68.93,0
1831,30.41,194.13,2.22,0
1832,30.43,168.87,24.49,0
1833,30.44,172.27,19.04,0
1834,30.45,126.77,-13.28,0
1835,30.47,94.16,15.65,0
1836,30.48,94.48,13.89,0
1837,30.49,27.54,-25.7,0
1838,30.5,28.99,7.68,0
1839,30.52,7.46,5.73,0
1840,30.53,-46.95,-28.97,0
1841,30.54,-40.31,-5.7,0
1842,30.56,-17.83,10.24,1
1843,30.57,-55.56,-31.37,1
1844,30.58,-59.55,10.28,1
1845,30.6,-54.15,3.99,1
1846,30.61,-97.07,-29.05,1
1847,30.62,-115.84,-8.96,1
1848,30.64,-54.54,2.23,1
1849,30.65,-117.5,-34.15,1
1850,30.67,-113.04,-25.43,1
1851,30.68,-94.09,-0.04,1
1852,30.69,-118.12,-38.68,1
1853,30.7,-113.04,-15.35,1
1854,30.72,-74.24,0.81,1
1855,30.73,-115.65,-52.55,1
1856,30.75,-104.63,-8.16,1
1857,30.76,-65.78,-1.27,1
1858,30.77,-85.71,-40.75,1
1859,30.79,-89.62,-0.5,1
1860,30.8,-65.16,8.01,1
1861,30.81,-76.46,-32.72,1
1862,30.83,-55.61,-13.47,1
1863,30.84,-13.79,-11.29,1
1864,30.85,-31.84,-17.23,1
1865,30.87,-38.12,-1.07,1
1866,30.88,-5.69,5.01,1
1867,30.89,-30.3,-26.7,1
1868,30.91,-33.81,-2.0,1
1869,30.92,3.37,26.92,1
1870,30.93,-5.43,-7.43,1
1871,30.95,-6.53,14.68,1
1872,30.96,20.87,0.74,1
1873,30.97,1.63,-13.33,1
1874,30.99,2.09,10.86,1
1875,31.0,39.49,7.59,1
1876,31.01,14.88,3.38,1
1877,31.03,27.02,11.33,1
1878,31.04,78.37,13.17,1
1879,31.05,22.34,5.13,1
1880,31.07,30.1,4.64,1
1881,31.08,73.25,18.45,1
1882,31.09,35.14,-6.45,1
1883,31.11,42.49,12.17,1
1884,31.12,64.49,0.25,1
1885,31.13,35.88,3.94,1
1886,31.14,20.16,15.58,1
1887,31.16,60.35,0.65,1
1888,31.17,40.36,-2.57,1
1889,31.18,35.41,14.06,1
1890,31.2,51.47,13.78,1
1891,31.21,21.62,16.97,1
1892,31.22,30.34,11.0,1
1893,31.24,41.49,8.87,1
1894,31.25,4.44,-0.63,1
1895,31.26,6.01,-8.38,1
1896,31.28,50.42,0.53,1
1897,31.29,26.07,-1.66,1
1898,31.3,17.06,-11.23,1
1899,31.32,39.81,5.95,1
1900,31.33,6.11,7.29,1
1901,31.34,-9.94,-6.64,1
1902,31.36,35.71,10.31,1
1903,31.37,7.93,23.42,1
1904,31.39,4.93,-16.44,1
1905,31.4,35.42,4.76,1
1906,31.41,-1.98,7.86,1
1907,31.43,-0.3,18.51,1
1908,31.44,10.88,13.7,1
1909,31.45,-21.98,-8.82,1
1910,31.47,-18.35,-0.22,1
1911,31.48,-5.89,-12.81,1
1912,31.49,-17.61,-2.86,1
1913,31.51,4.18,-23.63,1
1914,31.52,16.38,-1.03,1
1915,31.53,-4.05,22.76,1
1916,31.55,-27.45,-18.79,1
1917,31.56,11.55,0.24,1
1918,31.57,-30.12,7.59,1
1919,31.59,-32.08,1.68,1
1920,31.6,7.39,-20.06,1
1921,31.61,-15.18,7.62,1
1922,31.63,-39.2,23.13,1
1923,31.64,1.72,10.97,1
1924,31.65,-20.73,18.99,1
1925,31.67,-5.82,6.31,1
1926,31.68,8.85,11.73,1
1927,31.69,-0.52,17.43,1
1928,31.71,-25.38,-11.68,1
1929,31.72,-15.06,-37.21,1
1930,31.73,-30.51,4.05,1
1931,31.75,-40.62,-15.63,1
1932,31.76,12.53,-3.78,1
1933,31.77,-8.82,4.03,1
1934,31.78,-5.17,-12.79,1
1935,31.8,-0.36,10.07,1
1936,31.81,-11.01,-1.18,1
1937,31.82,-47.5,-18.83,1
1938,31.84,3.82,11.14,1
1939,31.85,-15.48,0.04,1
1940,31.86,-10.85,-8.68,1
1941,31.88,19.08,-0.41,1
1942,31.89,12.98,21.24,1
1943,31.9,-17.35,-33.28,1
1944,31.92,14.26,-16.75,1
1945,31.93,-19.9,10.11,1
1946,31.94,1.42,-29.48,1
1947,31.96,12.32,11.1,1
1948,31.97,-14.86,5.8,1
1949,31.98,-12.29,-31.59,1
1950,32.0,29.1,-16.07,1
1951,32.01,9.93,2.69,1
1952,32.03,-10.28,-33.27,1
1953,32.04,6.36,-13.15,1
1954,32.05,-32.0,21.59,1
1955,32.07,-15.91,-14.4,1
1956,32.08,16.17,2.8,1
1957,32.09,-5.87,15.42,1
1958,32.11,0.25,-14.89,1
1959,32.12,46.27,2.09,1
1960,32.13,-6.45,28.55,1
1961,32.15,-2.57,-3.02,1
1962,32.16,28.68,18.79,2
1963,32.17,11.07,58.26,2
1964,32.19,14.12,6.47,2
1965,32.2,71.11,20.49,2
1966,32.21,117.59,59.42,2
1967,32.23,195.14,16.98,2
1968,32.24,241.83,42.82,2
1969,32.25,225.08,41.18,2
1970,32.27,156.69,14.21,2
1971,32.28,122.9,33.24,2
1972,32.29,73.95,31.43,2
1973,32.31,17.48,-51.65,2
1974,32.32,-6.7,-61.82,2
1975,32.33,-39.49,-36.21,2
1976,32.35,-81.95,-89.47,2
1977,32.36,-109.09,-56.82,2
1978,32.37,-257.53,-43.78,2
1979,32.39,-307.42,-71.86,2
1980,32.4,-321.77,-31.97,2
1981,32.41,-349.38,8.56,2
1982,32.43,-339.22,-61.07,2
1983,32.44,-249.21,-18.92,2
1984,32.45,-251.88,8.78,2
1985,32.47,-210.0,-22.73,2
1986,32.48,-143.6,17.57,2
1987,32.49,-116.65,34.31,2
1988,32.51,-75.93,-16.96,2
1989,32.52,-32.95,33.73,2
1990,32.53,-7.89,27.38,2
1991,32.54,10.91,-34.67,2
1992,32.56,80.92,5.16,1
1993,32.57,72.45,34.58,1
1994,32.59,42.68,-41.91,1
1995,32.6,105.12,1.74,1
1996,32.61,101.98,31.16,1
1997,32.63,124.76,1.58,1
1998,32.64,140.35,34.65,1
1999,32.65,138.55,48.39,1
2000,32.67,154.64,4.09,1
2001,32.68,177.65,20.06,1
2002,32.69,148.38,57.93,1
2003,32.71,150.07,2.85,1
2004,32.72,155.01,24.13,1
2005,32.73,120.32,53.41,1
2006,32.75,120.11,-6.53,1
2007,32.76,126.37,27.55,1
2008,32.77,102.39,24.74,1
2009,32.79,84.76,-14.69,1
2010,32.8,106.77,13.01,1
2011,32.81,78.04,20.26,1
2012,32.83,69.58,-45.88,1
2013,32.84,70.87,13.62,1
2014,32.85,45.84,33.37,1
2015,32.87,16.57,-28.15,1
2016,32.88,43.88,20.4,1
2017,32.89,18.69,32.37,1
2018,32.91,9.84,-32.13,1
2019,32.92,14.21,4.4,1
2020,32.93,0.84,3.75,1
2021,32.95,-23.35,-47.36,1
2022,32.96,-19.66,-3.21,1
2023,32.97,-31.21,12.68,1
2024,32.99,-33.6,-22.17,1
2025,33.0,-33.09,-5.0,1
2026,33.01,-46.22,10.3,1
2027,33.03,-55.1,-60.91,1
2028,33.04,-39.09,-12.2,1
2029,33.05,-40.49,17.94,1
2030,33.06,-57.91,-28.54,1
2031,33.08,-38.67,0.41,1
2032,33.09,-63.73,-0.25,1
2033,33.11,-58.58,-46.7,1
2034,33.12,-37.88,-12.45,1
2035,33.13,-54.5,7.31,1
2036,33.15,-59.55,-38.48,1
2037,33.16,-43.55,25.84,1
2038,33.17,-47.06,33.42,1
2039,33.19,-27.14,-39.44,1
2040,33.2,-40.44,7.31,1
2041,33.21,-43.72,22.38,1
2042,33.22,-61.66,-35.47,1
2043,33.24,-35.08,14.35,1
2044,33.25,-51.25,-3.21,1
2045,33.27,-50.79,-41.84,1
2046,33.28,-26.6,16.73,1
2047,33.29,-24.9,19.72,1
2048,33.31,-24.2,-35.62,1
2049,33.32,-24.48,-0.28,1
2050,33.33,-19.71,16.13,1
2051,33.35,-22.42,-26.63,1
2052,33.36,-19.91,3.28,1
2053,33.37,-21.51,30.97,1
2054,33.39,-18.56,2.67,1
2055,33.4,1.63,14.64,1
2056,33.41,-8.25,32.77,1
2057,33.43,-6.73,-21.33,1
2058,33.44,3.12,4.07,1
2059,33.45,-5.65,10.03,1
2060,33.47,-1.8,-12.05,1
2061,33.48,10.5,17.02,1
2062,33.49,6.14,40.28,1
2063,33.51,20.62,-0.21,1
2064,33.52,23.79,-10.71,1
2065,33.53,14.92,20.89,1
2066,33.55,19.67,-28.13,1
2067,33.56,7.01,3.31,1
2068,33.57,14.32,24.23,1
2069,33.59,15.53,-17.72,1
2070,33.6,39.5,6.06,1
2071,33.61,26.54,13.32,1
2072,33.63,11.67,-19.13,1
2073,33.64,12.31,20.25,1
2074,33.65,32.44,28.2,1
2075,33.67,4.05,-29.31,1
2076,33.68,12.65,13.72,1
2077,33.69,26.11,15.06,1
2078,33.71,2.08,-25.85,1
2079,33.72,15.93,11.45,1
2080,33.73,7.38,-0.84,1
2081,33.75,3.22,-27.11,1
2082,33.76,15.1,0.42,1
2083,33.77,30.88,3.27,1
2084,33.79,12.67,-28.93,1
2085,33.8,19.63,9.27,1
2086,33.81,12.39,8.58,1
2087,33.83,1.99,-18.5,1
2088,33.84,16.01,15.77,1
2089,33.85,0.61,31.95,1
2090,33.87,-2.9,-19.96,1
2091,33.88,12.46,6.7,1
2092,33.89,12.03,-3.92,1
2093,33.9,-2.48,-42.3,1
2094,33.92,-2.69,-3.46,1
2095,33.93,4.59,10.39,1
2096,33.95,-20.0,-17.59,1
2097,33.96,22.18,2.49,1
2098,33.97,7.24,12.06,1
2099,33.99,-8.59,-19.37,1
2100,34.0,-5.29,18.1,1
2101,34.01,-3.14,39.75,1
2102,34.03,1.95,14.25,1
2103,34.04,-2.11,65.24,1
2104,34.05,-6.96,65.3,1
2105,34.07,-1.18,22.12,1
2106,34.08,-5.21,14.5,1
2107,34.09,9.8,-33.72,1
2108,34.11,-0.1,69.16,1
2109,34.12,54.23,98.41,1
2110,34.13,6.83,1.4,1
2111,34.15,186.47,-116.61,1
2112,34.16,188.15,44.01,1
2113,34.17,-168.1,174.95,1
2114,34.19,-9.17,90.88,1
2115,34.2,-97.28,263.02,1
2116,34.21,-0.12,107.5,1
2117,34.23,-182.44,85.52,1
2118,34.24,-419.93,46.63,1
2119,34.25,-270.53,-11.55,1
2120,34.27,-105.88,-51.09,1
2121,34.28,-70.37,-55.02,1
2122,34.29,-200.02,-101.75,1
2123,34.31,-118.9,-121.46,1
2124,34.32,130.39,-113.37,1
2125,34.33,-104.84,-142.98,1
2126,34.35,81.37,-152.03,1
2127,34.36,297.63,-133.21,1
2128,34.37,24.51,-151.71,1
2129,34.38,220.99,-153.37,1
2130,34.4,386.8,-126.46,1
2131,34.41,214.11,-138.32,1
2132,34.43,52.45,-134.88,1
2133,34.44,-36.55,-102.57,1
2134,34.45,37.92,-111.81,1
2135,34.47,281.71,-104.04,1
2136,34.48,-22.08,-69.81,1
2137,34.49,-117.42,-77.04,1
2138,34.51,174.5,-68.98,1
2139,34.52,104.05,-33.82,1
2140,34.53,177.04,-40.3,1
2141,34.54,125.9,-33.01,1
2142,34.56,-129.11,0.43,1
2143,34.57,78.02,-6.34,1
2144,34.59,22.97,-0.24,1
2145,34.6,-61.62,-35.45,1
2146,34.61,225.99,-127.9,1
2147,34.63,-237.3,-90.48,1
2148,34.64,127.27,-130.43,1
2149,34.65,-222.63,-161.98,1
2150,34.67,145.3,-182.65,1
2151,34.68,99.88,258.78,1
2152,34.69,-94.68,-11.84,1
2153,34.71,-107.67,-255.01,1
2154,34.72,-66.9,121.72,1
2155,34.73,-34.95,164.84,1
2156,34.75,-182.3,141.77,1
2157,34.76,-116.92,63.54,1
2158,34.77,122.88,112.67,1
2159,34.79,-180.43,158.34,1
2160,34.8,-204.21,289.95,1
2161,34.81,-87.42,-71.88,1
2162,34.83,-107.08,145.99,1
2163,34.84,167.29,-13.8,1
2164,34.85,-489.58,253.81,1
2165,34.87,4.39,443.09,1
2166,34.88,-245.71,-39.53,1
2167,34.89,8.23,-10.7,1
2168,34.91,-32.42,-95.89,1
2169,34.92,53.45,33.23,1
2170,34.93,168.46,47.8,1
2171,34.95,243.07,85.7,1
2172,34.96,225.33,140.64,1
2173,34.97,201.73,157.53,1
2174,34.99,122.58,160.44,1
2175,35.0,-11.96,197.97,1
2176,35.01,-90.16,191.84,1
2177,35.03,-197.64,179.9,1
2178,35.04,-207.39,200.84,1
2179,35.05,-195.72,183.73,1
2180,35.06,-249.86,159.1,1
2181,35.08,-211.89,170.34,1
2182,35.09,-141.42,147.66,1
2183,35.11,-106.74,114.0,1
2184,35.12,-56.2,120.55,1
2185,35.13,0.82,93.83,1
2186,35.15,-16.6,59.14,1
2187,35.16,45.63,62.49,1
2188,35.17,68.07,34.74,1
2189,35.19,35.99,1.68,1
2190,35.2,64.72,48.11,1
2191,35.21,84.64,164.52,1
2192,35.22,72.6,216.54,1
2193,35.24,60.1,127.05,1
2194,35.25,90.93,108.49,1
2195,35.27,82.29,70.54,1
2196,35.28,82.95,-20.54,1
2197,35.29,100.26,-59.89,1
2198,35.31,64.86,-90.87,1
2199,35.32,67.78,-158.37,1
2200,35.33,75.21,-185.83,1
2201,35.35,62.74,-173.48,1
2202,35.36,94.47,-273.65,1
2203,35.37,70.76,-244.06,1
2204,35.39,70.08,-236.8,1
2205,35.4,63.84,-317.2,1
2206,35.41,74.25,-293.88,1
2207,35.43,29.73,-255.84,1
2208,35.44,30.68,-328.27,1
2209,35.45,54.18,-272.63,1
2210,35.47,25.71,-224.44,1
2211,35.48,13.94,-296.77,1
2212,35.49,44.17,-265.81,1
2213,35.51,30.9,-218.78,1
2214,35.52,20.36,-265.64,1
2215,35.53,28.85,-205.31,1
2216,35.55,-0.78,-150.63,1
2217,35.56,5.45,-197.4,1
2218,35.57,22.54,-157.13,1
2219,35.59,-24.03,-88.91,1
2220,35.6,-20.68,-123.79,1
2221,35.61,5.36,-39.41,1
2222,35.63,-28.04,-19.0,1
2223,35.64,-31.3,-66.42,1
2224,35.65,5.53,-14.6,1
2225,35.67,-30.26,25.41,1
2226,35.68,-21.55,-16.98,1
2227,35.69,6.63,16.24,1
2228,35.71,-19.91,64.79,1
2229,35.72,-22.8,15.09,1
2230,35.73,-28.35,54.52,1
2231,35.75,-56.39,103.12,1
2232,35.76,-21.83,47.47,1
2233,35.77,-11.76,105.56,1
2234,35.79,-31.65,144.37,1
2235,35.8,-40.08,80.67,1
2236,35.81,-15.56,113.77,1
2237,35.83,-50.39,143.37,1
2238,35.84,-31.38,83.27,1
2239,35.85,-25.5,111.97,1
2240,35.87,-38.38,164.31,1
2241,35.88,-25.18,101.94,1
2242,35.89,-8.52,139.34,1
2243,35.9,-42.64,155.59,1
2244,35.92,-21.34,89.74,1
2245,35.93,0.31,146.2,1
2246,35.95,-16.17,149.5,1
2247,35.96,-4.01,81.01,1
2248,35.97,11.88,122.52,1
2249,35.99,-29.93,130.71,1
2250,36.0,-4.75,66.36,1
2251,36.01,12.02,86.15,1
2252,36.03,-12.66,86.37,1
2253,36.04,-30.62,37.21,1
2254,36.05,-6.81,88.77,1
2255,36.07,-9.33,94.51,1
2256,36.08,-13.15,19.08,1
2257,36.09,14.41,41.63,1
2258,36.11,-17.55,74.37,1
2259,36.12,-5.95,-21.02,1
2260,36.13,23.39,37.14,1
2261,36.15,-14.58,65.07,1
2262,36.16,4.12,-1.78,2
2263,36.17,22.05,-6.29,2
2264,36.19,-13.71,23.62,2
2265,36.2,-1.76,-32.92,2
2266,36.21,18.94,-41.66,2
2267,36.23,-14.56,-0.85,2
2268,36.24,24.85,-65.21,2
2269,36.25,144.78,-14.14,2
2270,36.27,196.45,6.67,2
2271,36.28,212.38,-46.12,2
2272,36.29,215.99,-13.8,2
2273,36.31,118.25,3.77,2
2274,36.32,55.79,-64.2,2
2275,36.33,16.0,-26.49,2
2276,36.35,-55.92,-17.99,2
2277,36.36,-85.96,-70.54,2
2278,36.37,-95.92,-34.21,2
2279,36.38,-135.08,3.4,2
2280,36.4,-159.36,-60.6,2
2281,36.41,-134.6,-57.67,2
2282,36.43,-180.41,16.43,2
2283,36.44,-178.18,-48.35,2
2284,36.45,-127.1,-18.87,2
2285,36.47,-140.73,5.19,2
2286,36.48,-127.56,-58.06,2
2287,36.49,-88.23,-16.44,2
2288,36.51,-109.24,2.03,2
2289,36.52,-79.85,-60.19,2
2290,36.53,-43.42,-41.72,2
2291,36.54,-48.08,-16.3,2
2292,36.56,-23.37,-58.34,1
2293,36.57,16.26,-36.87,1
2294,36.59,-6.9,-10.65,1
2295,36.6,21.05,-55.02,1
2296,36.61,63.21,-11.75,1
2297,36.63,25.5,-6.89,1
2298,36.64,49.96,-44.2,1
2299,36.65,78.04,-8.19,1
2300,36.67,52.41,-8.93,1
2301,36.68,63.19,-40.36,1
2302,36.69,95.13,-1.81,1
2303,36.71,54.44,12.09,1
2304,36.72,108.63,-18.57,1
2305,36.73,106.21,-0.87,1
2306,36.75,72.05,14.9,1
2307,36.76,70.05,-36.95,1
2308,36.77,87.47,-0.42,1
2309,36.79,58.34,15.69,1
2310,36.8,70.11,-32.31,1
2311,36.81,75.29,15.78,1
2312,36.83,53.94,27.03,1
2313,36.84,53.46,-20.54,1
2314,36.85,81.13,-1.2,1
2315,36.87,64.12,23.85,1
2316,36.88,70.42,-10.89,1
2317,36.89,66.51,10.31,1
2318,36.9,35.65,37.44,1
2319,36.92,11.12,-17.5,1
2320,36.93,7.24,7.4,1
2321,36.95,-32.58,18.9,1
2322,36.96,-5.46,-1.4,1
2323,36.97,2.19,36.97,1
2324,36.99,-30.59,21.61,1
2325,37.0,-12.85,5.28,1
2326,37.01,-8.37,11.69,1
2327,37.03,-24.22,23.44,1
2328,37.04,-31.78,1.38,1
2329,37.05,-14.78,10.05,1
2330,37.06,-64.03,23.08,1
2331,37.08,-19.66,7.6,1
2332,37.09,-18.9,43.83,1
2333,37.11,-29.79,21.44,1
2334,37.12,-16.43,10.8,1
2335,37.13,-4.63,14.58,1
2336,37.15,-46.61,9.72,1
2337,37.16,-37.11,0.29,1
2338,37.17,-11.62,8.16,1
2339,37.19,-54.62,41.51,1
2340,37.2,-31.41,1.35,1
2341,37.21,-0.22,-8.59,1
2342,37.22,-48.3,6.04,1
2343,37.24,-35.07,2.25,1
2344,37.25,-15.88,-8.91,1
2345,37.27,-41.12,-0.62,1
2346,37.28,-22.29,-23.89,1
2347,37.29,-11.12,-11.11,1
2348,37.31,-38.25,-3.23,1
2349,37.32,0.7,-2.35,1
2350,37.33,-14.75,10.78,1
2351,37.35,-41.21,23.01,1
2352,37.36,-19.18,-15.94,1
2353,37.37,-1.81,-11.72,1
2354,37.39,-36.53,2.6,1
2355,37.4,4.33,-16.01,1
2356,37.41,17.88,-7.72,1
2357,37.43,-25.1,1.37,1
2358,37.44,-14.58,2.94,1
2359,37.45,21.9,-22.65,1
2360,37.47,-6.33,-5.55,1
2361,37.48,0.9,-1.66,1
2362,37.49,39.45,-13.71,1
2363,37.51,-14.51,8.05,1
2364,37.52,4.07,3.95,1
2365,37.53,14.8,-17.73,1
2366,37.54,-16.06,11.22,1
2367,37.56,-1.87,-2.82,1
2368,37.57,28.14,-5.35,1
2369,37.59,-13.21,12.37,1
2370,37.6,13.24,-18.06,1
2371,37.61,13.37,-30.23,1
2372,37.63,-20.53,-7.62,1
2373,37.64,8.95,14.65,1
2374,37.65,26.57,-4.7,1
2375,37.67,3.19,7.27,1
2376,37.68,5.98,4.91,1
2377,37.69,43.94,-5.41,1
2378,37.71,-2.48,-4.25,1
2379,37.72,7.3,1.28,1
2380,37.73,27.39,-0.04,1
2381,37.75,-13.61,6.76,1
2382,37.76,-1.39,15.86,1
2383,37.77,19.67,-1.15,1
2384,37.79,-9.2,11.89,1
2385,37.8,-1.98,11.69,1
2386,37.81,16.17,-9.11,1
2387,37.83,7.44,0.72,1
2388,37.84,20.92,10.77,1
2389,37.85,30.22,9.93,1
2390,37.87,-21.13,-6.36,1
2391,37.88,-8.5,-4.65,1
2392,37.89,8.8,-23.83,1
2393,37.91,-24.25,-6.33,1
2394,37.92,9.9,22.04,1
2395,37.93,43.66,-16.23,1
2396,37.95,-7.32,4.3,1
2397,37.96,-5.37,-3.03,1
2398,37.97,35.04,-38.56,1
2399,37.99,-18.87,0.64,1
2400,38.0,7.03,17.46,1
2401,38.01,8.43,-11.08,1
2402,38.03,-12.88,7.12,1
2403,38.04,7.78,29.41,1
2404,38.05,-0.99,-10.91,1
2405,38.07,-17.01,11.51,1
2406,38.08,-8.55,18.76,1
2407,38.09,18.16,-18.58,1
2408,38.11,-13.44,-2.54,1
2409,38.12,-15.65,19.22,1
2410,38.13,-3.35,-13.84,1
2411,38.15,-21.09,0.15,1
2412,38.16,-7.93,19.25,0
2413,38.17,21.96,-33.99,0
2414,38.19,-13.04,-4.76,0
2415,38.2,-9.99,17.37,0
2416,38.21,11.21,-39.33,0
2417,38.22,-36.32,16.84,0
2418,38.24,-43.59,36.91,0
2419,38.25,-86.47,-17.59,0
2420,38.27,-167.19,13.05,0
2421,38.28,-210.56,44.5,0
2422,38.29,-170.62,-10.8,0
2423,38.31,-194.89,1.25,0
2424,38.32,-140.98,18.83,0
2425,38.33,-83.15,-84.29,0
2426,38.35,-40.34,-59.86,0
2427,38.36,-14.69,-33.43,0
2428,38.37,35.6,-63.62,0
2429,38.38,69.71,-8.15,0
2430,38.4,129.86,10.95,0
2431,38.41,242.24,-20.45,0
2432,38.43,278.37,16.99,0
2433,38.44,333.14,43.72,0
2434,38.45,358.63,-8.31,0
2435,38.47,295.11,31.25,0
2436,38.48,278.47,59.13,0
2437,38.49,251.73,-5.27,0
2438,38.51,155.37,19.15,0
2439,38.52,151.24,61.83,0
2440,38.53,114.46,-19.72,0
2441,38.55,48.33,12.69,0
2442,38.56,35.15,58.02,1
2443,38.57,29.54,-11.48,1
2444,38.59,-49.74,3.69,1
2445,38.6,-55.99,55.84,1
2446,38.61,5.78,-36.39,1
2447,38.63,-57.79,15.85,1
2448,38.64,-81.86,42.87,1
2449,38.65,-91.62,-27.77,1
2450,38.67,-147.93,-5.76,1
2451,38.68,-154.99,11.96,1
2452,38.69,-141.81,-25.28,1
2453,38.71,-179.1,-11.05,1
2454,38.72,-152.55,32.64,1
2455,38.73,-134.98,-29.83,1
2456,38.75,-162.78,4.11,1
2457,38.76,-137.43,13.72,1
2458,38.77,-109.71,-42.91,1
2459,38.79,-145.63,-9.83,1
2460,38.8,-101.44,18.03,1
2461,38.81,-87.07,-41.0,1
2462,38.83,-110.71,2.08,1
2463,38.84,-83.43,26.48,1
2464,38.85,-60.71,-48.3,1
2465,38.87,-88.47,-9.76,1
2466,38.88,-61.58,24.02,1
2467,38.89,-46.57,-55.5,1
2468,38.9,-40.83,-10.25,1
2469,38.92,-42.04,6.75,1
2470,38.93,-9.25,-53.75,1
2471,38.95,-32.09,-0.93,1
2472,38.96,0.88,27.19,1
2473,38.97,24.58,-37.75,1
2474,38.99,-17.37,5.77,1
2475,39.0,24.83,19.96,1
2476,39.01,44.25,-58.49,1
2477,39.03,18.79,-2.25,1
2478,39.04,34.43,53.01,1
2479,39.05,60.89,-39.93,1
2480,39.06,32.25,4.65,1
2481,39.08,53.85,31.47,1
2482,39.09,67.1,-20.77,1
2483,39.11,52.0,4.53,1
2484,39.12,46.56,23.17,1
2485,39.13,68.65,-28.61,1
2486,39.15,23.57,22.71,1
2487,39.16,67.83,53.17,1
2488,39.17,70.89,-36.88,1
2489,39.19,23.87,14.33,1
2490,39.2,46.15,31.57,1
2491,39.21,62.45,-27.43,1
2492,39.23,42.21,22.39,1
2493,39.24,43.86,30.53,1
2494,39.25,52.23,-23.94,1
2495,39.27,19.54,20.15,1
2496,39.28,38.86,44.95,1
2497,39.29,42.17,-28.98,1
2498,39.31,10.16,17.36,1
2499,39.32,32.87,23.04,1
2500,39.33,35.11,-45.33,1
2501,39.35,13.83,-21.62,1
2502,39.36,26.12,33.01,1
2503,39.37,36.9,-23.33,1
2504,39.39,8.66,5.8,1
2505,39.4,25.78,39.56,1
2506,39.41,37.72,-48.55,1
2507,39.43,5.97,-4.63,1
2508,39.44,-5.88,21.84,1
2509,39.45,8.45,-27.09,1
2510,39.47,-8.2,1.11,1
2511,39.48,15.02,21.93,1
2512,39.49,8.12,-28.79,1
2513,39.51,-23.48,-6.54,1
2514,39.52,0.52,16.16,1
2515,39.53,-9.92,-35.61,1
2516,39.54,-37.89,16.57,1
2517,39.56,-18.07,31.99,1
2518,39.57,12.69,-30.24,1
2519,39.59,-36.95,4.32,1
2520,39.6,-11.56,32.04,1
2521,39.61,-8.76,-30.21,1
2522,39.63,-19.04,7.11,1
2523,39.64,-20.22,22.48,1
2524,39.65,2.49,-21.26,1
2525,39.67,-23.98,6.13,1
2526,39.68,-1.46,47.55,1
2527,39.69,-10.82,-7.46,1
2528,39.71,-18.86,7.01,1
2529,39.72,-15.02,13.8,1
2530,39.73,-8.51,-23.16,1
2531,39.75,-30.43,-4.82,1
2532,39.76,-18.19,28.15,1
2533,39.77,-11.46,-28.24,1
2534,39.79,-22.06,-14.15,1
2535,39.8,-12.08,26.46,1
2536,39.81,-0.83,-16.11,1
2537,39.83,-11.76,10.28,1
2538,39.84,-16.33,12.83,1
2539,39.85,-4.95,-35.55,1
2540,39.87,-13.6,-3.67,1
2541,39.88,-21.31,25.12,1
2542,39.89,-0.04,-24.17,1
2543,39.91,-19.98,2.78,1
2544,39.92,-7.51,26.9,1
2545,39.93,18.18,-31.24,1
2546,39.95,-8.67,8.44,1
2547,39.96,-17.43,17.58,1
2548,39.97,4.87,-27.32,1
2549,39.99,-10.1,-8.41,1
2550,40.0,-14.63,13.63,1
2551,40.01,3.36,-32.23,1
2552,40.03,-16.86,-7.31,1
2553,40.04,5.25,7.17,1
2554,40.05,24.9,-14.46,1
2555,40.07,-17.22,13.58,1
2556,40.08,-10.83,13.56,1
2557,40.09,13.17,-27.61,1
2558,40.11,-3.97,-4.48,1
2559,40.12,-1.78,2.76,1
2560,40.13,2.95,-7.55,1
2561,40.15,6.01,11.58,1
2562,40.16,1.35,18.9,0
2563,40.17,22.23,-1.26,0
2564,40.19,-2.65,1.95,0
2565,40.2,6.84,18.62,0
2566,40.21,10.83,-51.79,0
2567,40.22,7.71,-16.21,0
2568,40.24,-56.86,41.45,0
2569,40.25,-149.11,-21.03,0
2570,40.27,-218.16,-5.46,0
2571,40.28,-243.3,1.92,0
2572,40.29,-178.87,-10.34,0
2573,40.31,-130.23,116.93,0
2574,40.32,-84.27,37.79,0
2575,40.33,22.23,-104.35,0
2576,40.35,37.73,-5.87,0
2577,40.36,135.78,-25.33,0
2578,40.37,215.05,-16.65,0
2579,40.38,205.5,-15.98,0
2580,40.4,229.36,-6.56,0
2581,40.41,227.62,-1.6,0
2582,40.43,226.56,0.44,0
2583,40.44,200.76,-0.12,0
2584,40.45,188.36,-21.95,0
2585,40.47,161.86,-16.06,0
2586,40.48,133.32,-5.04,0
2587,40.49,122.68,6.54,0
2588,40.51,89.13,-5.93,0
2589,40.52,62.9,25.21,0
2590,40.53,49.05,-1.06,0
2591,40.55,18.11,-3.36,0
2592,40.56,-4.55,29.49,1
2593,40.57,3.42,28.88,1
2594,40.59,-24.74,-6.13,1
2595,40.6,-49.79,17.48,1
2596,40.61,-63.6,22.49,1
2597,40.63,-67.74,32.17,1
2598,40.64,-78.13,16.19,1
2599,40.65,-70.94,27.19,1
2600,40.67,-60.04,12.64,1
2601,40.68,-94.34,35.7,1
2602,40.69,-90.77,13.8,1
2603,40.71,-78.7,13.26,1
2604,40.72,-121.16,23.12,1
2605,40.73,-95.0,27.0,1
2606,40.75,-92.95,-9.59,1
2607,40.76,-94.61,-8.35,1
2608,40.77,-112.68,-1.87,1
2609,40.79,-92.08,-25.49,1
2610,40.8,-107.72,-19.15,1
2611,40.81,-72.62,6.11,1
2612,40.83,-64.61,-35.15,1
2613,40.84,-72.12,-25.17,1
2614,40.85,-49.09,-11.23,1
2615,40.87,-34.54,-23.24,1
2616,40.88,-54.88,-12.63,1
2617,40.89,-53.33,6.82,1
2618,40.9,-25.51,-21.73,1
2619,40.92,-25.37,-6.22,1
2620,40.93,-25.67,19.81,1
2621,40.95,-6.23,-9.67,1
2622,40.96,-11.09,6.51,1
2623,40.97,14.76,-3.76,1
2624,40.99,16.48,-22.8,1
2625,41.0,-10.71,-13.85,1
2626,41.01,4.38,-5.34,1
2627,41.03,-4.47,-24.39,1
2628,41.04,3.29,-8.93,1
2629,41.05,33.91,1.96,1
2630,41.06,56.82,-17.72,1
2631,41.08,32.36,-4.47,1
2632,41.09,36.77,-3.46,1
2633,41.11,43.55,-28.13,1
2634,41.12,21.07,0.34,1
2635,41.13,46.41,27.37,1
2636,41.15,40.38,-7.99,1
2637,41.16,30.79,-12.43,1
2638,41.17,45.29,35.17,1
2639,41.19,48.19,-9.82,1
2640,41.2,23.85,1.75,1
2641,41.21,48.07,39.16,1
2642,41.23,58.23,-14.47,1
2643,41.24,25.02,-5.16,1
2644,41.25,26.32,19.55,1
2645,41.27,37.7,-18.32,1
2646,41.28,13.56,5.3,1
2647,41.29,14.32,30.39,1
2648,41.31,34.64,-26.87,1
2649,41.32,17.15,-7.08,1
2650,41.33,22.87,13.4,1
2651,41.35,51.59,-16.99,1
2652,41.36,-9.47,1.47,1
2653,41.37,-0.6,2.4,1
2654,41.38,30.81,-36.2,1
2655,41.4,2.01,0.55,1
2656,41.41,12.84,42.82,1
2657,41.43,26.75,-18.84,1
2658,41.44,-2.6,4.14,1
2659,41.45,4.78,45.6,1
2660,41.47,18.18,-30.72,1
2661,41.48,-1.23,-0.7,1
2662,41.49,10.9,21.78,1
2663,41.51,12.36,-14.63,1
2664,41.52,-3.67,9.28,1
2665,41.53,-2.24,28.2,1
2666,41.54,10.54,-33.35,1
2667,41.56,-8.0,1.42,1
2668,41.57,-5.65,36.92,1
2669,41.59,8.37,-12.11,1
2670,41.6,-26.03,0.93,1
2671,41.61,-17.6,36.37,1
2672,41.63,-8.3,-20.8,1
2673,41.64,-20.2,-0.07,1
2674,41.65,-18.12,20.63,1
2675,41.67,16.44,-43.95,1
2676,41.68,-20.0,3.46,1
2677,41.69,-23.04,28.54,1
2678,41.71,0.46,-45.47,1
2679,41.72,-33.63,20.2,1
2680,41.73,-29.01,61.28,1
2681,41.75,5.89,-48.39,1
2682,41.76,-15.95,-1.85,1
2683,41.77,-8.25,55.15,1
2684,41.79,11.17,-29.07,1
2685,41.8,-14.1,6.92,1
2686,41.81,-33.27,22.61,1
2687,41.83,-8.88,-32.54,1
2688,41.84,-25.66,8.65,1
2689,41.85,-31.56,42.08,1
2690,41.87,19.99,-46.94,1
2691,41.88,-15.26,-12.66,1
2692,41.89,-16.1,28.85,1
2693,41.91,8.07,-22.84,1
2694,41.92,-8.79,1.59,1
2695,41.93,-12.06,53.53,1
2696,41.95,19.06,-35.75,1
2697,41.96,-19.28,-15.32,1
2698,41.97,-36.14,17.41,1
2699,41.99,14.51,-31.21,1
2700,42.0,5.38,6.52,1
2701,42.01,-2.61,31.99,1
2702,42.03,15.98,-58.01,1
2703,42.04,6.19,-21.8,1
2704,42.05,-18.03,25.72,1
2705,42.06,10.86,-44.32,1
2706,42.08,-17.72,12.67,1
2707,42.09,10.62,29.71,1
2708,42.11,26.49,-44.26,1
2709,42.12,2.02,-17.35,1
2710,42.13,2.48,40.36,1
2711,42.15,27.38,-31.09,1
2712,42.16,8.28,5.53,2
2713,42.17,-1.06,39.91,2
2714,42.19,13.47,-28.8,2
2715,42.2,-9.11,0.32,2
2716,42.21,-21.81,32.01,2
2717,42.22,23.09,-6.55,2
2718,42.24,2.21,6.88,2
2719,42.25,-2.16,20.96,2
2720,42.27,40.19,-46.97,2
2721,42.28,-2.5,6.0,2
2722,42.29,-2.53,41.86,2
2723,42.31,9.04,16.56,2
2724,42.32,-6.16,56.84,2
2725,42.33,85.69,90.2,2
2726,42.35,176.67,11.54,2
2727,42.36,206.54,32.74,2
2728,42.37,217.35,38.96,2
2729,42.38,199.23,-37.98,2
2730,42.4,132.5,-11.08,2
2731,42.41,78.99,-15.06,2
2732,42.43,56.54,-82.63,2
2733,42.44,0.13,-58.49,2
2734,42.45,-39.92,-33.37,2
2735,42.47,-57.57,-90.43,2
2736,42.48,-178.32,-47.27,2
2737,42.49,-306.65,-10.85,2
2738,42.51,-309.29,-74.18,2
2739,42.52,-346.63,-34.9,2
2740,42.53,-328.06,8.17,2
2741,42.55,-273.93,-33.39,2
2742,42.56,-277.93,-6.76,1
2743,42.57,-219.7,22.26,1
2744,42.59,-134.18,-36.15,1
2745,42.6,-126.98,20.16,1
2746,42.61,-77.13,34.83,1
2747,42.63,-17.08,-20.9,1
2748,42.64,-9.94,28.89,1
2749,42.65,-0.72,53.3,1
2750,42.67,65.98,-19.17,1
2751,42.68,55.16,22.05,1
2752,42.69,73.11,55.29,1
2753,42.71,95.98,-17.43,1
2754,42.72,93.06,15.11,1
2755,42.73,91.94,29.59,1
2756,42.75,122.32,-12.19,1
2757,42.76,102.32,19.72,1
2758,42.77,115.55,38.18,1
2759,42.79,139.01,-6.11,1
2760,42.8,117.91,13.64,1
2761,42.81,100.31,42.95,1
2762,42.83,133.96,-3.73,1
2763,42.84,108.31,34.21,1
2764,42.85,103.57,34.45,1
2765,42.87,127.45,-28.97,1
2766,42.88,86.09,-1.85,1
2767,42.89,85.14,24.6,1
2768,42.9,115.18,-21.3,1
2769,42.92,86.71,25.7,1
2770,42.93,64.52,28.53,1
2771,42.95,84.68,-8.9,1
2772,42.96,36.73,23.72,1
2773,42.97,23.56,13.97,1
2774,42.99,55.3,-32.19,1
2775,43.0,25.76,-1.96,1
2776,43.01,16.94,22.45,1
2777,43.03,25.59,-18.3,1
2778,43.04,6.59,12.72,1
2779,43.05,-13.46,33.97,1
2780,43.06,20.87,-30.0,1
2781,43.08,-30.83,-5.89,1
2782,43.09,-25.7,-10.31,1
2783,43.11,-0.71,-2.84,1
2784,43.12,-35.11,-4.45,1
2785,43.13,-44.19,-5.13,1
2786,43.15,-26.05,-29.42,1
2787,43.16,-58.81,2.24,1
2788,43.17,-68.12,6.17,1
2789,43.19,-17.46,-39.57,1
2790,43.2,-62.72,-9.36,1
2791,43.21,-61.98,11.28,1
2792,43.23,-32.88,-19.34,1
2793,43.24,-56.37,-6.19,1
2794,43.25,-60.15,5.77,1
2795,43.27,-28.78,-16.36,1
2796,43.28,-49.79,-14.06,1
2797,43.29,-37.87,-9.02,1
2798,43.31,-21.88,-20.69,1
2799,43.32,-51.0,10.51,1
2800,43.33,-57.05,1.96,1
2801,43.35,-26.3,-7.17,1
2802,43.36,-44.81,6.53,1
2803,43.37,-38.43,15.16,1
2804,43.38,2.92,-12.32,1
2805,43.4,-42.2,2.11,1
2806,43.41,-27.54,-12.45,1
2807,43.43,-10.36,-20.03,1
2808,43.44,-30.96,-6.83,1
2809,43.45,-32.13,8.54,1
2810,43.47,-6.31,-18.48,1
2811,43.48,-30.75,-1.67,1
2812,43.49,-21.64,0.43,1
2813,43.51,-4.63,5.19,1
2814,43.52,-21.99,9.35,1
2815,43.53,-23.29,4.65,1
2816,43.54,25.87,11.69,1
2817,43.56,-5.69,-11.4,1
2818,43.57,-2.83,10.49,1
2819,43.59,29.13,-3.47,1
2820,43.6,5.02,-6.73,1
2821,43.61,2.35,5.76,1
2822,43.63,43.26,20.01,1
2823,43.64,-8.75,4.45,1
2824,43.65,6.64,3.04,1
2825,43.67,26.68,13.89,1
2826,43.68,-0.25,-10.18,1
2827,43.69,14.98,1.89,1
2828,43.71,36.9,3.14,1
2829,43.72,4.79,2.55,1
2830,43.73,3.5,-8.78,1
2831,43.75,27.8,-9.32,1
2832,43.76,2.77,-5.79,1
2833,43.77,6.12,-10.23,1
2834,43.79,31.97,4.66,1
2835,43.8,9.43,-2.99,1
2836,43.81,15.34,6.8,1
2837,43.83,27.14,38.28,1
2838,43.84,-8.17,1.44,1
2839,43.85,4.5,-8.22,1
2840,43.87,41.58,6.66,1
2841,43.88,-4.12,-24.42,1
2842,43.89,0.63,0.46,1
2843,43.91,22.5,24.01,1
2844,43.92,-7.47,-25.56,1
2845,43.93,11.9,-4.58,1
2846,43.95,21.26,-0.81,1
2847,43.96,-5.83,-14.12,1
2848,43.97,5.65,15.12,1
2849,43.99,23.34,11.42,1
2850,44.0,-4.08,-16.22,1
2851,44.01,-6.63,-1.98,1
2852,44.03,34.0,9.43,1
2853,44.04,-8.02,-2.68,1
2854,44.05,-9.26,5.45,1
2855,44.06,-12.07,21.1,1
2856,44.08,-10.1,7.42,1
2857,44.09,-10.44,18.6,1
2858,44.11,18.16,39.51,1
2859,44.12,-5.09,62.21,1
2860,44.13,-8.46,133.0,1
2861,44.15,9.82,156.8,1
2862,44.16,19.98,235.63,1
2863,44.17,23.84,216.57,1
2864,44.19,62.66,134.68,1
2865,44.2,-18.61,55.41,1
2866,44.21,-292.75,171.26,1
2867,44.22,-127.85,40.41,1
2868,44.24,-77.16,45.28,1
2869,44.25,-283.29,-26.8,1
2870,44.27,-142.61,-67.95,1
2871,44.28,28.09,-80.42,1
2872,44.29,-33.43,-115.71,1
2873,44.31,-103.71,-144.73,1
2874,44.32,-37.46,-140.63,1
2875,44.33,-59.36,-159.75,1
2876,44.35,19.37,-177.02,1
2877,44.36,121.12,-159.28,1
2878,44.37,157.91,-169.08,1
2879,44.38,90.84,-177.63,1
2880,44.4,130.25,-151.32,1
2881,44.41,533.79,-152.93,1
2882,44.43,76.14,-156.29,1
2883,44.44,62.42,-125.34,1
2884,44.45,224.19,-121.95,1
2885,44.47,-86.54,-121.81,1
2886,44.48,39.61,-89.46,1
2887,44.49,53.62,-83.05,1
2888,44.51,524.51,-81.78,1
2889,44.52,-156.5,-49.88,1
2890,44.53,5.13,-44.47,1
2891,44.55,251.46,-51.2,1
2892,44.56,67.72,-5.66,1
2893,44.57,250.37,-39.91,1
2894,44.59,150.14,-186.75,1
2895,44.6,22.21,-225.77,1
2896,44.61,-11.76,-94.68,1
2897,44.63,-169.99,-301.25,1
2898,44.64,35.34,-148.45,1
2899,44.65,238.26,211.11,1
2900,44.67,141.86,68.49,1
2901,44.68,-435.54,-12.74,1
2902,44.69,-398.76,-130.79,1
2903,44.71,-388.34,288.58,1
2904,44.72,-85.59,-62.82,1
2905,44.73,-189.28,326.96,1
2906,44.75,-243.73,86.98,1
2907,44.76,-256.96,152.97,1
2908,44.77,-183.5,132.61,1
2909,44.79,148.37,-64.45,1
2910,44.8,58.5,-78.27,1
2911,44.81,-76.5,-21.05,1
2912,44.83,48.36,32.05,1
2913,44.84,-1.9,114.38,1
2914,44.85,117.04,168.26,1
2915,44.87,199.92,191.67,1
2916,44.88,215.15,240.42,1
2917,44.89,147.3,266.55,1
2918,44.9,79.27,263.8,1
2919,44.92,-48.37,288.72,1
2920,44.93,-123.48,293.05,1
2921,44.95,-129.54,272.86,1
2922,44.96,-193.97,279.05,1
2923,44.97,-190.9,272.03,1
2924,44.99,-180.83,237.08,1
2925,45.0,-177.54,233.88,1
2926,45.01,-174.63,217.0,1
2927,45.03,-127.51,176.55,1
2928,45.04,-130.92,167.79,1
2929,45.05,-95.92,148.61,1
2930,45.07,-61.14,103.28,1
2931,45.08,-57.68,108.59,1
2932,45.09,-42.3,198.62,1
2933,45.11,-18.93,281.04,1
2934,45.12,-26.12,196.48,1
2935,45.13,-0.09,186.9,1
2936,45.15,25.08,149.18,1
2937,45.16,-1.31,28.35,1
2938,45.17,53.11,5.18,1
2939,45.19,72.77,-26.52,1
2940,45.2,43.72,-134.3,1
2941,45.21,62.91,-133.83,1
2942,45.22,63.39,-164.52,1
2943,45.24,48.64,-269.16,1
2944,45.25,70.85,-261.76,1
2945,45.27,95.98,-255.48,1
2946,45.28,68.57,-307.3,1
2947,45.29,100.47,-290.9,1
2948,45.31,84.12,-279.45,1
2949,45.32,107.49,-354.08,1
2950,45.33,95.07,-309.59,1
2951,45.35,105.02,-286.59,1
2952,45.36,58.32,-335.13,1
2953,45.37,71.28,-289.05,1
2954,45.38,64.47,-261.11,1
2955,45.4,42.88,-300.27,1
2956,45.41,60.41,-245.95,1
2957,45.43,63.63,-209.86,1
2958,45.44,30.04,-266.7,1
2959,45.45,41.91,-187.59,1
2960,45.47,36.79,-141.08,1
2961,45.48,25.76,-184.06,1
2962,45.49,34.99,-126.76,1
2963,45.51,55.41,-20.59,1
2964,45.52,13.12,33.52,1
2965,45.53,16.9,85.76,1
2966,45.54,10.74,123.09,1
2967,45.56,-45.14,20.56,1
2968,45.57,-32.05,-31.66,1
2969,45.59,4.53,-77.99,1
2970,45.6,-2.48,-161.54,1
2971,45.61,25.45,-120.23,1
2972,45.63,29.49,-61.2,1
2973,45.64,6.76,-67.35,1
2974,45.65,34.0,-16.54,1
2975,45.67,22.34,33.14,1
2976,45.68,-1.26,6.98,1
2977,45.69,0.19,63.15,1
2978,45.71,15.14,109.77,1
2979,45.72,-22.41,86.36,1
2980,45.73,-17.53,138.63,1
2981,45.75,5.45,188.95,1
2982,45.76,-21.42,120.99,1
2983,45.77,12.46,145.41,1
2984,45.79,16.92,138.56,1
2985,45.8,-36.69,96.62,1
2986,45.81,-41.36,131.57,1
2987,45.83,-21.27,159.7,1
2988,45.84,-66.65,100.7,1
2989,45.85,-43.84,149.94,1
2990,45.87,-36.48,147.61,1
2991,45.88,-54.51,104.6,1
2992,45.89,-48.48,136.62,1
2993,45.9,-22.6,138.83,1
2994,45.92,-43.87,76.87,1
2995,45.93,-38.64,111.44,1
2996,45.95,-39.53,126.77,1
2997,45.96,-44.92,46.7,1
2998,45.97,-12.55,93.14,1
2999,45.99,-8.02,110.39,1
3000,46.0,-23.36,67.0,1
3001,46.01,-29.14,67.92,1
3002,46.03,-11.6,83.18,1
3003,46.04,-43.13,34.29,1
3004,46.05,-29.12,60.96,1
3005,46.06,-24.96,45.36,1
3006,46.08,-29.66,6.79,1
3007,46.09,-8.97,14.68,1
3008,46.11,2.2,19.46,1
3009,46.12,-11.14,-23.11,1
3010,46.13,-7.6,7.49,1
3011,46.15,8.5,21.08,1
3012,46.16,-7.27,-39.21,2
3013,46.17,13.45,-11.94,2
3014,46.19,18.16,-17.17,2
3015,46.2,14.27,-38.59,2
3016,46.21,5.65,-35.86,2
3017,46.22,28.33,-11.09,2
3018,46.24,-0.6,-47.15,2
3019,46.25,32.33,-9.05,2
3020,46.27,131.27,-32.82,2
3021,46.28,221.41,-60.1,2
3022,46.29,227.54,11.57,2
3023,46.31,231.57,-55.41,2
3024,46.32,173.69,-61.12,2
3025,46.33,81.81,-65.83,2
3026,46.35,47.48,-87.19,2
3027,46.36,-53.96,-100.24,2
3028,46.37,-92.38,-98.35,2
3029,46.39,-130.25,-79.42,2
3030,46.4,-165.46,-71.2,2
3031,46.41,-196.2,-48.23,2
3032,46.43,-176.82,-41.79,2
3033,46.44,-203.94,-33.98,2
3034,46.45,-196.83,-23.17,2
3035,46.47,-176.61,-17.54,2
3036,46.48,-159.99,-19.79,2
3037,46.49,-132.74,-23.8,2
3038,46.51,-126.34,-6.56,2
3039,46.52,-85.33,-5.32,2
3040,46.53,-59.63,19.49,2
3041,46.54,-42.13,2.27,2
3042,46.56,-31.72,1.37,1
3043,46.57,-22.6,3.04,1
3044,46.59,15.17,-5.99,1
3045,46.6,-7.76,-0.32,1
3046,46.61,34.39,-0.41,1
3047,46.63,50.99,-1.81,1
3048,46.64,47.66,-7.98,1
3049,46.65,70.97,8.58,1
3050,46.67,84.72,7.58,1
3051,46.68,97.87,27.61,1
3052,46.69,98.65,0.74,1
3053,46.71,104.65,14.38,1
3054,46.72,91.87,-11.05,1
3055,46.73,93.51,-9.69,1
3056,46.75,105.04,-5.15,1
3057,46.76,66.06,-11.47,1
3058,46.77,83.42,-9.72,1
3059,46.79,99.2,19.98,1
3060,46.8,97.05,8.06,1
3061,46.81,85.16,-2.74,1
3062,46.83,69.05,-16.49,1
3063,46.84,41.79,1.1,1
3064,46.85,52.72,-14.3,1
3065,46.87,57.67,11.14,1
3066,46.88,37.5,33.95,1
3067,46.89,41.47,8.77,1
3068,46.9,34.94,2.22,1
3069,46.92,20.69,-5.4,1
3070,46.93,30.23,-3.74,1
3071,46.95,22.17,10.22,1
3072,46.96,6.83,1.29,1
3073,46.97,4.35,3.55,1
3074,46.99,-0.02,10.64,1
3075,47.0,5.26,9.5,1
3076,47.01,-9.36,4.66,1
3077,47.03,-15.83,8.66,1
3078,47.04,-23.69,8.03,1
3079,47.05,-20.15,-9.99,1
3080,47.07,-8.45,12.03,1
3081,47.08,-47.42,31.88,1
3082,47.09,-38.64,7.83,1
3083,47.11,-40.98,12.51,1
3084,47.12,-38.75,19.43,1
3085,47.13,-25.11,-11.07,1
3086,47.15,-22.32,8.65,1
3087,47.16,-27.6,29.79,1
3088,47.17,-43.94,-10.39,1
3089,47.19,-35.02,32.34,1
3090,47.2,-34.91,18.95,1
3091,47.21,-32.72,-16.94,1
3092,47.22,-21.75,-2.25,1
3093,47.24,-37.44,8.24,1
3094,47.25,-42.14,-19.91,1
3095,47.27,-29.86,1.96,1
3096,47.28,-45.83,21.7,1
3097,47.29,-50.91,-14.2,1
3098,47.31,-25.74,-4.21,1
3099,47.32,-25.14,22.65,1
3100,47.33,-38.15,-19.54,1
3101,47.35,-16.54,0.96,1
3102,47.36,-24.28,20.37,1
3103,47.37,-32.01,-11.59,1
3104,47.38,-16.39,-1.24,1
3105,47.4,-9.54,23.37,1
3106,47.41,-14.3,-28.47,1
3107,47.43,-11.75,-4.43,1
3108,47.44,-0.58,6.19,1
3109,47.45,-6.18,-26.54,1
3110,47.47,5.08,-4.68,1
3111,47.48,6.63,23.66,1
3112,47.49,-1.63,-11.96,1
3113,47.51,28.4,-2.19,1
3114,47.52,-3.0,29.66,1
3115,47.53,7.12,-30.74,1
3116,47.54,7.67,-9.33,1
3117,47.56,5.83,17.79,1
3118,47.57,-2.46,-19.56,1
3119,47.59,-0.97,5.34,1
3120,47.6,-0.83,20.05,1
3121,47.61,8.29,-41.56,1
3122,47.63,10.12,-14.92,1
3123,47.64,20.62,30.58,1
3124,47.65,-10.65,-24.54,1
3125,47.67,15.59,-12.63,1
3126,47.68,20.38,37.06,1
3127,47.69,25.84,-31.75,1
3128,47.71,16.55,-0.86,1
3129,47.72,10.59,31.19,1
3130,47.73,9.91,-25.37,1
3131,47.75,29.62,4.88,1
3132,47.76,23.28,20.82,1
3133,47.77,17.17,-33.59,1
3134,47.79,6.83,-1.39,1
3135,47.8,13.83,49.36,1
3136,47.81,1.87,-31.03,1
3137,47.83,16.26,-1.84,1
3138,47.84,-0.59,32.92,1
3139,47.85,-3.83,-31.77,1
3140,47.87,3.52,-5.9,1
3141,47.88,-7.59,9.65,1
3142,47.89,5.4,-40.96,1
3143,47.9,8.8,-12.38,1
3144,47.92,8.57,32.98,1
3145,47.93,-1.81,-14.39,1
3146,47.95,-1.71,-5.41,1
3147,47.96,-4.26,30.07,1
3148,47.97,-11.17,-45.29,1
3149,47.99,14.05,0.44,1
3150,48.0,19.64,20.06,1
3151,48.01,6.19,-40.66,1
3152,48.03,11.29,10.23,1
3153,48.04,5.7,34.78,1
3154,48.05,0.18,-16.96,1
3155,48.06,-17.96,18.6,1
3156,48.08,-7.44,26.56,1
3157,48.09,-4.93,-20.77,1
3158,48.11,-2.16,7.26,1
3159,48.12,20.69,29.07,1
3160,48.13,-0.95,-46.05,1
3161,48.15,-1.82,7.52,1
3162,48.16,9.95,28.93,0
3163,48.17,-10.37,-34.54,0
3164,48.19,-8.65,9.94,0
3165,48.2,3.81,72.97,0
3166,48.21,-24.34,63.3,0
3167,48.22,-38.7,165.53,0
3168,48.24,-110.08,216.88,0
3169,48.25,-169.72,112.27,0
3170,48.27,-187.01,48.73,0
3171,48.28,-184.47,-35.45,0
3172,48.29,-196.72,-223.93,0
3173,48.31,-158.29,-261.96,0
3174,48.32,-86.2,-258.53,0
3175,48.33,-57.32,-322.72,0
3176,48.35,2.57,-204.65,0
3177,48.36,89.17,-137.29,0
3178,48.37,124.2,-100.35,0
3179,48.39,191.39,-1.91,0
3180,48.4,246.33,95.89,0
3181,48.41,263.59,57.94,0
3182,48.43,288.66,111.04,0
3183,48.44,292.0,155.79,0
3184,48.45,265.37,61.9,0
3185,48.47,223.23,98.28,0
3186,48.48,203.24,128.39,0
3187,48.49,138.84,71.4,0
3188,48.51,120.11,87.55,0
3189,48.52,83.63,107.67,0
3190,48.53,46.06,27.28,0
3191,48.54,6.91,48.13,0
3192,48.56,-10.68,60.75,1
3193,48.57,-54.89,-4.03,1
3194,48.59,-51.71,27.08,1
3195,48.6,-43.26,48.1,1
3196,48.61,-96.47,-35.57,1
3197,48.63,-94.34,10.92,1
3198,48.64,-87.46,29.08,1
3199,48.65,-162.33,-36.34,1
3200,48.67,-157.46,11.8,1
3201,48.68,-133.98,31.95,1
3202,48.69,-128.15,-51.95,1
3203,48.71,-111.83,-16.7,1
3204,48.72,-86.56,21.69,1
3205,48.73,-106.7,-40.89,1
3206,48.75,-90.72,-7.31,1
3207,48.76,-64.88,9.91,1
3208,48.77,-83.97,-47.91,1
3209,48.79,-73.19,-19.24,1
3210,48.8,-67.39,19.92,1
3211,48.81,-71.48,-49.88,1
3212,48.83,-71.45,6.06,1
3213,48.84,-48.58,28.16,1
3214,48.85,-45.82,-35.74,1
3215,48.87,-56.11,-10.79,1
3216,48.88,-20.54,12.43,1
3217,48.89,-39.23,-57.37,1
3218,48.9,-33.69,-17.93,1
3219,48.92,-16.82,-21.23,1
3220,48.93,-16.42,-53.04,1
3221,48.95,-14.33,-23.2,1
3222,48.96,10.63,0.18,1
3223,48.97,-9.15,-36.02,1
3224,48.99,10.72,-10.51,1
3225,49.0,34.18,20.95,1
3226,49.01,13.03,-44.48,1
3227,49.03,20.2,-3.18,1
3228,49.04,34.85,19.13,1
3229,49.05,13.76,-16.81,1
3230,49.06,15.38,-0.47,1
3231,49.08,42.37,19.67,1
3232,49.09,19.7,-39.99,1
3233,49.11,46.24,-11.66,1
3234,49.12,61.9,13.88,1
3235,49.13,13.93,-9.48,1
3236,49.15,30.83,15.62,1
3237,49.16,56.46,32.5,1
3238,49.17,21.47,-0.47,1
3239,49.19,37.85,7.98,1
3240,49.2,67.17,12.54,1
3241,49.21,27.34,-40.89,1
3242,49.22,27.14,2.17,1
3243,49.24,50.63,16.56,1
3244,49.25,26.01,-23.64,1
3245,49.27,43.05,9.86,1
3246,49.28,41.09,27.33,1
3247,49.29,19.61,-9.9,1
3248,49.31,16.68,7.0,1
3249,49.32,34.8,4.83,1
3250,49.33,25.17,-17.58,1
3251,49.35,16.18,1.73,1
3252,49.36,49.49,19.2,1
3253,49.37,13.98,-11.93,1
3254,49.38,11.84,15.36,1
3255,49.4,40.32,10.26,1
3256,49.41,-20.35,-31.02,1
3257,49.43,-12.14,18.25,1
3258,49.44,16.66,20.27,1
3259,49.45,-10.85,12.49,1
3260,49.47,3.97,31.19,1
3261,49.48,19.3,39.37,1
3262,49.49,-6.2,2.13,1
3263,49.51,-6.56,4.19,1
3264,49.52,21.28,29.16,1
3265,49.53,-21.14,-2.24,1
3266,49.54,-15.43,15.39,1
3267,49.56,8.95,12.35,1
3268,49.57,-21.39,1.56,1
3269,49.59,-12.54,-13.22,1
3270,49.6,9.33,8.66,1
3271,49.61,-30.31,-19.29,1
3272,49.63,-22.3,-7.0,1
3273,49.64,7.54,-3.14,1
3274,49.65,-33.09,3.51,1
3275,49.67,-9.64,-11.74,1
3276,49.68,15.45,4.93,1
3277,49.69,-18.38,-6.59,1
3278,49.71,-9.37,-6.12,1
3279,49.72,-7.31,0.3,1
3280,49.73,-37.53,2.82,1
3281,49.75,-24.92,-12.61,1
3282,49.76,13.2,5.22,1
3283,49.77,-31.17,6.82,1
3284,49.79,-16.12,-2.4,1
3285,49.8,-3.78,-5.17,1
3286,49.81,-21.35,9.69,1
3287,49.83,-12.39,0.49,1
3288,49.84,-10.63,-8.76,1
3289,49.85,-18.46,-12.4,1
3290,49.87,-17.84,-8.11,1
3291,49.88,23.38,-7.43,1
3292,49.89,3.03,12.08,1
3293,49.9,-16.71,-12.26,1
3294,49.92,21.34,5.58,1
3295,49.93,-27.74,11.3,1
3296,49.95,-24.29,-24.22,1
3297,49.96,11.49,-7.87,1
3298,49.97,-25.91,-12.22,1
3299,49.99,-20.29,-10.69,1
3300,50.0,-2.05,8.99,1
3301,50.01,-17.84,5.01,1
3302,50.03,-3.84,-13.05,1
3303,50.04,28.52,4.81,1
3304,50.05,-9.25,13.49,1
3305,50.06,-4.36,-7.75,1
3306,50.08,8.33,-12.85,1
3307,50.09,-10.3,16.32,1
3308,50.11,2.13,-9.74,1
3309,50.12,27.26,-8.27,1
3310,50.13,0.35,20.18,1
3311,50.15,3.51,-7.41,1
3312,50.16,31.28,-15.86,0
3313,50.17,-15.9,9.23,0
3314,50.19,16.65,-5.24,0
3315,50.2,32.34,2.14,0
3316,50.21,-7.69,13.04,0
3317,50.22,5.27,-9.39,0
3318,50.24,19.9,10.48,0
3319,50.25,-47.66,34.06,0
3320,50.27,-114.06,-0.2,0
3321,50.28,-190.56,-47.13,0
3322,50.29,-248.32,-19.04,0
3323,50.31,-214.35,-61.03,0
3324,50.32,-145.16,-106.79,0
3325,50.33,-100.5,-37.11,0
3326,50.35,-43.0,-56.19,0
3327,50.36,75.47,-24.9,0
3328,50.37,117.26,23.68,0
3329,50.38,168.39,-0.89,0
3330,50.4,233.3,61.06,0
3331,50.41,206.63,69.78,0
3332,50.43,225.49,54.41,0
3333,50.44,254.18,54.27,0
3334,50.45,198.45,87.6,0
3335,50.47,185.0,36.56,0
3336,50.48,179.3,46.64,0
3337,50.49,144.43,68.94,0
3338,50.51,104.67,26.53,0
3339,50.52,123.41,40.25,0
3340,50.53,46.31,22.31,0
3341,50.54,54.46,-27.64,0
3342,50.56,38.14,7.41,1
3343,50.57,-2.08,23.77,1
3344,50.59,-2.66,-20.88,1
3345,50.6,-17.94,11.07,1
3346,50.61,-54.25,28.67,1
3347,50.63,-75.0,-18.37,1
3348,50.64,-61.16,4.06,1
3349,50.65,-81.99,11.28,1
3350,50.67,-91.2,-40.54,1
3351,50.68,-69.88,-9.84,1
3352,50.69,-99.26,4.88,1
3353,50.71,-103.72,-52.91,1
3354,50.72,-81.83,-27.34,1
3355,50.73,-107.05,-11.92,1
3356,50.75,-98.57,-43.72,1
3357,50.76,-81.51,-15.27,1
3358,50.77,-115.28,13.91,1
3359,50.79,-122.19,-56.79,1
3360,50.8,-85.97,-8.86,1
3361,50.81,-88.18,-0.78,1
3362,50.83,-87.49,-57.42,1
3363,50.84,-52.68,-23.76,1
3364,50.85,-70.62,13.24,1
3365,50.87,-67.84,-60.4,1
3366,50.88,-25.84,-8.54,1
3367,50.89,-48.48,22.25,1
3368,50.91,-48.34,-45.08,1
3369,50.92,-6.21,-2.58,1
3370,50.93,-43.31,35.49,1
3371,50.95,-19.29,-30.44,1
3372,50.96,14.64,-5.47,1
3373,50.97,-9.41,11.69,1
3374,50.99,-11.72,-51.45,1
3375,51.0,4.21,10.14,1
3376,51.01,-10.1,29.96,1
3377,51.03,1.59,-8.16,1
3378,51.04,21.82,-4.2,1
3379,51.05,6.13,22.62,1
3380,51.06,32.67,-35.0,1
3381,51.08,45.78,-6.31,1
3382,51.09,8.35,30.75,1
3383,51.11,-13.26,-31.56,1
3384,51.12,39.98,2.37,1
3385,51.13,18.41,40.47,1
3386,51.15,38.7,-33.92,1
3387,51.16,63.97,11.78,1
3388,51.17,31.21,39.18,1
3389,51.19,44.9,-19.08,1
3390,51.2,65.73,8.76,1
3391,51.21,38.17,42.48,1
3392,51.22,49.87,-12.55,1
3393,51.24,54.48,15.35,1
3394,51.25,44.92,23.81,1
3395,51.27,40.85,-28.27,1
3396,51.28,58.09,8.0,1
3397,51.29,43.36,34.92,1
3398,51.31,21.82,-8.59,1
3399,51.32,45.69,19.07,1
3400,51.33,41.46,51.58,1
3401,51.35,28.46,-13.06,1
3402,51.36,22.06,2.78,1
3403,51.37,19.94,32.55,1
3404,51.38,-0.07,-22.48,1
3405,51.4,28.18,11.64,1
3406,51.41,-5.24,41.23,1
3407,51.43,18.83,-33.92,1
3408,51.44,1.08,19.41,1
3409,51.45,13.48,36.99,1
3410,51.47,1.71,-47.89,1
3411,51.48,10.42,16.42,1
3412,51.49,-22.69,15.77,1
3413,51.51,0.25,-25.25,1
3414,51.52,-7.13,-15.52,1
3415,51.53,-21.29,21.82,1
3416,51.55,-14.79,-43.5,1
3417,51.56,-1.06,-2.52,1
3418,51.57,-15.43,32.84,1
3419,51.59,-20.25,-25.24,1
3420,51.6,7.55,-2.16,1
3421,51.61,-37.36,15.39,1
3422,51.63,-18.27,-43.34,1
3423,51.64,-15.7,31.58,1
3424,51.65,6.77,30.19,1
3425,51.67,-19.4,-39.81,1
3426,51.68,11.36,2.92,1
3427,51.69,-7.83,26.95,1
3428,51.71,-15.11,-8.87,1
3429,51.72,3.27,17.18,1
3430,51.73,-23.32,19.95,1
3431,51.75,-11.03,-56.69,1
3432,51.76,-13.74,-7.17,1
3433,51.77,-22.52,31.6,1
3434,51.79,-32.07,-23.37,1
3435,51.8,2.32,-18.47,1
3436,51.81,-25.85,28.14,1
3437,51.83,-1.89,-17.07,1
3438,51.84,4.94,2.84,1
3439,51.85,-17.01,15.31,1
3440,51.87,-8.44,-34.57,1
3441,51.88,9.2,10.49,1
3442,51.89,16.75,12.22,1
3443,51.9,-17.73,-27.92,1
3444,51.92,3.6,-14.12,1
3445,51.93,-0.97,27.66,1
3446,51.95,-8.74,-24.62,1
3447,51.96,15.69,5.47,1
3448,51.97,6.71,24.13,1
3449,51.99,-6.53,-42.32,1
3450,52.0,-0.59,-2.57,1
3451,52.01,-7.87,19.6,1
3452,52.03,-20.9,-15.03,1
3453,52.04,0.03,0.39,1
3454,52.05,15.23,19.68,1
3455,52.06,-31.63,-21.89,1
3456,52.08,-5.74,-0.07,1
3457,52.09,-0.03,23.91,1
3458,52.11,12.55,-23.48,1
3459,52.12,-1.52,7.74,1
3460,52.13,-11.1,21.83,1
3461,52.15,2.99,-27.23,1
3462,52.16,8.31,-14.92,2
3463,52.17,11.78,14.66,2
3464,52.19,-7.1,-22.88,2
3465,52.2,10.31,13.82,2
3466,52.21,-3.64,16.44,2
3467,52.23,-9.15,-46.32,2
3468,52.24,-1.5,7.9,2
3469,52.25,5.34,16.0,2
3470,52.27,-14.31,-8.23,2
3471,52.28,20.36,37.58,2
3472,52.29,10.55,29.95,2
3473,52.31,4.82,20.8,2
3474,52.32,1.89,38.25,2
3475,52.33,106.27,59.66,2
3476,52.35,145.52,29.54,2
3477,52.36,235.57,43.68,2
3478,52.37,217.06,12.48,2
3479,52.38,197.37,-35.35,2
3480,52.4,146.91,-17.69,2
3481,52.41,113.48,-19.53,2
3482,52.43,46.68,-56.67,2
3483,52.44,13.18,-64.52,2
3484,52.45,-13.84,-32.05,2
3485,52.47,-98.25,-59.42,2
3486,52.48,-237.64,-32.21,2
3487,52.49,-293.39,-14.4,2
3488,52.51,-326.73,-51.15,2
3489,52.52,-291.97,-22.77,2
3490,52.53,-292.3,8.96,2
3491,52.54,-282.81,-5.21,2
3492,52.56,-219.71,4.97,1
3493,52.57,-191.35,8.56,1
3494,52.59,-148.78,-18.29,1
3495,52.6,-45.22,-6.51,1
3496,52.61,14.51,30.22,1
3497,52.63,4.88,22.43,1
3498,52.64,-13.55,12.1,1
3499,52.65,1.53,17.4,1
3500,52.67,-5.93,7.05,1
3501,52.68,19.93,9.49,1
3502,52.69,39.81,1.35,1
3503,52.71,43.61,-3.93,1
3504,52.72,56.3,12.69,1
3505,52.73,59.88,21.95,1
3506,52.75,72.33,11.76,1
3507,52.76,84.29,10.99,1
3508,52.77,94.8,20.55,1
3509,52.79,92.75,20.44,1
3510,52.8,103.34,7.11,1
3511,52.81,111.4,14.59,1
3512,52.83,104.25,-9.59,1
3513,52.84,117.32,-13.76,1
3514,52.85,103.5,22.37,1
3515,52.87,87.9,-0.12,1
3516,52.88,111.4,4.42,1
3517,52.89,96.96,6.77,1
3518,52.9,82.71,4.06,1
3519,52.92,89.06,-10.74,1
3520,52.93,83.91,2.75,1
3521,52.95,58.3,8.08,1
3522,52.96,69.75,-3.41,1
3523,52.97,56.5,1.89,1
3524,52.99,28.73,2.27,1
3525,53.0,40.08,7.81,1
3526,53.01,36.63,5.7,1
3527,53.03,23.27,21.3,1
3528,53.04,15.83,1.31,1
3529,53.05,20.9,15.43,1
3530,53.06,8.67,-6.19,1
3531,53.08,1.31,-10.52,1
3532,53.09,1.69,1.85,1
3533,53.11,-20.08,14.39,1
3534,53.12,-20.42,-23.52,1
3535,53.13,-8.51,0.22,1
3536,53.15,-29.22,-6.5,1
3537,53.16,-23.86,-10.07,1
3538,53.17,-13.62,0.34,1
3539,53.19,-43.99,5.51,1
3540,53.2,-44.05,-8.28,1
3541,53.21,-37.48,3.63,1
3542,53.22,-50.34,1.04,1
3543,53.24,-49.99,-11.47,1
3544,53.25,-29.78,0.25,1
3545,53.27,-52.58,2.6,1
3546,53.28,-41.84,-7.87,1
3547,53.29,-39.0,-19.43,1
3548,53.31,-64.47,9.16,1
3549,53.32,-49.9,-40.08,1
3550,53.33,-21.62,-13.3,1
3551,53.35,-48.0,16.71,1
3552,53.36,-32.78,-8.22,1
3553,53.37,-36.41,-2.99,1
3554,53.38,-46.76,8.93,1
3555,53.4,-46.08,-18.85,1
3556,53.41,-32.49,1.3,1
3557,53.43,-37.35,7.43,1
3558,53.44,-18.34,-20.32,1
3559,53.45,-15.08,-17.44,1
3560,53.47,-46.76,31.31,1
3561,53.48,-18.67,-9.16,1
3562,53.49,-1.85,0.71,1
3563,53.51,-17.18,16.84,1
3564,53.52,-12.28,-8.74,1
3565,53.53,5.64,-8.24,1
3566,53.54,-19.33,11.46,1
3567,53.56,-2.13,-14.38,1
3568,53.57,7.93,-5.66,1
3569,53.59,-17.6,25.19,1
3570,53.6,-3.97,-26.78,1
3571,53.61,13.01,-3.44,1
3572,53.63,-17.24,24.3,1
3573,53.64,8.25,-25.31,1
3574,53.65,19.34,13.9,1
3575,53.67,13.73,36.43,1
3576,53.68,13.71,-18.95,1
3577,53.69,36.71,1.48,1
3578,53.71,5.2,11.88,1
3579,53.72,25.02,-23.11,1
3580,53.73,14.53,-10.71,1
3581,53.75,-9.2,20.18,1
3582,53.76,7.13,-25.28,1
3583,53.77,23.34,23.5,1
3584,53.79,8.91,40.6,1
3585,53.8,11.67,-32.58,1
3586,53.81,34.98,-9.58,1
3587,53.83,-1.24,32.84,1
3588,53.84,20.79,-36.95,1
3589,53.85,14.98,4.34,1
3590,53.87,-5.94,29.0,1
3591,53.88,-2.35,-6.57,1
3592,53.89,29.57,10.31,1
3593,53.9,12.52,10.33,1
3594,53.92,11.42,-32.0,1
3595,53.93,25.4,3.8,1
3596,53.95,-1.93,22.46,1
3597,53.96,2.67,-20.06,1
3598,53.97,13.1,-3.16,1
3599,53.99,6.12,23.52,1
3600,54.0,14.42,-48.44,1
3601,54.01,16.61,-18.68,1
3602,54.03,3.68,33.5,1
3603,54.04,4.09,-26.55,1
3604,54.05,31.27,-4.85,1
3605,54.06,-9.51,24.96,1
3606,54.08,-25.17,-19.81,1
3607,54.09,22.08,12.54,1
3608,54.11,-13.01,29.54,1
3609,54.12,-3.0,-16.89,1
3610,54.13,16.93,31.77,1
3611,54.15,-19.63,95.09,1
3612,54.16,5.39,73.84,1
3613,54.17,7.61,209.31,1
3614,54.19,-19.37,358.07,1
3615,54.2,10.58,88.17,1
3616,54.21,-84.86,12.51,1
3617,54.22,-213.65,115.19,1
3618,54.24,-164.23,-59.39,1
3619,54.25,-18.48,219.44,1
3620,54.27,-163.08,26.03,1
3621,54.28,97.11,51.73,1
3622,54.29,-151.04,-14.17,1
3623,54.31,-74.28,-57.37,1
3624,54.32,-148.62,-81.96,1
3625,54.33,-4.63,-98.24,1
3626,54.35,104.52,-138.4,1
3627,54.36,-4.87,-140.94,1
3628,54.37,357.88,-143.16,1
3629,54.38,73.66,-169.96,1
3630,54.4,181.11,-160.88,1
3631,54.41,593.25,-150.55,1
3632,54.43,-25.14,-171.04,1
3633,54.44,319.66,-154.53,1
3634,54.45,184.73,-136.55,1
3635,54.47,-85.96,-150.21,1
3636,54.48,199.43,-129.82,1
3637,54.49,63.54,-107.28,1
3638,54.51,-288.64,-116.55,1
3639,54.52,78.89,-95.39,1
3640,54.53,48.16,-69.27,1
3641,54.54,-131.56,-78.18,1
3642,54.56,-113.65,-55.79,1
3643,54.57,207.86,-29.46,1
3644,54.59,-270.13,-38.35,1
3645,54.6,53.39,-17.49,1
3646,54.61,-29.39,8.57,1
3647,54.63,53.0,-3.52,1
3648,54.64,-67.86,15.81,1
3649,54.65,-246.41,40.17,1
3650,54.67,103.19,25.82,1
3651,54.68,-180.95,-7.01,1
3652,54.69,-276.99,-53.44,1
3653,54.71,197.74,113.9,1
3654,54.72,-378.85,-154.29,1
3655,54.73,142.19,-231.71,1
3656,54.75,-252.46,-4.66,1
3657,54.76,140.63,-506.32,1
3658,54.77,204.25,211.36,1
3659,54.79,-14.74,-70.32,1
3660,54.8,259.5,-59.04,1
3661,54.81,-231.12,31.67,1
3662,54.83,-24.11,503.87,1
3663,54.84,-174.98,348.3,1
3664,54.85,-221.99,242.52,1
3665,54.87,-124.78,-113.51,1
3666,54.88,-146.67,49.5,1
3667,54.89,-129.97,395.45,1
3668,54.9,154.27,-42.17,1
3669,54.92,133.94,110.73,1
3670,54.93,6.25,-139.38,1
3671,54.95,-161.92,-58.63,1
3672,54.96,71.88,-16.32,1
3673,54.97,57.76,77.66,1
3674,54.99,145.05,98.56,1
3675,55.0,197.44,145.27,1
3676,55.01,231.4,193.89,1
3677,55.03,182.11,193.65,1
3678,55.04,75.84,213.02,1
3679,55.05,-22.01,240.01,1
3680,55.06,-118.91,221.37,1
3681,55.08,-141.71,222.63,1
3682,55.09,-138.1,234.36,1
3683,55.11,-159.1,202.68,1
3684,55.12,-115.02,191.23,1
3685,55.13,-68.19,194.95,1
3686,55.15,-77.19,155.27,1
3687,55.16,-58.69,137.51,1
3688,55.17,-22.27,138.87,1
3689,55.19,-41.73,93.92,1
3690,55.2,-20.87,73.32,1
3691,55.21,2.2,73.56,1
3692,55.22,2.21,29.59,1
3693,55.24,-13.23,41.01,1
3694,55.25,32.96,127.91,1
3695,55.27,0.41,157.68,1
3696,55.28,25.98,112.22,1
3697,55.29,56.29,117.51,1
3698,55.31,62.28,99.31,1
3699,55.32,70.92,22.92,1
3700,55.33,88.01,-15.78,1
3701,55.35,39.2,-23.07,1
3702,55.36,17.66,-145.22,1
3703,55.37,21.41,-163.48,1
3704,55.38,12.84,-178.02,1
3705,55.4,18.19,-250.73,1
3706,55.41,38.62,-273.82,1
3707,55.43,16.6,-262.63,1
3708,55.44,25.41,-303.3,1
3709,55.45,34.13,-282.67,1
3710,55.47,21.05,-289.66,1
3711,55.48,17.24,-330.72,1
3712,55.49,59.21,-291.42,1
3713,55.51,25.51,-278.0,1
3714,55.52,32.76,-293.64,1
3715,55.53,47.0,-246.34,1
3716,55.54,11.78,-233.86,1
3717,55.56,21.57,-236.25,1
3718,55.57,32.56,-215.47,1
3719,55.59,15.93,-175.23,1
3720,55.6,16.41,-183.33,1
3721,55.61,31.78,-166.39,1
3722,55.63,-6.61,-127.23,1
3723,55.64,-5.9,-119.79,1
3724,55.65,33.2,-103.21,1
3725,55.67,-14.58,-81.92,1
3726,55.68,4.92,-77.05,1
3727,55.69,33.97,-62.79,1
3728,55.71,9.62,-16.66,1
3729,55.72,-1.05,-38.86,1
3730,55.73,34.18,-7.8,1
3731,55.75,-14.1,25.65,1
3732,55.76,-9.22,31.83,1
3733,55.77,-1.84,63.72,1
3734,55.79,-37.57,77.22,1
3735,55.8,-9.33,75.29,1
3736,55.81,10.19,79.64,1
3737,55.83,-26.0,111.46,1
3738,55.84,-16.56,110.87,1
3739,55.85,-7.3,116.96,1
3740,55.87,-31.13,147.06,1
3741,55.88,-22.2,128.14,1
3742,55.89,3.62,124.13,1
3743,55.9,-28.53,139.85,1
3744,55.92,-38.62,124.16,1
3745,55.93,-1.11,125.14,1
3746,55.95,-39.28,125.93,1
3747,55.96,-23.35,138.24,1
3748,55.97,-9.26,123.73,1
3749,55.99,-28.72,132.7,1
3750,56.0,-7.39,100.42,1
3751,56.01,4.01,103.25,1
3752,56.03,-21.54,124.03,1
3753,56.04,0.62,123.51,1
3754,56.05,8.29,92.21,1
3755,56.06,-31.28,104.58,1
3756,56.08,-40.69,85.04,1
3757,56.09,-11.2,60.03,1
3758,56.11,-25.48,76.82,1
3759,56.12,-14.33,66.23,1
3760,56.13,19.94,49.63,1
3761,56.15,-21.95,43.66,1
3762,56.16,-5.8,32.93,2
3763,56.17,8.11,22.94,2
3764,56.19,-18.02,42.82,2
3765,56.2,-17.72,47.15,2
3766,56.21,30.75,0.73,2
3767,56.22,108.79,2.46,2
3768,56.24,168.97,-5.09,2
3769,56.25,231.74,-58.46,2
3770,56.27,206.08,-39.28,2
3771,56.28,154.81,-44.59,2
3772,56.29,114.68,-78.61,2
3773,56.31,11.09,-51.53,2
3774,56.32,-51.57,-33.54,2
3775,56.33,-78.07,-44.18,2
3776,56.35,-139.58,-25.52,2
3777,56.36,-179.01,4.07,2
3778,56.37,-172.99,-13.0,2
3779,56.38,-211.29,-18.81,2
3780,56.4,-181.55,-0.92,2
3781,56.41,-171.22,-29.31,2
3782,56.43,-185.47,-8.47,2
3783,56.44,-152.28,7.87,2
3784,56.45,-108.89,-26.16,2
3785,56.47,-87.27,-12.91,2
3786,56.48,-84.03,-4.4,2
3787,56.49,-60.28,-22.06,2
3788,56.51,-46.62,-10.72,2
3789,56.52,-27.04,-19.02,2
3790,56.53,18.03,-29.08,2
3791,56.54,-7.68,-28.73,2
3792,56.56,25.55,-13.72,1
3793,56.57,57.0,-72.91,1
3794,56.59,13.68,-38.7,1
3795,56.6,48.22,-13.18,1
3796,56.61,58.71,-62.4,1
3797,56.63,47.99,-55.45,1
3798,56.64,67.24,-33.38,1
3799,56.65,108.67,-73.32,1
3800,56.67,93.66,-38.93,1
3801,56.68,100.67,-19.79,1
3802,56.69,96.15,-67.58,1
3803,56.71,83.32,-20.86,1
3804,56.72,76.75,8.99,1
3805,56.73,79.19,-22.35,1
3806,56.75,61.61,-4.02,1
3807,56.76,82.45,30.66,1
3808,56.77,66.72,-29.9,1
3809,56.79,33.6,6.63,1
3810,56.8,49.53,37.07,1
3811,56.81,43.95,-11.52,1
3812,56.83,62.06,13.77,1
3813,56.84,63.36,22.87,1
3814,56.85,72.82,-7.74,1
3815,56.87,-10.73,-1.71,1
3816,56.88,47.28,38.92,1
3817,56.89,29.14,-33.26,1
3818,56.9,25.22,-8.2,1
3819,56.92,22.3,31.54,1
3820,56.93,36.07,-29.74,1
3821,56.95,-9.2,13.51,1
3822,56.96,-2.71,30.5,1
3823,56.97,4.83,-29.53,1
3824,56.99,-15.26,-4.03,1
3825,57.0,-22.91,21.71,1
3826,57.01,7.36,-27.19,1
3827,57.03,-39.01,13.49,1
3828,57.04,-33.3,57.26,1
3829,57.05,-11.64,-25.59,1
3830,57.06,-37.13,9.46,1
3831,57.08,-26.08,61.24,1
3832,57.09,-10.95,-15.79,1
3833,57.11,-34.41,20.71,1
3834,57.12,-52.68,44.76,1
3835,57.13,-8.02,-19.65,1
3836,57.15,-55.54,2.82,1
3837,57.16,-45.74,41.34,1
3838,57.17,-17.93,-20.31,1
3839,57.19,-32.87,21.98,1
3840,57.2,-29.51,41.76,1
3841,57.21,-16.3,-37.9,1
3842,57.22,-33.87,26.13,1
3843,57.24,-24.22,55.67,1
3844,57.25,-8.31,-17.48,1
3845,57.27,-48.73,7.32,1
3846,57.28,-43.75,51.68,1
3847,57.29,-11.06,-26.13,1
3848,57.31,-37.92,16.61,1
3849,57.32,-27.85,24.58,1
3850,57.33,-12.8,-37.96,1
3851,57.35,-48.71,2.59,1
3852,57.36,-16.79,52.33,1
3853,57.37,4.35,-26.88,1
3854,57.38,-20.16,-10.27,1
3855,57.4,-4.42,48.02,1
3856,57.41,13.61,-48.98,1
3857,57.43,-18.37,1.61,1
3858,57.44,0.72,33.92,1
3859,57.45,15.36,-56.39,1
3860,57.47,-13.01,9.28,1
3861,57.48,-9.95,31.47,1
3862,57.49,15.23,-59.39,1
3863,57.51,-7.61,-7.52,1
3864,57.52,-10.98,26.42,1
3865,57.53,13.85,-51.46,1
3866,57.54,-8.35,14.14,1
3867,57.56,8.07,43.21,1
3868,57.57,20.92,-50.29,1
3869,57.59,0.85,9.58,1
3870,57.6,4.61,34.03,1
3871,57.61,31.66,-49.62,1
3872,57.63,0.29,-6.37,1
3873,57.64,13.32,28.94,1
3874,57.65,42.69,-39.04,1
3875,57.67,-2.96,-16.34,1
3876,57.68,5.03,27.64,1
3877,57.69,25.66,-46.1,1
3878,57.71,3.95,3.07,1
3879,57.72,16.65,22.14,1
3880,57.73,13.1,-45.16,1
3881,57.75,-0.63,-4.93,1
3882,57.76,13.55,40.76,1
3883,57.77,26.51,-43.54,1
3884,57.79,1.33,2.51,1
3885,57.8,11.76,38.28,1
3886,57.81,40.16,-40.06,1
3887,57.83,-1.33,-8.72,1
3888,57.84,2.48,48.29,1
3889,57.85,6.88,-26.42,1
3890,57.87,-9.89,2.29,1
3891,57.88,0.87,28.67,1
3892,57.89,14.41,-37.37,1
3893,57.9,-22.25,-19.25,1
3894,57.92,11.27,4.64,1
3895,57.93,17.1,-36.79,1
3896,57.95,-16.07,0.2,1
3897,57.96,-11.5,27.42,1
3898,57.97,21.43,-34.58,1
3899,57.99,-22.36,22.94,1
3900,58.0,-10.31,27.91,1
3901,58.01,21.88,-37.16,1
3902,58.025000000000006,-31.72,12.17,1
3903,58.04,-8.53,38.38,1
3904,58.05,8.47,-34.26,1
3905,58.06,-9.95,24.05,1
3906,58.08,-27.7,36.93,1
3907,58.09,10.35,-24.57,1
3908,58.11,-11.17,-6.04,1
3909,58.12,13.2,31.54,1
3910,58.13,22.22,-19.55,1
3911,58.15,-0.14,10.12,1
3912,58.16,5.46,31.2,0
3913,58.17,25.41,-25.73,0
3914,58.19,-26.28,14.78,0
3915,58.2,-6.52,35.4,0
3916,58.21,13.75,-21.86,0
3917,58.22,-13.23,11.49,0
3918,58.24,-21.58,26.86,0
3919,58.25,-23.86,-43.61,0
3920,58.27,-133.42,-39.08,0
3921,58.28,-138.54,-25.21,0
3922,58.29,-181.19,-65.1,0
3923,58.31,-215.69,-33.92,0
3924,58.32,-190.28,7.25,0
3925,58.33,-134.54,-48.68,0
3926,58.35,-76.99,-6.45,0
3927,58.36,-51.47,25.16,0
3928,58.37,-2.63,-0.4,0
3929,58.38,50.96,39.76,0
3930,58.4,145.0,70.25,0
3931,58.41,255.4,12.41,0
3932,58.43,297.57,40.57,0
3933,58.44,316.0,66.63,0
3934,58.45,309.0,-1.23,0
3935,58.47,264.11,26.0,0
3936,58.48,252.5,51.98,0
3937,58.49,220.6,8.66,0
3938,58.51,136.94,35.5,0
3939,58.52,131.39,22.39,0
3940,58.53,109.39,-11.44,0
3941,58.54,27.66,-4.98,0
3942,58.56,-10.93,10.07,1
3943,58.57,-22.03,-19.13,1
3944,58.59,-68.6,-6.62,1
3945,58.6,-38.64,1.27,1
3946,58.61,-47.42,-25.83,1
3947,58.63,-68.81,-18.14,1
3948,58.64,-39.66,-4.33,1
3949,58.65,-59.67,-19.34,1
3950,58.66,-87.81,-15.66,1
3951,58.68,-102.97,21.94,1
3952,58.69,-86.94,-40.51,1
3953,58.71,-107.27,-11.83,1
3954,58.72,-110.47,-3.22,1
3955,58.73,-96.99,-26.45,1
3956,58.75,-109.68,-20.24,1
3957,58.76,-95.14,-8.27,1
3958,58.77,-93.75,-32.4,1
3959,58.79,-100.34,-32.18,1
3960,58.8,-90.88,-9.92,1
3961,58.81,-73.95,-1.55,1
3962,58.83,-84.07,-0.05,1
3963,58.84,-72.04,5.57,1
3964,58.85,-66.87,-18.93,1
3965,58.87,-62.65,4.29,1
3966,58.88,-55.32,19.83,1
3967,58.89,-41.46,-24.97,1
3968,58.9,-66.1,5.73,1
3969,58.92,-38.99,3.25,1
3970,58.93,-25.81,-2.59,1
3971,58.95,-32.09,-5.52,1
3972,58.96,-25.84,28.6,1
3973,58.97,-5.17,-1.09,1
3974,58.99,-13.82,16.05,1
3975,59.0,4.32,15.29,1
3976,59.01,0.74,-4.22,1
3977,59.03,6.29,-9.94,1
3978,59.04,6.63,5.25,1
3979,59.05,49.17,-2.88,1
3980,59.06,16.07,-29.71,1
3981,59.08,24.98,-10.49,1
3982,59.09,30.79,-0.86,1
3983,59.11,23.85,-7.64,1
3984,59.12,23.2,9.45,1
3985,59.13,44.97,3.96,1
3986,59.15,40.72,-6.29,1
3987,59.16,41.99,10.11,1
3988,59.17,58.83,11.95,1
3989,59.19,34.18,6.76,1
3990,59.2,37.81,4.61,1
3991,59.21,48.45,17.62,1
3992,59.22,37.31,-1.5,1
3993,59.24,24.22,8.52,1
3994,59.25,63.52,1.78,1
3995,59.27,25.19,-8.35,1
3996,59.28,43.56,10.19,1
3997,59.29,46.93,-4.49,1
3998,59.3,29.54,-10.38,1
3999,59.32,20.36,1.85,1
4000,59.33,41.61,32.75,1
4001,59.35,26.61,-2.3,1
4002,59.36,41.03,7.44,1
4003,59.37,31.22,11.0,1
4004,59.38,31.44,12.34,1
4005,59.4,8.84,4.46,1
4006,59.41,16.15,9.78,1
4007,59.43,-7.88,-14.76,1
4008,59.44,6.92,15.69,1
4009,59.45,19.09,-11.84,1
4010,59.47,16.65,-22.02,1
4011,59.48,-11.96,5.47,1
4012,59.49,29.12,10.21,1
4013,59.51,-0.52,15.7,1
4014,59.52,-8.81,10.57,1
4015,59.53,-14.36,20.78,1
4016,59.54,-1.78,-15.77,1
4017,59.56,-18.68,-4.69,1
4018,59.57,0.98,14.88,1
4019,59.59,-18.11,-28.44,1
4020,59.6,-7.29,-4.07,1
4021,59.61,4.3,10.06,1
4022,59.63,-1.0,-18.09,1
4023,59.64,-8.8,1.75,1
4024,59.65,-8.47,23.42,1
4025,59.67,-2.11,-12.7,1
4026,59.68,-5.34,-5.08,1
4027,59.69,-12.57,17.31,1
4028,59.71,-33.89,-32.91,1
4029,59.72,-20.31,-2.83,1
4030,59.73,-12.54,12.31,1
4031,59.75,-21.82,-22.37,1
4032,59.76,-23.22,-3.54,1
4033,59.77,4.77,31.86,1
4034,59.79,-13.51,-8.51,1
4035,59.8,-11.39,-10.69,1
4036,59.81,-4.16,35.45,1
4037,59.83,-25.0,-34.09,1
4038,59.84,-16.46,7.07,1
4039,59.85,2.26,25.15,1
4040,59.87,-9.78,-42.96,1
4041,59.88,-20.73,1.04,1
4042,59.89,-15.99,14.18,1
4043,59.9,-6.19,-18.36,1
4044,59.92,-16.52,-6.82,1
4045,59.93,-10.41,30.79,1
4046,59.94,-6.17,-21.8,1
4047,59.96,-15.5,-3.7,1
4048,59.97,0.01,-1.75,1
4049,59.99,5.29,-40.13,1
4050,60.0,-7.86,-3.23,1
4051,60.01,17.5,27.4,1
4052,60.03,4.92,-38.58,1
4053,60.04,5.33,15.98,1
4054,60.05,0.74,37.76,1
4055,60.06,1.43,-31.64,1
4056,60.08,-27.13,-11.62,1
4057,60.09,-6.86,25.37,1
4058,60.11,-4.7,-47.83,1
4059,60.12,-5.61,16.66,1
4060,60.13,16.52,33.43,1
4061,60.15,7.05,-43.82,1
4062,60.16,4.65,-7.46,0
4063,60.17,12.81,25.34,0
4064,60.19,10.78,-29.72,0
4065,60.2,-1.33,-17.3,0
4066,60.21,6.38,3.26,0
4067,60.22,21.11,-56.5,0
4068,60.24,-28.59,-10.89,0
4069,60.25,-104.63,27.99,0
4070,60.27,-187.58,-41.99,0
4071,60.28,-226.61,41.84,0
4072,60.29,-223.05,32.93,0
4073,60.31,-155.87,-58.21,0
4074,60.32,-126.26,7.51,0
4075,60.33,-17.65,32.5,0
4076,60.35,32.86,-17.02,0
4077,60.36,88.84,31.5,0
4078,60.37,132.42,76.02,0
4079,60.38,196.72,11.75,0
4080,60.4,187.22,27.84,0
4081,60.41,225.1,71.89,0
4082,60.43,233.1,0.25,0
4083,60.44,211.57,34.85,0
4084,60.45,187.61,59.73,0
4085,60.47,186.38,-7.36,0
4086,60.48,149.69,19.49,0
4087,60.49,139.16,49.92,0
4088,60.51,107.18,-45.1,0
4089,60.52,74.1,9.77,0
4090,60.53,57.99,15.06,0
4091,60.54,46.67,-46.58,0
4092,60.56,19.78,-14.52,1
4093,60.57,12.81,18.65,1
4094,60.58,-11.97,-36.91,1
4095,60.6,-52.05,8.91,1
4096,60.61,-55.35,18.6,1
4097,60.62,-64.17,-41.36,1
4098,60.64,-72.22,-1.64,1
4099,60.65,-68.6,25.91,1
4100,60.67,-81.48,-50.97,1
4101,60.68,-103.73,-3.89,1
4102,60.69,-64.48,24.65,1
4103,60.71,-74.19,-55.68,1
4104,60.72,-103.46,-30.79,1
4105,60.73,-117.75,21.07,1
4106,60.75,-72.34,-72.91,1
4107,60.76,-99.94,1.33,1
4108,60.77,-96.68,29.93,1
4109,60.79,-63.81,-51.84,1
4110,60.8,-84.79,-2.62,1
4111,60.81,-93.07,20.34,1
4112,60.83,-66.16,-54.71,1
4113,60.84,-74.67,11.33,1
4114,60.85,-67.22,35.49,1
4115,60.87,-45.22,-52.13,1
4116,60.88,-69.74,-32.81,1
4117,60.89,-54.71,20.66,1
4118,60.9,-23.14,-59.3,1
4119,60.92,-34.06,-4.86,1
4120,60.93,-11.23,38.33,1
4121,60.95,12.71,-45.57,1
4122,60.96,-8.8,16.51,1
4123,60.97,-20.63,44.06,1
4124,60.99,4.13,-34.6,1
4125,61.0,-5.29,-3.94,1
4126,61.01,-21.04,37.37,1
4127,61.03,42.51,-37.43,1
4128,61.04,-11.72,-5.23,1
4129,61.05,31.13,15.78,1
4130,61.06,48.2,-31.39,1
4131,61.08,15.85,4.66,1
4132,61.09,36.39,56.86,1
4133,61.11,60.71,-29.96,1
4134,61.12,19.72,31.72,1
4135,61.13,28.43,34.27,1
4136,61.15,59.31,-33.49,1
4137,61.16,13.94,11.76,1
4138,61.17,16.37,50.38,1
4139,61.19,43.93,-12.6,1
4140,61.2,26.24,7.46,1
4141,61.21,26.25,42.9,1
4142,61.22,50.38,-28.43,1
4143,61.24,33.48,6.22,1
4144,61.25,22.68,18.37,1
4145,61.26,69.67,-14.71,1
4146,61.28,22.67,21.81,1
4147,61.29,19.3,24.75,1
4148,61.31,48.82,-31.74,1
4149,61.32,7.92,13.37,1
4150,61.33,6.05,38.72,1
4151,61.35,47.34,-3.19,1
4152,61.36,13.2,-0.43,1
4153,61.37,-11.96,1.68,1
4154,61.38,38.24,-39.74,1
4155,61.4,15.41,-10.02,1
4156,61.41,11.68,-6.1,1
4157,61.43,53.87,-48.55,1
4158,61.44,8.41,2.44,1
4159,61.45,-20.67,30.04,1
4160,61.47,22.47,-3.94,1
4161,61.48,-6.02,29.54,1
4162,61.49,-3.82,27.44,1
4163,61.51,25.81,-14.66,1
4164,61.52,-15.64,14.91,1
4165,61.53,-11.22,35.12,1
4166,61.54,25.71,-18.37,1
4167,61.56,-22.12,-14.76,1
4168,61.57,-4.8,22.96,1
4169,61.59,6.45,-12.11,1
4170,61.6,-16.16,1.34,1
4171,61.61,-10.55,41.82,1
4172,61.63,21.36,-17.14,1
4173,61.64,-19.6,-10.8,1
4174,61.65,-27.92,24.04,1
4175,61.67,-0.1,1.08,1
4176,61.68,-34.09,9.36,1
4177,61.69,-25.11,4.68,1
4178,61.71,0.15,-27.24,1
4179,61.72,-33.45,-12.6,1
4180,61.73,-20.46,1.95,1
4181,61.75,28.09,-28.37,1
4182,61.76,-1.86,-5.6,1
4183,61.77,-13.02,9.36,1
4184,61.79,2.76,-26.76,1
4185,61.8,-45.63,4.31,1
4186,61.81,-28.37,8.97,1
4187,61.83,9.82,-20.46,1
4188,61.84,-34.84,2.55,1
4189,61.85,-21.9,9.31,1
4190,61.86,19.28,-19.12,1
4191,61.88,-4.77,-6.13,1
4192,61.89,-19.27,16.46,1
4193,61.9,17.1,-1.34,1
4194,61.92,-35.95,0.03,1
4195,61.93,1.4,14.51,1
4196,61.95,18.52,-2.68,1
4197,61.96,-15.48,-21.62,1
4198,61.97,-7.48,-11.97,1
4199,61.99,2.73,-19.78,1
4200,62.0,-11.98,-20.21,1
4201,62.01,4.13,8.0,1
4202,62.03,23.49,11.39,1
4203,62.04,-21.68,5.65,1
4204,62.05,-17.46,3.26,1
4205,62.06,11.94,-15.54,1
4206,62.08,-39.68,-31.27,1
4207,62.09,-22.19,13.7,1
4208,62.11,17.44,2.74,1
4209,62.12,-8.87,-4.87,1
4210,62.13,-11.94,2.42,1
4211,62.15,29.26,12.44,1
4212,62.16,-6.18,-3.61,2
4213,62.17,8.63,2.18,2
4214,62.19,43.71,18.09,2
4215,62.2,-1.72,4.91,2
4216,62.21,-5.77,23.99,2
4217,62.22,42.38,35.37,2
4218,62.24,-1.39,44.97,2
4219,62.25,1.0,47.21,2
4220,62.27,81.17,50.85,2
4221,62.28,92.1,33.62,2
4222,62.29,175.71,15.65,2
4223,62.31,209.25,9.41,2
4224,62.32,191.99,-27.39,2
4225,62.33,173.34,-56.97,2
4226,62.35,139.48,-30.4,2
4227,62.36,84.73,-45.24,2
4228,62.37,30.14,-52.84,2
4229,62.38,12.51,-49.99,2
4230,62.4,-32.85,-65.57,2
4231,62.41,-74.38,-59.03,2
4232,62.43,-125.15,-30.11,2
4233,62.44,-271.18,-38.88,2
4234,62.45,-333.45,-17.27,2
4235,62.47,-312.78,-10.56,2
4236,62.48,-343.29,-6.14,2
4237,62.49,-310.91,5.83,2
4238,62.5,-248.61,24.9,2
4239,62.52,-226.14,-15.77,2
4240,62.53,-170.91,18.61,2
4241,62.54,-117.25,24.05,2
4242,62.56,-95.06,-15.6,1
4243,62.57,-49.52,24.07,1
4244,62.585,-14.44,33.57,1
4245,62.6,1.67,16.64,1
4246,62.61,14.61,33.03,1
4247,62.63,63.83,43.1,1
4248,62.64,54.01,9.94,1
4249,62.65,73.47,15.86,1
4250,62.67,121.18,35.48,1
4251,62.68,119.03,-3.4,1
4252,62.69,116.82,21.57,1
4253,62.71,149.55,47.69,1
4254,62.72,127.29,-22.75,1
4255,62.73,134.94,-0.25,1
4256,62.75,152.2,35.45,1
4257,62.76,116.48,20.7,1
4258,62.77,113.16,47.53,1
4259,62.79,137.43,43.17,1
4260,62.8,99.19,-20.62,1
4261,62.81,113.84,-3.73,1
4262,62.83,124.95,25.17,1
4263,62.84,82.2,-33.9,1
4264,62.85,73.8,-6.14,1
4265,62.87,93.36,5.59,1
4266,62.88,62.47,-62.69,1
4267,62.89,49.51,-6.74,1
4268,62.9,68.01,4.8,1
4269,62.92,20.86,-38.53,1
4270,62.93,23.0,-24.74,1
4271,62.95,60.16,26.61,1
4272,62.96,4.31,-17.68,1
4273,62.97,-3.91,-3.57,1
4274,62.99,23.99,25.21,1
4275,63.0,-15.95,-42.99,1
4276,63.01,-12.45,-14.12,1
4277,63.03,-1.57,26.17,1
4278,63.04,-19.33,-38.19,1
4279,63.05,-34.45,-6.98,1
4280,63.06,1.91,19.71,1
4281,63.08,-47.69,-33.81,1
4282,63.09,-47.94,8.98,1
4283,63.11,-28.8,42.93,1
4284,63.12,-42.91,-36.99,1
4285,63.13,-47.1,-16.42,1
4286,63.14,-25.45,43.86,1
4287,63.16,-42.73,-32.66,1
4288,63.17,-55.01,9.66,1
4289,63.18,-38.11,49.43,1
4290,63.2,-61.59,-36.99,1
4291,63.21,-56.45,2.17,1
4292,63.22,-45.25,19.18,1
4293,63.24,-61.51,-43.25,1
4294,63.25,-63.13,8.92,1
4295,63.27,-27.19,45.55,1
4296,63.28,-59.18,-45.19,1
4297,63.29,-42.61,-11.85,1
4298,63.31,-4.81,27.68,1
4299,63.32,-38.66,-38.98,1
4300,63.33,-24.24,16.62,1
4301,63.35,-3.63,28.51,1
4302,63.36,-49.93,-51.76,1
4303,63.37,-39.94,-12.45,1
4304,63.38,-7.74,51.96,1
4305,63.4,-33.59,-32.76,1
4306,63.41,-24.07,-11.9,1
4307,63.43,0.47,50.11,1
4308,63.44,-15.89,-35.94,1
4309,63.45,-3.11,10.11,1
4310,63.47,3.52,35.18,1
4311,63.48,-6.54,-30.31,1
4312,63.49,-9.85,4.05,1
4313,63.51,11.94,43.07,1
4314,63.52,-0.93,-40.23,1
4315,63.53,-9.94,-9.46,1
4316,63.54,16.74,47.66,1
4317,63.56,-0.49,-41.68,1
4318,63.57,-17.45,17.06,1
4319,63.59,36.34,51.09,1
4320,63.6,5.5,-18.67,1
4321,63.61,-10.51,-5.39,1
4322,63.63,21.24,34.38,1
4323,63.64,-6.49,-46.72,1
4324,63.65,1.77,-1.52,1
4325,63.67,27.38,4.4,1
4326,63.68,8.62,-41.37,1
4327,63.69,7.86,-9.8,1
4328,63.71,37.82,15.6,1
4329,63.72,13.57,-38.01,1
4330,63.73,16.73,21.28,1
4331,63.75,49.39,46.25,1
4332,63.76,2.39,-41.72,1
4333,63.77,-9.27,11.87,1
4334,63.78,29.25,24.47,1
4335,63.8,2.59,-47.71,1
4336,63.81,17.05,-4.3,1
4337,63.82,30.94,29.68,1
4338,63.84,-4.03,-35.81,1
4339,63.85,10.39,-0.75,1
4340,63.86,22.9,49.94,1
4341,63.88,0.36,-20.83,1
4342,63.89,17.49,-4.92,1
4343,63.9,28.47,29.33,1
4344,63.92,1.56,-46.65,1
4345,63.93,0.65,9.91,1
4346,63.95,28.39,28.46,1
4347,63.96,11.86,-29.28,1
4348,63.97,1.81,-6.95,1
4349,63.99,9.9,45.07,1
4350,64.0,-11.57,-21.7,1
4351,64.01,-5.41,17.4,1
4352,64.02,19.43,47.64,1
4353,64.04,-3.32,-45.82,1
4354,64.05,-7.16,-19.15,1
4355,64.06,4.49,14.17,1
4356,64.08,-15.52,-38.53,1
4357,64.09,-1.44,19.9,1
4358,64.11,13.43,36.45,1
4359,64.12,-9.57,-41.68,1
4360,64.13,-21.29,8.63,1
4361,64.14,12.14,34.78,1
4362,64.16,-9.68,16.68,1
4363,64.17,-16.04,124.9,1
4364,64.18,-8.85,260.84,1
4365,64.2,-19.95,254.53,1
4366,64.21,12.31,84.68,1
4367,64.22,-8.52,264.24,1
4368,64.24,1.83,146.63,1
4369,64.25,44.69,139.51,1
4370,64.26,-380.82,38.86,1
4371,64.28,-164.45,2.38,1
4372,64.29,-250.78,-23.34,1
4373,64.3,112.71,-81.44,1
4374,64.32,-159.22,-107.57,1
4375,64.33,-110.66,-110.23,1
4376,64.34,7.11,-153.25,1
4377,64.36,-102.4,-160.83,1
4378,64.37,2.82,-151.16,1
4379,64.38,269.2,-179.93,1
4380,64.4,-35.8,-177.5,1
4381,64.41,296.8,-155.83,1
4382,64.42,108.44,-175.69,1
4383,64.44,87.05,-166.96,1
4384,64.45,-52.33,-137.64,1
4385,64.46,81.26,-152.94,1
4386,64.48,44.88,-137.78,1
4387,64.49,56.14,-104.75,1
4388,64.5,317.18,-118.09,1
4389,64.52,633.1,-100.18,1
4390,64.53,309.38,-66.47,1
4391,64.54,-126.01,-77.29,1
4392,64.56,-122.26,-59.41,1
4393,64.57,-20.2,-25.27,1
4394,64.58,260.1,-36.99,1
4395,64.6,2.5,-20.45,1
4396,64.61,-128.18,12.38,1
4397,64.62,387.59,-0.37,1
4398,64.64,-122.06,14.22,1
4399,64.65,123.26,44.94,1
4400,64.66,-253.06,29.78,1
4401,64.68,142.32,41.7,1
4402,64.69,-413.0,70.49,1
4403,64.7,303.83,53.58,1
4404,64.72,-450.04,-1.15,1
4405,64.73,-177.88,-143.42,1
4406,64.75,-81.65,-56.35,1
4407,64.76,336.39,-17.53,1
4408,64.77,144.48,-196.22,1
4409,64.79,-205.53,110.3,1
4410,64.8,-421.86,-111.06,1
4411,64.81,86.82,307.47,1
4412,64.82,-487.04,-57.97,1
4413,64.84,-266.55,216.87,1
4414,64.85,-142.21,236.69,1
4415,64.86,-119.89,28.76,1
4416,64.88,38.84,-108.11,1
4417,64.89,-227.26,10.73,1
4418,64.9,107.89,75.02,1
4419,64.92,-281.3,193.19,1
4420,64.93,286.48,362.14,1
4421,64.94,-83.74,51.45,1
4422,64.96,-113.48,-65.74,1
4423,64.97,-110.38,228.12,1
4424,64.98,-192.98,-5.79,1
4425,65.0,38.97,32.48,1
4426,65.01,-96.47,3.2,1
4427,65.02,44.19,-185.8,1
4428,65.04,308.66,-55.28,1
4429,65.05,262.88,0.36,1
4430,65.06,49.67,43.7,1
4431,65.08,68.19,74.04,1
4432,65.09,144.34,135.55,1
4433,65.1,293.17,137.91,1
4434,65.12,315.62,151.22,1
4435,65.13,315.26,190.02,1
4436,65.14,196.03,174.57,1
4437,65.16,114.4,168.91,1
4438,65.17,6.67,194.38,1
4439,65.18,-28.13,166.71,1
4440,65.2,-104.24,150.53,1
4441,65.21,-139.74,165.65,1
4442,65.22,-132.31,130.53,1
4443,65.24,-149.26,107.73,1
4444,65.25,-154.29,118.99,1
4445,65.26,-123.22,80.3,1
4446,65.28,-113.37,54.96,1
4447,65.29,-113.65,61.91,1
4448,65.3,-113.42,25.99,1
4449,65.32,-99.5,-0.41,1
4450,65.33,-98.61,27.1,1
4451,65.34,-43.96,70.2,1
4452,65.36,-47.39,137.56,1
4453,65.37,-16.57,125.42,1
4454,65.38,-23.09,99.37,1
4455,65.4,-24.25,83.93,1
4456,65.41,-6.99,30.9,1
4457,65.43,15.24,-37.35,1
4458,65.44,24.3,-66.2,1
4459,65.45,-7.91,-125.02,1
4460,65.46,18.0,-137.93,1
4461,65.48,26.56,-139.23,1
4462,65.49,24.65,-209.13,1
4463,65.5,27.42,-205.16,1
4464,65.52,48.39,-238.15,1
4465,65.53,21.68,-264.02,1
4466,65.54,43.89,-255.09,1
4467,65.56,51.71,-255.75,1
4468,65.57,56.03,-266.69,1
4469,65.58,55.49,-275.5,1
4470,65.6,66.91,-258.94,1
4471,65.61,60.2,-292.8,1
4472,65.62,77.3,-249.3,1
4473,65.64,65.83,-213.66,1
4474,65.65,40.36,-209.66,1
4475,65.66,47.27,-180.05,1
4476,65.68,23.34,-165.08,1
4477,65.69,24.85,-170.24,1
4478,65.7,20.9,-137.63,1
4479,65.72,47.15,-124.59,1
4480,65.73,16.06,-126.85,1
4481,65.74,34.45,-108.35,1
4482,65.76,31.79,-77.01,1
4483,65.77,18.15,-93.55,1
4484,65.78,8.94,-58.11,1
4485,65.8,17.09,-3.91,1
4486,65.81,0.74,-11.03,1
4487,65.82,-3.08,18.98,1
4488,65.84,10.64,54.04,1
4489,65.85,-13.09,25.76,1
4490,65.86,-7.17,49.64,1
4491,65.88,9.87,104.94,1
4492,65.89,-7.24,62.68,1
4493,65.9,-19.52,87.15,1
4494,65.92,-8.61,136.08,1
4495,65.93,-10.8,74.94,1
4496,65.94,-0.77,126.21,1
4497,65.96,6.32,131.4,1
4498,65.97,-20.86,105.23,1
4499,65.98,-30.2,135.95,1
4500,66.0,-18.26,144.23,1
4501,66.01,-12.1,118.75,1
4502,66.02,-15.57,130.6,1
4503,66.04,-6.19,144.19,1
4504,66.05,-31.71,99.52,1
4505,66.06,-15.79,132.73,1
4506,66.08,-13.04,149.09,1
4507,66.09,-42.69,84.68,1
4508,66.11,-14.31,88.86,1
4509,66.12,-6.28,137.38,1
4510,66.13,-25.41,73.63,1
4511,66.14,-13.44,90.68,1
4512,66.16,-6.62,119.95,2
4513,66.17,-22.07,44.13,2
4514,66.18,-19.66,63.32,2
4515,66.2,-5.35,88.63,2
4516,66.21,-29.14,33.83,2
4517,66.22,-7.19,40.12,2
4518,66.24,4.32,66.27,2
4519,66.25,-15.17,0.72,2
4520,66.26,7.05,34.38,2
4521,66.28,66.18,61.8,2
4522,66.29,112.07,-41.74,2
4523,66.3,194.65,-9.5,2
4524,66.32,224.35,7.54,2
4525,66.33,172.68,-44.93,2
4526,66.34,121.31,-18.29,2
4527,66.36,72.86,-1.48,2
4528,66.37,-12.77,-72.01,2
4529,66.38,-55.06,-49.29,2
4530,66.4,-114.54,23.72,2
4531,66.41,-173.61,-49.27,2
4532,66.42,-191.05,2.57,2
4533,66.44,-180.3,45.04,2
4534,66.45,-229.61,-42.85,2
4535,66.46,-189.3,-6.39,2
4536,66.48,-169.5,31.18,2
4537,66.49,-187.13,-43.77,2
4538,66.5,-138.38,-10.44,2
4539,66.52,-121.73,27.2,2
4540,66.53,-115.5,-43.36,2
4541,66.54,-95.22,-15.6,2
4542,66.56,-47.6,16.58,1
4543,66.57,-37.93,-55.21,1
4544,66.58,-22.07,-17.46,1
4545,66.6,3.99,-1.13,1
4546,66.61,-8.5,-81.48,1
4547,66.62,21.68,-21.93,1
4548,66.64,35.75,-9.01,1
4549,66.65,55.16,-106.32,1
4550,66.66,56.24,-55.08,1
4551,66.68,82.8,-11.83,1
4552,66.69,84.8,-92.76,1
4553,66.7,106.74,-37.47,1
4554,66.72,117.47,-11.14,1
4555,66.73,91.84,-72.06,1
4556,66.75,88.12,-46.12,1
4557,66.76,92.5,-35.73,1
4558,66.77,90.05,-80.22,1
4559,66.79,83.4,-29.69,1
4560,66.8,103.15,5.99,1
4561,66.81,77.35,-88.84,1
4562,66.82,89.22,-3.48,1
4563,66.84,68.74,29.71,1
4564,66.85,73.36,-64.25,1
4565,66.86,48.28,-8.65,1
4566,66.88,71.57,14.98,1
4567,66.89,42.99,-45.76,1
4568,66.9,39.48,7.85,1
4569,66.92,37.35,54.67,1
4570,66.93,24.62,-34.97,1
4571,66.94,24.0,17.21,1
4572,66.96,18.96,44.49,1
4573,66.97,5.62,-41.79,1
4574,66.98,28.05,17.33,1
4575,67.0,25.07,69.73,1
4576,67.01,-16.18,-21.28,1
4577,67.02,-6.48,19.44,1
4578,67.04,3.08,59.46,1
4579,67.05,-15.24,-6.5,1
4580,67.06,-14.75,33.9,1
4581,67.08,-1.3,46.55,1
4582,67.09,-21.07,-8.74,1
4583,67.1,-27.73,30.97,1
4584,67.12,-25.26,68.92,1
4585,67.13,-41.49,-9.28,1
4586,67.14,-44.33,8.48,1
4587,67.16,-20.06,59.55,1
4588,67.17,-44.32,-14.63,1
4589,67.18,-32.3,32.89,1
4590,67.2,-30.93,45.97,1
4591,67.21,-31.05,-26.98,1
4592,67.22,-45.53,10.08,1
4593,67.24,-2.86,55.44,1
4594,67.25,-44.25,-15.38,1
4595,67.26,-26.53,18.36,1
4596,67.28,-15.35,41.18,1
4597,67.29,-50.63,-21.11,1
4598,67.3,-33.13,21.04,1
4599,67.32,-13.42,24.11,1
4600,67.33,-36.94,-32.98,1
4601,67.34,-40.05,21.07,1
4602,67.36,-12.08,44.54,1
4603,67.37,-20.63,-27.55,1
4604,67.38,-29.58,-4.24,1
4605,67.4,-13.77,37.43,1
4606,67.41,-22.7,-34.03,1
4607,67.43,-4.17,-16.0,1
4608,67.44,9.74,18.15,1
4609,67.45,-18.57,-39.44,1
4610,67.46,-26.7,-2.59,1
4611,67.48,4.41,29.86,1
4612,67.49,-17.56,-59.22,1
4613,67.5,-9.7,-16.55,1
4614,67.52,15.85,8.96,1
4615,67.53,-7.39,-46.23,1
4616,67.54,8.14,-14.99,1
4617,67.56,16.84,37.8,1
4618,67.57,-2.59,-38.94,1
4619,67.58,10.73,-9.82,1
4620,67.6,11.43,30.42,1
4621,67.61,-10.43,-29.24,1
4622,67.62,-0.37,3.58,1
4623,67.64,1.4,17.07,1
4624,67.65,-3.96,-7.53,1
4625,67.66,3.35,-9.94,1
4626,67.68,12.46,23.17,1
4627,67.69,-0.4,-38.73,1
4628,67.7,13.11,-18.37,1
4629,67.72,16.76,-3.04,1
4630,67.73,-6.89,-35.92,1
4631,67.74,8.32,-13.77,1
4632,67.76,24.14,23.59,1
4633,67.77,-0.61,-38.91,1
4634,67.78,-10.31,12.55,1
4635,67.8,35.57,21.8,1
4636,67.81,-0.68,-6.52,1
4637,67.82,16.2,7.59,1
4638,67.84,19.08,12.65,1
4639,67.85,3.46,-18.05,1
4640,67.86,-0.81,-17.77,1
4641,67.88,25.98,15.47,1
4642,67.89,-9.91,-17.18,1
4643,67.9,-6.94,10.5,1
4644,67.92,26.29,21.17,1
4645,67.93,-5.19,-21.32,1
4646,67.94,1.62,-13.12,1
4647,67.96,30.73,19.13,1
4648,67.97,9.63,-24.26,1
4649,67.98,1.76,8.08,1
4650,68.0,29.79,5.91,1
4651,68.01,-14.17,-19.69,1
4652,68.02,-9.73,7.53,1
4653,68.04,18.23,-3.01,1
4654,68.05,-9.34,-4.59,1
4655,68.06,3.88,19.99,1
4656,68.08,8.53,31.87,1
4657,68.09,-44.6,-13.39,1
4658,68.11,4.39,-19.64,1
4659,68.12,27.36,2.27,1
4660,68.13,-24.09,14.42,1
4661,68.14,8.94,21.7,1
4662,68.16,41.97,25.11,0
4663,68.17,-2.74,-2.8,0
4664,68.18,2.74,18.54,0
4665,68.2,16.96,25.11,0
4666,68.21,-11.76,10.54,0
4667,68.22,21.29,17.42,0
4668,68.24,-129.73,9.74,0
4669,68.25,-193.85,5.45,0
4670,68.26,-240.47,-3.76,0
4671,68.28,-220.88,-14.98,0
4672,68.29,-198.68,-42.11,0
4673,68.3,-152.21,-88.2,0
4674,68.32,-82.33,-59.88,0
4675,68.33,-49.12,-46.76,0
4676,68.34,-17.34,-36.09,0
4677,68.36,40.19,7.89,0
4678,68.37,64.82,16.9,0
4679,68.38,147.73,14.05,0
4680,68.4,294.51,24.55,0
4681,68.41,288.71,49.96,0
4682,68.42,335.08,19.12,0
4683,68.44,318.43,31.45,0
4684,68.45,271.88,33.97,0
4685,68.46,244.0,14.66,0
4686,68.48,228.31,33.52,0
4687,68.49,151.99,37.11,0
4688,68.5,141.37,5.16,0
4689,68.52,146.21,28.44,0
4690,68.53,41.06,33.4,0
4691,68.54,8.16,-3.78,0
4692,68.56,14.01,6.67,1
4693,68.57,-41.44,15.02,1
4694,68.58,-41.18,-12.49,1
4695,68.6,-39.57,-25.11,1
4696,68.61,-103.6,11.98,1
4697,68.62,-82.94,-17.93,1
4698,68.64,-91.41,-23.74,1
4699,68.65,-145.37,-10.77,1
4700,68.66,-133.57,-27.84,1
4701,68.68,-88.68,-4.81,1
4702,68.69,-135.56,10.35,1
4703,68.7,-122.26,-31.69,1
4704,68.72,-114.11,-4.91,1
4705,68.73,-141.3,30.83,1
4706,68.75,-131.99,-25.61,1
4707,68.76,-100.05,-12.1,1
4708,68.77,-120.08,4.37,1
4709,68.79,-109.91,-14.01,1
4710,68.8,-80.32,8.86,1
4711,68.81,-109.12,20.66,1
4712,68.82,-79.84,6.33,1
4713,68.84,-54.04,-1.23,1
4714,68.85,-85.04,10.54,1
4715,68.86,-66.27,-31.79,1
4716,68.88,-23.73,-14.5,1
4717,68.89,-1.24,18.77,1
4718,68.9,42.32,-25.78,1
4719,68.92,13.0,-8.59,1
4720,68.93,-38.65,19.33,1
4721,68.94,-36.38,-29.56,1
4722,68.96,-19.28,10.2,1
4723,68.97,-48.78,2.28,1
4724,68.98,-22.15,-36.44,1
4725,69.0,1.79,-6.68,1
4726,69.01,-24.69,39.47,1
4727,69.02,-14.54,-6.22,1
4728,69.04,32.33,-0.42,1
4729,69.05,9.0,24.51,1
4730,69.06,24.18,-43.53,1
4731,69.08,34.51,-8.91,1
4732,69.09,26.48,9.03,1
4733,69.11,36.68,-32.99,1
4734,69.12,68.48,11.86,1
4735,69.13,34.0,24.49,1
4736,69.14,39.72,-48.07,1
4737,69.16,67.64,-8.44,1
4738,69.17,37.16,23.1,1
4739,69.18,44.73,-34.98,1
4740,69.2,80.07,6.23,1
4741,69.21,37.09,29.14,1
4742,69.22,53.21,-20.86,1
4743,69.24,69.21,-3.95,1
4744,69.25,48.92,40.77,1
4745,69.26,49.0,-23.37,1
4746,69.28,60.03,11.28,1
4747,69.29,48.73,26.66,1
4748,69.3,56.7,-42.51,1
4749,69.32,48.88,-1.99,1
4750,69.33,13.96,30.14,1
4751,69.34,29.9,-31.68,1
4752,69.36,51.27,3.4,1
4753,69.37,12.3,52.89,1
