,Timestamp,Data1,Data2,Label
0,6.0,-1.97,-17.04,1
1,6.01,-7.41,1.04,1
2,6.03,-33.66,25.93,1
3,6.04,-24.69,7.2,1
4,6.05,2.21,9.75,1
5,6.07,17.11,-16.01,1
6,6.08,0.44,-17.08,1
7,6.09,13.64,-23.89,1
8,6.11,4.29,2.7,1
9,6.12,12.7,-11.25,1
10,6.13,28.88,-3.52,1
11,6.15,-16.4,19.36,2
12,6.16,42.97,-17.35,2
13,6.17,54.3,-39.52,2
14,6.19,99.04,7.55,2
15,6.2,153.37,-29.6,2
16,6.21,136.23,-52.17,2
17,6.23,117.64,-81.78,2
18,6.24,73.93,3.16,2
19,6.25,9.25,-44.55,2
20,6.27,4.24,-15.7,2
21,6.28,-77.38,-4.6,2
22,6.29,-90.64,59.15,2
23,6.31,-100.94,40.77,2
24,6.32,-115.7,51.71,2
25,6.33,-139.29,59.84,2
26,6.35,-108.41,60.97,2
27,6.36,-115.72,50.33,2
28,6.37,-113.75,42.18,2
29,6.39,-91.4,39.72,2
30,6.4,-88.23,34.54,2
31,6.41,-85.44,26.56,2
32,6.43,-68.36,25.75,2
33,6.44,-63.71,26.98,2
34,6.45,-37.26,14.86,2
35,6.47,-26.55,2.76,2
36,6.48,-14.14,-0.08,2
37,6.49,-6.8,7.91,2
38,6.51,3.29,-15.11,2
39,6.52,18.51,-6.6,2
40,6.53,33.11,-4.84,2
41,6.55,28.84,-9.58,2
42,6.56,28.19,-18.82,1
43,6.57,39.41,-39.5,1
44,6.59,47.33,-12.6,1
45,6.6,74.65,-38.51,1
46,6.61,51.69,-46.0,1
47,6.63,64.41,-4.09,1
48,6.64,45.6,19.21,1
49,6.65,81.22,2.84,1
50,6.67,76.51,-37.62,1
51,6.68,57.78,-26.64,1
52,6.69,40.83,-11.57,1
53,6.71,45.81,-12.67,1
54,6.72,36.36,-26.67,1
55,6.73,21.33,2.03,1
56,6.75,27.12,2.28,1
57,6.76,37.02,-12.34,1
58,6.77,52.81,-38.64,1
59,6.79,37.87,-32.1,1
60,6.8,14.39,-25.64,1
61,6.81,20.03,1.64,1
62,6.83,19.2,9.8,1
63,6.84,8.81,17.98,1
64,6.85,-5.87,-17.47,1
65,6.87,14.1,-4.98,1
66,6.88,12.91,-9.99,1
67,6.89,-4.48,1.13,1
68,6.91,3.88,-1.06,1
69,6.92,1.88,-20.89,1
70,6.93,5.27,-17.84,1
71,6.95,-15.88,4.23,1
72,6.96,-29.05,7.2,1
73,6.97,-6.8,14.53,1
74,6.99,4.97,16.99,1
75,7.0,-14.06,21.75,1
76,7.01,-20.06,6.58,1
77,7.03,-18.59,14.69,1
78,7.04,-26.3,8.61,1
79,7.05,-22.4,2.95,1
80,7.07,-15.57,-17.22,1
81,7.08,-18.92,-2.6,1
82,7.09,-21.57,3.0,1
83,7.11,-22.83,24.78,1
84,7.12,-33.97,2.52,1
85,7.13,-1.12,22.43,1
86,7.15,-14.99,21.28,1
87,7.16,-24.38,23.92,1
88,7.17,-31.82,-3.63,1
89,7.19,-30.74,-13.87,1
90,7.2,-16.69,11.42,1
91,7.21,-17.76,9.72,1
92,7.23,-17.54,19.41,1
93,7.24,-18.06,14.34,1
94,7.25,-8.1,7.15,1
95,7.27,-3.72,21.06,1
96,7.28,-9.74,8.81,1
97,7.29,1.36,11.0,1
98,7.31,-30.34,-6.37,1
99,7.32,-29.25,4.29,1
100,7.33,-25.03,-11.34,1
101,7.35,5.37,-6.29,1
102,7.36,-1.14,15.16,1
103,7.37,12.52,9.69,1
104,7.39,14.54,-16.57,1
105,7.4,3.53,-11.88,1
106,7.41,12.65,3.5,1
107,7.43,8.95,-26.05,1
108,7.44,14.16,-5.38,1
109,7.45,15.61,17.87,1
110,7.47,-0.27,-24.67,1
111,7.48,6.13,-11.82,1
112,7.49,12.15,-15.41,1
113,7.51,-6.19,-8.16,1
114,7.52,-3.24,-23.03,1
115,7.53,14.03,-19.22,1
116,7.55,3.64,-5.62,1
117,7.56,13.63,12.61,1
118,7.57,4.89,1.45,1
119,7.59,2.5,-1.59,1
120,7.6,12.21,7.01,1
121,7.61,12.45,0.53,1
122,7.63,7.16,2.14,1
123,7.64,-3.1,-2.09,1
124,7.65,-7.41,20.36,1
125,7.67,-3.17,16.33,1
126,7.68,-4.79,16.02,1
127,7.69,-2.49,-1.98,1
128,7.71,-8.65,8.43,1
129,7.72,2.2,15.09,1
130,7.73,0.91,0.65,1
131,7.75,0.43,2.62,1
132,7.76,5.14,2.09,1
133,7.77,4.1,7.45,1
134,7.79,-11.86,5.59,1
135,7.8,8.48,1.6,1
136,7.81,9.65,-6.58,1
137,7.83,16.9,10.59,1
138,7.84,13.72,-1.75,1
139,7.85,12.95,-5.03,1
140,7.87,16.52,-0.05,1
141,7.88,2.5,-27.07,1
142,7.89,-0.95,-5.89,1
143,7.91,0.87,-10.4,1
144,7.92,2.97,-4.56,1
145,7.93,-5.44,12.49,1
146,7.95,-8.67,-3.13,1
147,7.96,5.22,-4.26,1
148,7.97,-1.59,-10.81,1
149,7.99,-10.08,-14.13,1
150,8.0,-14.93,-15.48,1
151,8.01,-11.86,4.08,1
152,8.03,3.58,3.47,1
153,8.04,-7.98,0.74,1
154,8.05,7.19,-3.71,1
155,8.07,17.72,-9.81,1
156,8.08,11.02,-4.86,1
157,8.09,4.59,-0.97,1
158,8.11,6.74,-12.31,1
159,8.12,-10.9,6.17,1
160,8.13,6.58,9.58,1
161,8.15,0.92,-0.26,0
162,8.16,-2.53,20.44,0
163,8.17,-1.29,19.25,0
164,8.19,-8.21,18.45,0
165,8.2,-41.78,-10.17,0
166,8.21,-37.53,-18.97,0
167,8.23,-103.88,-2.17,0
168,8.24,-113.97,-6.63,0
169,8.25,-119.24,22.34,0
170,8.27,-118.19,19.98,0
171,8.28,-94.06,5.86,0
172,8.29,-81.31,-5.67,0
173,8.31,-39.62,19.33,0
174,8.32,-11.06,-20.77,0
175,8.33,28.64,-24.48,0
176,8.35,81.13,-25.61,0
177,8.36,133.05,-21.14,0
178,8.37,182.42,-23.11,0
179,8.39,184.26,-25.3,0
180,8.4,196.64,-17.79,0
181,8.41,182.91,1.93,0
182,8.43,165.7,3.23,0
183,8.44,132.87,-1.0,0
184,8.45,107.96,12.7,0
185,8.47,83.01,17.2,0
186,8.48,54.02,39.74,0
187,8.49,28.8,28.65,0
188,8.51,22.28,10.04,0
189,8.52,17.93,19.86,0
190,8.53,-6.81,21.38,0
191,8.55,-20.72,2.36,1
192,8.56,-17.97,-26.29,1
193,8.57,-26.65,-29.39,1
194,8.59,-47.6,-12.8,1
195,8.6,-45.23,-11.96,1
196,8.61,-64.46,-0.08,1
197,8.63,-71.02,-4.98,1
198,8.64,-81.91,15.1,1
199,8.65,-80.36,7.98,1
200,8.67,-84.2,12.1,1
201,8.68,-74.03,6.02,1
202,8.69,-77.0,-1.43,1
203,8.71,-80.39,1.77,1
204,8.72,-79.46,4.89,1
205,8.73,-57.16,8.11,1
206,8.75,-66.44,17.61,1
207,8.76,-54.87,8.18,1
208,8.77,-47.5,4.58,1
209,8.79,-24.03,2.11,1
210,8.8,-23.19,-10.62,1
211,8.81,-32.19,10.44,1
212,8.83,-30.4,5.64,1
213,8.84,-32.55,-1.3,1
214,8.85,-42.88,-0.75,1
215,8.87,-33.25,-8.83,1
216,8.88,-29.86,6.55,1
217,8.89,-20.81,-14.17,1
218,8.91,-15.98,10.59,1
219,8.92,-4.15,-0.9,1
220,8.93,8.84,0.6,1
221,8.95,12.84,17.44,1
222,8.96,7.66,-6.74,1
223,8.97,13.46,11.23,1
224,8.99,20.0,0.13,1
225,9.0,26.4,-8.51,1
226,9.01,16.36,-7.74,1
227,9.03,16.6,-10.94,1
228,9.04,34.28,3.41,1
229,9.05,22.24,1.6,1
230,9.07,26.57,5.94,1
231,9.08,29.45,-22.46,1
232,9.09,22.96,-2.22,1
233,9.11,26.36,-0.55,1
234,9.12,29.46,-32.01,1
235,9.13,16.47,-35.78,1
236,9.15,33.22,-7.88,1
237,9.16,29.75,-9.28,1
238,9.17,37.57,-7.52,1
239,9.19,40.3,-4.13,1
240,9.2,20.25,8.55,1
241,9.21,37.18,-3.43,1
242,9.23,14.89,-6.01,1
243,9.24,6.88,-6.89,1
244,9.25,16.95,-17.6,1
245,9.27,30.93,37.08,1
246,9.28,9.32,7.41,1
247,9.29,19.34,9.05,1
248,9.31,0.9,-9.53,1
249,9.32,12.25,-0.61,1
250,9.33,8.4,-5.84,1
251,9.35,16.42,4.08,1
252,9.36,12.91,19.02,1
253,9.37,-0.68,14.99,1
254,9.39,5.85,13.79,1
255,9.4,3.23,-10.32,1
256,9.41,-5.97,-7.1,1
257,9.43,-8.22,-0.3,1
258,9.44,-2.0,27.74,1
259,9.45,-7.9,-7.98,1
260,9.47,-4.46,-13.71,1
261,9.48,-7.53,-0.17,1
262,9.49,-5.16,7.44,1
263,9.51,-8.03,-6.31,1
264,9.52,-12.6,1.8,1
265,9.53,6.09,17.53,1
266,9.55,-9.13,4.37,1
267,9.56,4.3,16.19,1
268,9.57,-3.4,-7.25,1
269,9.59,3.82,-11.7,1
270,9.6,-13.88,-7.12,1
271,9.61,-13.81,14.42,1
272,9.63,-14.31,9.35,1
273,9.64,8.76,2.84,1
274,9.65,-1.9,10.15,1
275,9.67,-0.71,-21.33,1
276,9.68,-16.14,3.9,1
277,9.69,-7.26,25.78,1
278,9.71,-3.23,1.1,1
279,9.72,-7.8,-7.32,1
280,9.73,-0.34,2.08,1
281,9.75,-11.59,-3.61,1
282,9.76,-9.0,0.38,1
283,9.77,-5.69,4.46,1
284,9.79,-2.73,-16.84,1
285,9.8,-9.57,-10.02,1
286,9.81,-6.69,14.96,1
287,9.83,-2.72,-4.8,1
288,9.84,-4.26,-6.94,1
289,9.85,-7.14,-6.24,1
290,9.87,-0.45,-6.3,1
291,9.88,1.35,8.1,1
292,9.89,-17.55,-3.73,1
293,9.91,2.02,3.56,1
294,9.92,-7.04,3.83,1
295,9.93,-4.38,-0.06,1
296,9.95,-5.89,-10.75,1
297,9.96,-0.96,-9.09,1
298,9.97,-7.04,2.33,1
299,9.99,-0.48,-3.43,1
300,10.0,10.2,0.99,1
301,10.01,-26.05,-0.68,1
302,10.03,-0.19,20.58,1
303,10.04,-6.05,-7.63,1
304,10.05,9.46,5.47,1
305,10.07,-2.5,-14.39,1
306,10.08,3.02,-10.98,1
307,10.09,8.71,-1.3,1
308,10.11,8.04,-7.31,1
309,10.12,11.38,-4.31,1
310,10.13,20.14,19.55,1
311,10.15,0.5,-0.28,0
312,10.16,6.22,-0.43,0
313,10.17,16.45,-15.08,0
314,10.19,-1.44,-3.17,0
315,10.2,14.27,-4.34,0
316,10.21,8.33,5.98,0
317,10.23,-27.57,-13.64,0
318,10.24,-84.45,24.78,0
319,10.25,-152.2,8.01,0
320,10.27,-125.18,-33.17,0
321,10.28,-127.73,38.7,0
322,10.29,-74.37,21.65,0
323,10.31,-55.91,5.0,0
324,10.32,-17.73,-40.01,0
325,10.33,28.04,-30.97,0
326,10.35,63.78,-51.38,0
327,10.36,95.7,11.27,0
328,10.37,110.03,6.6,0
329,10.39,111.02,-3.1,0
330,10.4,119.23,-7.69,0
331,10.41,127.17,18.45,0
332,10.43,121.49,20.73,0
333,10.44,85.31,39.36,0
334,10.45,100.06,9.73,0
335,10.47,90.84,18.4,0
336,10.48,76.56,21.82,0
337,10.49,67.29,-8.94,0
338,10.51,51.36,8.14,0
339,10.52,31.86,14.97,0
340,10.53,10.12,12.9,0
341,10.55,20.2,3.38,1
342,10.56,-4.7,-3.62,1
343,10.57,-13.78,1.13,1
344,10.59,-24.48,18.19,1
345,10.6,-11.79,-12.77,1
346,10.61,-39.89,-21.49,1
347,10.63,-35.41,-26.19,1
348,10.64,-34.28,6.7,1
349,10.65,-39.86,-21.7,1
350,10.67,-56.27,-6.56,1
351,10.68,-32.41,-17.42,1
352,10.69,-56.94,-14.61,1
353,10.71,-59.58,2.92,1
354,10.72,-66.75,1.53,1
355,10.73,-59.85,44.77,1
356,10.75,-68.16,9.97,1
357,10.76,-49.69,12.35,1
358,10.77,-48.24,34.38,1
359,10.79,-45.5,30.98,1
360,10.8,-39.91,3.24,1
361,10.81,-39.26,-2.7,1
362,10.83,-34.79,-21.49,1
363,10.84,-37.69,-4.08,1
364,10.85,-47.02,-11.25,1
365,10.87,-47.41,3.0,1
366,10.88,-13.73,-6.72,1
367,10.89,-27.53,-42.02,1
368,10.91,-9.95,-23.25,1
369,10.92,-19.99,-8.78,1
370,10.93,-6.04,-15.77,1
371,10.95,1.06,-0.86,1
372,10.96,14.02,-14.97,1
373,10.97,18.68,-10.93,1
374,10.99,14.79,-22.53,1
375,11.0,4.35,-14.66,1
376,11.01,9.42,-3.31,1
377,11.03,14.89,-0.93,1
378,11.04,21.62,8.87,1
379,11.05,19.51,-7.23,1
380,11.07,25.87,7.76,1
381,11.08,14.83,-11.72,1
382,11.09,1.37,3.78,1
383,11.11,19.28,10.99,1
384,11.12,27.04,5.96,1
385,11.13,13.46,-6.03,1
386,11.15,27.88,-2.29,1
387,11.16,18.8,16.42,1
388,11.17,21.57,-10.52,1
389,11.19,13.84,-0.69,1
390,11.2,14.86,-8.01,1
391,11.21,16.42,-7.75,1
392,11.23,17.43,24.1,1
393,11.24,-4.99,5.28,1
394,11.25,20.12,11.15,1
395,11.27,22.16,-5.77,1
396,11.28,19.25,32.86,1
397,11.29,5.64,26.71,1
398,11.31,28.38,10.84,1
399,11.32,16.9,-2.95,1
400,11.33,12.94,12.38,1
401,11.35,-7.48,21.84,1
402,11.36,4.64,20.06,1
403,11.37,3.66,4.18,1
404,11.39,7.73,-0.91,1
405,11.4,8.16,0.18,1
406,11.41,5.96,-19.76,1
407,11.43,-9.04,4.11,1
408,11.44,8.07,-13.54,1
409,11.45,10.78,-15.92,1
410,11.47,9.77,23.06,1
411,11.48,3.95,-4.44,1
412,11.49,-4.01,-1.51,1
413,11.51,2.77,-6.71,1
414,11.52,-8.03,-15.04,1
415,11.53,4.73,-7.49,1
416,11.55,12.15,12.95,1
417,11.56,33.19,-6.82,1
418,11.57,-28.07,3.08,1
419,11.59,-25.69,-1.5,1
420,11.6,-23.11,9.68,1
421,11.61,16.43,-3.1,1
422,11.63,7.29,7.22,1
423,11.64,3.62,-12.16,1
424,11.65,-11.9,-6.48,1
425,11.67,-9.62,5.93,1
426,11.68,-7.88,-10.25,1
427,11.69,-14.54,-24.84,1
428,11.71,-2.06,-15.09,1
429,11.72,-13.11,-16.53,1
430,11.73,-16.12,1.47,1
431,11.75,-5.27,6.26,1
432,11.76,-1.04,-6.91,1
433,11.77,-12.14,32.34,1
434,11.79,-18.13,17.91,1
435,11.8,-8.39,-3.37,1
436,11.81,10.68,-6.55,1
437,11.83,-11.54,-9.37,1
438,11.84,2.12,16.93,1
439,11.85,-12.74,0.1,1
440,11.87,-0.77,5.02,1
441,11.88,-4.88,-9.85,1
442,11.89,-3.48,-4.69,1
443,11.91,-3.13,-3.76,1
444,11.92,-4.89,-3.79,1
445,11.93,-1.09,-12.26,1
446,11.95,-2.16,-5.68,1
447,11.96,7.86,17.14,1
448,11.97,5.7,-4.88,1
449,11.99,10.2,10.59,1
450,12.0,2.45,-1.69,1
451,12.01,-17.17,8.59,1
452,12.03,-14.4,-2.64,1
453,12.04,4.74,-9.47,1
454,12.05,-1.65,3.15,1
455,12.07,4.08,11.51,1
456,12.08,4.47,-6.35,1
457,12.09,6.06,10.21,1
458,12.11,3.99,0.55,1
459,12.12,17.13,7.28,1
460,12.13,9.05,9.73,1
461,12.15,5.16,5.91,2
462,12.16,6.53,-11.48,2
463,12.17,4.66,-6.93,2
464,12.19,12.45,-9.85,2
465,12.2,14.57,-10.81,2
466,12.21,15.56,-3.71,2
467,12.23,7.24,-6.34,2
468,12.24,-6.4,-12.48,2
469,12.25,-6.16,-2.77,2
470,12.27,-9.52,-15.26,2
471,12.28,-15.79,-15.88,2
472,12.29,43.0,-8.99,2
473,12.31,59.43,14.6,2
474,12.32,111.53,-2.93,2
475,12.33,129.31,22.22,2
476,12.35,121.05,27.45,2
477,12.36,112.27,18.92,2
478,12.37,86.7,31.97,2
479,12.39,65.89,9.97,2
480,12.4,21.0,7.41,2
481,12.41,-25.65,15.79,2
482,12.43,-69.26,-8.15,2
483,12.44,-162.54,-6.07,2
484,12.45,-205.26,-9.81,2
485,12.47,-212.76,2.15,2
486,12.48,-214.7,-0.3,2
487,12.49,-190.86,-1.37,2
488,12.51,-167.49,8.33,2
489,12.52,-131.67,3.03,2
490,12.53,-126.58,12.92,2
491,12.55,-83.54,3.44,1
492,12.56,-83.04,22.78,1
493,12.57,-32.26,-18.83,1
494,12.59,-7.27,-9.12,1
495,12.6,17.68,-30.5,1
496,12.61,17.79,-21.69,1
497,12.63,19.34,-18.77,1
498,12.64,26.54,-25.96,1
499,12.65,40.12,-22.99,1
500,12.67,54.92,-4.79,1
501,12.68,50.63,-14.13,1
502,12.69,57.81,13.63,1
503,12.71,104.36,7.5,1
504,12.72,105.32,-1.7,1
505,12.73,72.51,-4.33,1
506,12.75,62.45,18.08,1
507,12.76,74.05,5.91,1
508,12.77,67.9,5.03,1
509,12.79,68.86,9.02,1
510,12.8,72.27,-5.67,1
511,12.81,63.04,-16.31,1
512,12.83,52.62,12.75,1
513,12.84,51.13,15.8,1
514,12.85,48.38,2.37,1
515,12.87,46.43,-13.65,1
516,12.88,43.19,-10.38,1
517,12.89,34.48,0.3,1
518,12.91,32.88,9.63,1
519,12.92,29.4,16.31,1
520,12.93,19.12,13.06,1
521,12.95,17.75,-3.25,1
522,12.96,3.83,20.67,1
523,12.97,11.36,-2.48,1
524,12.99,11.82,5.75,1
525,13.0,6.75,11.33,1
526,13.01,5.62,-9.8,1
527,13.03,2.77,-7.2,1
528,13.04,-9.19,-2.86,1
529,13.05,-15.42,-10.91,1
530,13.07,-15.53,-6.57,1
531,13.08,-1.79,-23.2,1
532,13.09,-5.86,2.41,1
533,13.11,-11.04,-9.87,1
534,13.12,-16.31,-13.89,1
535,13.13,-28.97,-13.36,1
536,13.15,-25.88,0.66,1
537,13.16,-24.12,9.59,1
538,13.17,-28.81,8.39,1
539,13.19,-37.48,10.79,1
540,13.2,-24.37,-8.51,1
541,13.21,-23.33,4.51,1
542,13.23,-22.11,1.71,1
543,13.24,-28.75,11.15,1
544,13.25,-29.5,-4.54,1
545,13.27,-35.02,-2.48,1
546,13.28,-36.43,10.3,1
547,13.29,-40.26,0.14,1
548,13.31,-22.12,-1.52,1
549,13.32,-12.46,0.65,1
550,13.33,-9.4,1.42,1
551,13.35,-3.58,-23.22,1
552,13.36,-3.21,-6.3,1
553,13.37,-22.72,6.24,1
554,13.39,-9.3,11.85,1
555,13.4,-17.39,2.46,1
556,13.41,1.71,15.9,1
557,13.43,2.17,8.47,1
558,13.44,-13.69,21.17,1
559,13.45,-8.57,-1.52,1
560,13.47,5.29,-6.87,1
561,13.48,-4.26,17.17,1
562,13.49,-16.48,4.56,1
563,13.51,-16.61,0.22,1
564,13.52,-2.2,8.69,1
565,13.53,2.21,-11.91,1
566,13.55,-0.07,-0.46,1
567,13.56,9.66,9.49,1
568,13.57,7.23,7.36,1
569,13.59,9.92,3.55,1
570,13.6,1.27,11.31,1
571,13.61,5.09,-7.67,1
572,13.63,-11.35,-6.5,1
573,13.64,4.96,13.98,1
574,13.65,2.21,1.47,1
575,13.67,0.69,-12.86,1
576,13.68,1.08,-32.19,1
577,13.69,-12.27,-14.3,1
578,13.71,3.71,12.16,1
579,13.72,-5.37,-5.53,1
580,13.73,21.64,-4.47,1
581,13.75,5.8,-14.0,1
582,13.76,24.94,4.37,1
583,13.77,-0.41,8.43,1
584,13.79,6.2,16.69,1
585,13.8,7.42,-12.46,1
586,13.81,-3.56,-3.75,1
587,13.83,0.78,-7.64,1
588,13.84,12.24,3.94,1
589,13.85,5.41,1.89,1
590,13.87,22.62,-9.36,1
591,13.88,10.44,2.39,1
592,13.89,14.28,5.95,1
593,13.91,3.64,9.39,1
594,13.92,8.58,-7.31,1
595,13.93,8.46,7.17,1
596,13.95,18.11,10.89,1
597,13.96,3.22,-11.55,1
598,13.97,0.92,-7.22,1
599,13.99,-1.21,0.8,1
600,14.0,-0.16,3.94,1
601,14.01,10.93,-4.82,1
602,14.03,-3.37,-24.21,1
603,14.04,-2.1,-2.82,1
604,14.05,-10.92,-4.81,1
605,14.07,12.49,-17.1,1
606,14.08,8.63,-4.35,1
607,14.09,-8.83,-5.88,1
608,14.11,-0.13,-1.59,1
609,14.12,-2.77,11.34,1
610,14.13,2.11,-2.81,1
611,14.15,10.95,4.1,1
612,14.16,-7.11,31.43,1
613,14.17,1.17,5.34,1
614,14.19,36.82,72.61,1
615,14.2,131.84,253.98,1
616,14.21,219.68,371.97,1
617,14.23,-77.87,249.97,1
618,14.24,91.34,106.04,1
619,14.25,16.05,-25.79,1
620,14.27,-54.25,-153.76,1
621,14.28,-46.92,-621.01,1
622,14.29,-3.21,165.57,1
623,14.31,225.68,141.65,1
624,14.32,124.46,138.25,1
625,14.33,73.32,78.97,1
626,14.35,73.14,41.43,1
627,14.36,60.56,0.32,1
628,14.37,20.5,-32.72,1
629,14.39,-14.93,-60.59,1
630,14.4,-65.56,-83.37,1
631,14.41,-245.4,-101.79,1
632,14.43,-60.32,-186.26,1
633,14.44,-138.38,-252.74,1
634,14.45,-81.97,-94.41,1
635,14.47,-95.73,-325.54,1
636,14.48,-148.23,-483.66,1
637,14.49,-326.08,-643.67,1
638,14.51,-351.67,-437.62,1
639,14.52,-304.45,36.66,1
640,14.53,-177.96,98.64,1
641,14.55,-256.94,-82.38,1
642,14.56,-57.29,-112.45,1
643,14.57,107.69,-20.78,1
644,14.59,-81.92,-178.33,1
645,14.6,9.73,26.93,1
646,14.61,-74.58,342.37,1
647,14.63,22.19,21.54,1
648,14.64,-82.35,-128.89,1
649,14.65,65.28,413.96,1
650,14.67,-129.63,39.4,1
651,14.68,135.37,297.83,1
652,14.69,-13.27,270.93,1
653,14.71,-173.39,-49.34,1
654,14.72,74.27,119.71,1
655,14.73,143.93,237.71,1
656,14.75,227.47,422.48,1
657,14.76,240.06,405.73,1
658,14.77,172.0,87.37,1
659,14.79,365.05,373.61,1
660,14.8,383.36,244.12,1
661,14.81,245.71,-71.59,1
662,14.83,-17.51,-115.29,1
663,14.84,-28.93,-289.91,1
664,14.85,58.36,319.69,1
665,14.87,309.61,194.96,1
666,14.88,102.25,188.84,1
667,14.89,87.33,-257.73,1
668,14.91,101.29,-224.96,1
669,14.92,-109.8,249.27,1
670,14.93,44.75,-262.83,1
671,14.95,-111.47,-54.4,1
672,14.96,196.84,213.02,1
673,14.97,-237.8,-209.36,1
674,14.99,65.41,-31.8,1
675,15.0,-217.63,-259.37,1
676,15.01,4.84,182.55,1
677,15.03,-71.16,-113.01,1
678,15.04,50.0,56.48,1
679,15.05,-27.7,-47.49,1
680,15.07,-82.08,-173.15,1
681,15.08,-133.78,-59.06,1
682,15.09,-202.75,-11.4,1
683,15.11,-183.19,224.6,1
684,15.12,-142.72,319.9,1
685,15.13,-94.6,101.57,1
686,15.15,-25.58,52.21,1
687,15.16,45.55,4.22,1
688,15.17,139.73,-136.43,1
689,15.19,147.25,-261.13,1
690,15.2,156.23,-207.83,1
691,15.21,150.68,-192.11,1
692,15.23,152.54,-154.22,1
693,15.24,171.42,-145.19,1
694,15.25,169.03,-79.4,1
695,15.27,165.72,-25.58,1
696,15.28,138.43,6.33,1
697,15.29,132.2,97.33,1
698,15.31,75.62,106.44,1
699,15.32,70.17,60.32,1
700,15.33,40.67,100.72,1
701,15.35,22.76,106.11,1
702,15.36,-31.87,97.37,1
703,15.37,-38.63,133.52,1
704,15.39,-54.04,88.49,1
705,15.4,-72.55,56.96,1
706,15.41,-73.94,52.16,1
707,15.43,-92.18,30.36,1
708,15.44,-147.29,0.9,1
709,15.45,-142.7,-26.12,1
710,15.47,-129.43,-48.8,1
711,15.48,-85.62,-42.2,1
712,15.49,-100.44,-70.85,1
713,15.51,-103.24,-73.98,1
714,15.52,-100.53,-57.54,1
715,15.53,-93.9,-79.23,1
716,15.55,-91.54,-96.02,1
717,15.56,-78.79,-96.7,1
718,15.57,-81.99,-88.88,1
719,15.59,-84.53,-87.5,1
720,15.6,-76.82,-83.32,1
721,15.61,-72.73,-77.03,1
722,15.63,-67.21,-64.93,1
723,15.64,-56.0,-81.37,1
724,15.65,-48.52,-52.2,1
725,15.67,-44.92,-62.9,1
726,15.68,-48.73,-42.62,1
727,15.69,-55.78,-37.5,1
728,15.71,-46.93,-37.82,1
729,15.72,-41.3,-39.71,1
730,15.73,-23.04,-28.92,1
731,15.75,-10.5,-4.25,1
732,15.76,-9.3,6.39,1
733,15.77,-5.7,15.5,1
734,15.79,-5.2,18.46,1
735,15.8,9.02,-0.99,1
736,15.81,18.35,10.16,1
737,15.83,26.1,28.5,1
738,15.84,27.88,38.63,1
739,15.85,36.34,40.14,1
740,15.87,29.16,42.79,1
741,15.88,35.14,38.32,1
742,15.89,35.11,69.05,1
743,15.91,36.54,45.17,1
744,15.92,30.28,50.69,1
745,15.93,33.16,54.24,1
746,15.95,38.95,24.5,1
747,15.96,47.87,38.04,1
748,15.97,38.68,57.93,1
749,15.99,51.9,34.9,1
750,16.0,40.22,58.64,1
751,16.01,61.42,58.78,1
752,16.03,42.89,38.48,1
753,16.04,40.86,51.82,1
754,16.05,55.04,61.77,1
755,16.07,35.92,29.28,1
756,16.08,45.12,50.39,1
757,16.09,51.54,45.84,1
758,16.11,46.78,31.71,1
759,16.12,42.62,0.21,1
760,16.13,31.04,23.86,1
761,16.15,23.73,2.91,1
762,16.16,35.48,15.37,2
763,16.17,27.95,9.55,2
764,16.19,19.17,-3.94,2
765,16.2,36.23,-12.67,2
766,16.21,20.41,-11.9,2
767,16.23,25.88,-25.57,2
768,16.24,14.13,-38.99,2
769,16.25,31.57,-21.1,2
770,16.27,6.56,-35.92,2
771,16.28,55.43,-37.87,2
772,16.29,111.81,-33.74,2
773,16.31,111.88,-10.46,2
774,16.32,118.02,-21.18,2
775,16.33,93.16,11.42,2
776,16.35,23.36,-6.43,2
777,16.36,-1.12,-4.24,2
778,16.37,-22.51,-6.24,2
779,16.39,-67.66,-16.51,2
780,16.4,-97.43,-14.98,2
781,16.41,-126.61,-16.0,2
782,16.425,-105.06,-5.27,2
783,16.44,-123.35,5.42,2
784,16.45,-115.85,6.58,2
785,16.47,-116.61,11.76,2
786,16.48,-119.99,-0.31,2
787,16.49,-110.68,19.92,2
788,16.51,-89.67,-1.32,2
789,16.52,-77.74,-13.3,2
790,16.53,-90.94,1.32,2
791,16.55,-76.21,-14.42,1
792,16.56,-70.44,-5.13,1
793,16.57,-67.72,-8.65,1
794,16.59,-41.32,-10.86,1
795,16.6,-12.43,-16.57,1
796,16.61,-13.67,-11.8,1
797,16.63,-8.63,-11.3,1
798,16.64,10.82,-6.49,1
799,16.65,21.08,6.51,1
800,16.67,19.04,-16.16,1
801,16.68,23.41,-22.16,1
802,16.69,31.34,-11.39,1
803,16.71,51.2,-5.49,1
804,16.72,58.0,-21.74,1
805,16.73,42.29,-10.81,1
806,16.75,51.82,1.43,1
807,16.76,64.91,-13.12,1
808,16.77,66.99,-11.3,1
809,16.79,40.59,7.85,1
810,16.8,65.26,8.92,1
811,16.81,50.27,8.23,1
812,16.83,44.4,-3.44,1
813,16.84,55.3,-6.39,1
814,16.85,58.87,1.84,1
815,16.87,35.32,6.01,1
816,16.88,42.44,0.97,1
817,16.89,34.29,9.28,1
818,16.91,31.33,11.75,1
819,16.92,13.14,13.68,1
820,16.93,19.62,13.96,1
821,16.95,38.14,3.55,1
822,16.96,6.57,0.6,1
823,16.97,6.8,10.42,1
824,16.99,-4.88,3.9,1
825,17.0,4.06,7.94,1
826,17.01,-3.72,11.83,1
827,17.03,15.98,5.06,1
828,17.04,4.99,10.91,1
829,17.05,-5.06,15.95,1
830,17.06,-27.52,5.2,1
831,17.08,8.94,1.42,1
832,17.09,-4.64,2.15,1
833,17.11,-12.84,10.36,1
834,17.12,-5.49,16.83,1
835,17.13,-13.26,8.41,1
836,17.15,-9.25,25.82,1
837,17.16,-18.16,-6.05,1
838,17.17,-20.56,-9.38,1
839,17.19,-16.17,-11.28,1
840,17.2,-15.64,-6.56,1
841,17.21,-12.97,-5.45,1
842,17.23,-36.54,-26.47,1
843,17.24,-24.31,4.01,1
844,17.25,-26.15,3.5,1
845,17.27,-22.82,2.19,1
846,17.28,-8.07,5.51,1
847,17.29,4.71,-10.06,1
848,17.31,-13.76,7.0,1
849,17.32,-29.88,25.81,1
850,17.33,-16.21,-13.83,1
851,17.35,-27.01,-33.16,1
852,17.36,-20.97,-23.19,1
853,17.37,-6.97,-12.35,1
854,17.39,-14.48,-2.06,1
855,17.4,-6.94,9.56,1
856,17.41,-11.82,15.42,1
857,17.43,-1.0,-5.93,1
858,17.44,-10.3,-27.76,1
859,17.45,-1.29,0.84,1
860,17.47,-10.17,-3.94,1
861,17.48,1.42,10.01,1
862,17.49,-9.73,-12.97,1
863,17.51,-1.13,8.23,1
864,17.52,-5.55,9.22,1
865,17.53,-9.73,-4.94,1
866,17.55,-3.55,-11.72,1
867,17.56,7.81,0.87,1
868,17.57,4.11,-14.01,1
869,17.59,2.33,0.9,1
870,17.6,-5.24,-3.21,1
871,17.61,0.83,0.49,1
872,17.63,-2.96,-13.86,1
873,17.64,-4.98,-8.26,1
874,17.65,7.73,-7.16,1
875,17.67,17.25,-12.16,1
876,17.68,2.3,-14.07,1
877,17.69,15.14,-2.17,1
878,17.7,10.07,0.62,1
879,17.72,3.21,-3.29,1
880,17.73,10.58,2.06,1
881,17.75,4.27,11.57,1
882,17.76,13.42,12.96,1
883,17.77,9.53,12.78,1
884,17.79,15.01,10.23,1
885,17.8,-3.27,-1.64,1
886,17.81,-12.13,21.98,1
887,17.83,15.8,15.66,1
888,17.84,3.66,24.2,1
889,17.85,11.83,27.73,1
890,17.87,8.78,19.44,1
891,17.88,14.47,-2.09,1
892,17.89,10.67,-1.55,1
893,17.91,-2.81,11.39,1
894,17.92,-12.85,5.03,1
895,17.93,7.55,3.23,1
896,17.95,0.5,-10.56,1
897,17.96,-5.67,-3.44,1
898,17.97,-2.64,10.42,1
899,17.99,-12.66,14.15,1
900,18.0,-0.69,-4.26,1
901,18.01,0.44,7.63,1
902,18.03,0.37,5.75,1
903,18.04,-16.01,4.53,1
904,18.05,20.7,-10.54,1
905,18.07,-7.59,-14.17,1
906,18.08,13.34,4.6,1
907,18.09,4.81,1.62,1
908,18.11,9.11,-6.81,1
909,18.12,15.83,0.96,1
910,18.13,20.08,0.74,1
911,18.15,8.74,-10.93,1
912,18.16,18.54,-7.71,0
913,18.17,-11.09,-9.06,0
914,18.19,-1.64,-7.64,0
915,18.2,5.98,-9.87,0
916,18.21,-3.08,-8.33,0
917,18.23,4.5,-6.38,0
918,18.24,25.93,-9.53,0
919,18.25,-57.93,4.42,0
920,18.27,-86.37,16.51,0
921,18.28,-133.03,31.46,0
922,18.29,-146.77,16.28,0
923,18.31,-144.43,1.02,0
924,18.32,-127.93,-14.18,0
925,18.33,-92.73,-22.72,0
926,18.34,-56.16,-36.2,0
927,18.36,-37.63,-51.72,0
928,18.37,14.54,-35.5,0
929,18.39,67.41,-27.02,0
930,18.4,129.23,-29.97,0
931,18.41,197.16,-6.46,0
932,18.43,188.45,-2.98,0
933,18.44,176.82,6.74,0
934,18.45,157.17,-0.32,0
935,18.47,151.72,15.77,0
936,18.48,126.67,17.1,0
937,18.49,115.78,21.97,0
938,18.51,90.13,13.62,0
939,18.52,76.87,14.33,0
940,18.53,35.89,20.01,0
941,18.55,28.47,26.03,1
942,18.56,17.14,9.21,1
943,18.57,23.95,16.13,1
944,18.59,-16.87,24.54,1
945,18.6,-9.52,14.31,1
946,18.61,-33.16,8.41,1
947,18.63,-52.32,26.21,1
948,18.64,-46.29,34.11,1
949,18.65,-71.17,13.81,1
950,18.67,-61.32,26.54,1
951,18.68,-55.83,-1.3,1
952,18.69,-60.31,-8.02,1
953,18.71,-66.52,-17.16,1
954,18.72,-73.16,-9.98,1
955,18.73,-80.68,-18.79,1
956,18.75,-49.65,-18.53,1
957,18.76,-61.44,-17.43,1
958,18.77,-47.1,-7.67,1
959,18.79,-62.76,-3.42,1
960,18.8,-59.02,-15.19,1
961,18.81,-50.85,-14.22,1
962,18.83,-59.72,-8.62,1
963,18.84,-49.26,-12.45,1
964,18.85,-46.19,-5.27,1
965,18.87,-34.08,-15.94,1
966,18.88,-30.74,0.65,1
967,18.89,-18.59,1.7,1
968,18.91,-19.5,-0.44,1
969,18.92,-10.02,-6.22,1
970,18.93,-17.76,0.29,1
971,18.95,-14.22,-4.8,1
972,18.96,-6.46,-5.87,1
973,18.97,5.91,-18.1,1
974,18.98,4.15,-7.49,1
975,19.0,11.4,5.63,1
976,19.01,11.91,-3.4,1
977,19.025,11.39,3.48,1
978,19.04,13.7,9.12,1
979,19.05,11.52,12.33,1
980,19.07,11.58,-1.36,1
981,19.08,28.49,-3.19,1
982,19.09,22.18,3.49,1
983,19.11,37.79,4.85,1
984,19.12,20.8,-11.07,1
985,19.13,24.16,-1.25,1
986,19.15,17.09,7.86,1
987,19.16,22.23,3.79,1
988,19.17,24.61,-0.17,1
989,19.19,17.51,9.25,1
990,19.2,24.54,2.96,1
991,19.21,22.64,4.14,1
992,19.23,15.26,-9.57,1
993,19.24,20.77,5.46,1
994,19.25,23.34,4.8,1
995,19.27,15.26,6.38,1
996,19.28,18.06,2.87,1
997,19.29,24.23,8.82,1
998,19.31,32.24,10.22,1
999,19.32,13.33,-3.19,1
1000,19.33,20.42,-2.4,1
1001,19.35,15.03,13.45,1
1002,19.36,7.78,4.78,1
1003,19.37,3.68,-3.87,1
1004,19.39,15.76,11.2,1
1005,19.4,15.03,10.08,1
1006,19.41,2.76,13.72,1
1007,19.43,-1.88,6.62,1
1008,19.44,-4.72,2.71,1
1009,19.45,-5.02,-9.5,1
1010,19.47,-6.7,5.39,1
1011,19.48,33.84,-0.49,1
1012,19.49,8.9,-9.33,1
1013,19.51,-11.37,8.49,1
1014,19.52,-26.55,4.86,1
1015,19.53,7.41,-8.02,1
1016,19.55,-3.27,-3.28,1
1017,19.56,-10.01,-4.86,1
1018,19.57,-18.7,-1.53,1
1019,19.59,-6.23,3.11,1
1020,19.6,-11.23,-15.77,1
1021,19.61,0.56,-27.45,1
1022,19.62,20.32,-11.41,1
1023,19.64,-2.3,-2.83,1
1024,19.65,9.27,4.99,1
1025,19.67,-11.63,-1.69,1
1026,19.68,-16.18,3.26,1
1027,19.69,-10.66,-12.74,1
1028,19.71,-10.32,-4.42,1
1029,19.72,-5.53,-5.74,1
1030,19.73,4.08,1.64,1
1031,19.75,-2.99,5.81,1
1032,19.76,-17.64,9.5,1
1033,19.77,-10.29,-2.57,1
1034,19.79,-2.81,-13.66,1
1035,19.8,9.48,2.4,1
1036,19.81,-6.73,4.25,1
1037,19.83,-12.02,-8.51,1
1038,19.84,-0.71,4.59,1
1039,19.85,-12.12,2.73,1
1040,19.87,-2.76,7.04,1
1041,19.88,5.12,4.13,1
1042,19.89,-4.0,-11.97,1
1043,19.91,-20.34,0.51,1
1044,19.92,-13.78,12.68,1
1045,19.93,-16.38,3.59,1
1046,19.95,1.97,-4.17,1
1047,19.96,-16.77,1.09,1
1048,19.97,-0.65,-9.04,1
1049,19.99,-7.71,1.68,1
1050,20.0,2.73,-8.1,1
1051,20.01,-3.46,3.71,1
1052,20.03,2.48,6.56,1
1053,20.04,-5.84,12.21,1
1054,20.05,4.54,-4.63,1
1055,20.07,-9.27,-4.13,1
1056,20.08,7.86,-5.19,1
1057,20.09,-0.4,-16.48,1
1058,20.11,24.29,1.75,1
1059,20.12,18.96,13.27,1
1060,20.13,-12.3,7.8,1
1061,20.15,1.16,-8.21,1
1062,20.16,-5.83,-13.62,0
1063,20.17,4.47,22.33,0
1064,20.19,14.64,1.66,0
1065,20.2,14.45,3.6,0
1066,20.21,11.29,3.55,0
1067,20.23,15.21,19.2,0
1068,20.24,-63.15,1.32,0
1069,20.25,-97.79,18.01,0
1070,20.26,-138.55,-20.26,0
1071,20.28,-144.85,-40.13,0
1072,20.29,-106.48,-7.1,0
1073,20.3,-71.24,-32.18,0
1074,20.32,-29.21,-2.35,0
1075,20.33,0.97,-21.24,0
1076,20.35,36.92,4.13,0
1077,20.36,93.21,53.55,0
1078,20.37,92.89,-27.48,0
1079,20.39,97.89,17.3,0
1080,20.4,119.16,-4.55,0
1081,20.41,122.11,29.48,0
1082,20.43,129.04,3.86,0
1083,20.44,122.73,16.22,0
1084,20.45,111.28,23.4,0
1085,20.47,114.92,34.36,0
1086,20.48,88.2,21.08,0
1087,20.49,66.21,-11.49,0
1088,20.51,65.61,-11.47,0
1089,20.52,44.46,-7.8,0
1090,20.53,34.56,6.85,0
1091,20.55,18.81,3.03,1
1092,20.56,-1.37,9.13,1
1093,20.57,-5.49,-7.02,1
1094,20.59,-21.48,-40.87,1
1095,20.6,-14.18,-31.01,1
1096,20.61,-5.53,-18.76,1
1097,20.63,-27.47,-1.4,1
1098,20.64,-56.47,9.42,1
1099,20.65,-63.08,-19.98,1
1100,20.67,-62.17,7.74,1
1101,20.68,-63.5,-4.6,1
1102,20.69,-58.18,-15.24,1
1103,20.71,-58.1,24.54,1
1104,20.72,-57.8,8.22,1
1105,20.73,-60.13,-2.34,1
1106,20.75,-64.44,29.84,1
1107,20.76,-61.78,18.04,1
1108,20.77,-66.98,5.03,1
1109,20.79,-54.91,15.52,1
1110,20.8,-56.21,3.88,1
1111,20.81,-41.19,-8.3,1
1112,20.83,-28.09,-15.28,1
1113,20.84,-36.79,0.63,1
1114,20.85,-40.52,12.25,1
1115,20.87,-19.48,8.73,1
1116,20.88,-29.48,-8.03,1
1117,20.89,-4.22,9.28,1
1118,20.9,-34.84,-0.05,1
1119,20.92,-17.8,-21.55,1
1120,20.93,-28.77,-12.6,1
1121,20.94,-4.68,12.35,1
1122,20.96,-8.97,-0.92,1
1123,20.97,17.83,-23.81,1
1124,20.99,9.0,-6.03,1
1125,21.0,3.38,-23.01,1
1126,21.01,27.97,12.04,1
1127,21.03,5.09,11.01,1
1128,21.04,12.02,-12.34,1
1129,21.05,18.44,-9.49,1
1130,21.07,12.43,-1.88,1
1131,21.08,4.66,-1.63,1
1132,21.09,20.54,1.54,1
1133,21.11,24.11,8.71,1
1134,21.12,21.97,2.3,1
1135,21.13,-4.49,-3.74,1
1136,21.15,22.94,1.76,1
1137,21.16,42.76,-7.35,1
1138,21.17,19.18,-7.43,1
1139,21.19,32.74,2.89,1
1140,21.2,21.51,-3.97,1
1141,21.21,7.7,-15.67,1
1142,21.23,29.01,0.54,1
1143,21.24,23.31,-0.68,1
1144,21.25,14.73,-12.31,1
1145,21.27,20.63,15.57,1
1146,21.28,14.62,-0.24,1
1147,21.29,18.86,-15.27,1
1148,21.31,14.15,-10.6,1
1149,21.32,15.4,-7.63,1
1150,21.33,19.9,-13.52,1
1151,21.35,7.26,-3.46,1
1152,21.36,26.07,-6.96,1
1153,21.37,18.81,1.72,1
1154,21.39,8.71,11.57,1
1155,21.4,-3.42,9.43,1
1156,21.41,17.01,14.65,1
1157,21.43,-3.73,18.92,1
1158,21.44,15.43,13.44,1
1159,21.45,27.43,-8.16,1
1160,21.47,11.0,20.39,1
1161,21.48,-3.12,2.09,1
1162,21.49,-0.16,16.17,1
1163,21.51,-2.64,17.45,1
1164,21.52,2.96,0.75,1
1165,21.53,-18.57,17.99,1
1166,21.54,-0.53,-6.28,1
1167,21.56,0.44,18.05,1
1168,21.57,-10.47,10.65,1
1169,21.58,-25.03,-3.09,1
1170,21.6,-13.91,3.67,1
1171,21.61,-13.65,-19.61,1
1172,21.62,-16.02,-6.77,1
1173,21.64,-4.68,-9.19,1
1174,21.65,0.55,0.95,1
1175,21.67,-9.86,21.3,1
1176,21.68,-14.96,7.03,1
1177,21.69,-13.32,-6.08,1
1178,21.71,-7.17,-3.61,1
1179,21.72,-19.86,-19.53,1
1180,21.73,-10.36,-22.83,1
1181,21.75,0.49,7.93,1
1182,21.76,-7.71,13.35,1
1183,21.77,-24.09,12.32,1
1184,21.79,6.09,14.3,1
1185,21.8,6.53,11.55,1
1186,21.81,5.53,11.2,1
1187,21.83,-9.94,3.96,1
1188,21.84,1.83,-9.41,1
1189,21.85,-5.02,-18.13,1
1190,21.87,-7.79,-23.67,1
1191,21.88,5.74,-21.85,1
1192,21.89,0.41,-22.49,1
1193,21.91,-4.22,0.61,1
1194,21.92,-5.2,3.45,1
1195,21.93,-3.01,0.26,1
1196,21.95,8.11,-1.37,1
1197,21.96,2.08,-9.4,1
1198,21.97,3.96,-4.06,1
1199,21.99,0.23,-7.79,1
1200,22.0,17.74,-12.35,1
1201,22.01,8.24,-8.26,1
1202,22.03,-2.77,3.75,1
1203,22.04,-27.7,7.48,1
1204,22.05,-19.01,10.75,1
1205,22.07,4.49,5.53,1
1206,22.08,-4.47,-0.75,1
1207,22.09,4.86,-5.42,1
1208,22.11,7.35,14.34,1
1209,22.12,6.53,0.2,1
1210,22.13,6.22,2.96,1
1211,22.15,14.59,14.91,1
1212,22.16,7.57,-13.16,2
1213,22.17,0.64,2.66,2
1214,22.18,7.57,2.14,2
1215,22.2,-8.99,2.39,2
1216,22.21,-1.3,-9.06,2
1217,22.22,-7.56,8.3,2
1218,22.24,11.65,-11.88,2
1219,22.25,13.47,-11.08,2
1220,22.26,9.18,1.0,2
1221,22.28,1.88,-0.82,2
1222,22.29,-4.05,25.86,2
1223,22.31,-4.27,11.16,2
1224,22.32,-4.0,-7.74,2
1225,22.33,53.87,5.52,2
1226,22.35,88.79,2.45,2
1227,22.36,117.83,9.15,2
1228,22.37,114.79,10.99,2
1229,22.39,119.3,3.95,2
1230,22.4,103.25,2.72,2
1231,22.41,94.37,-9.25,2
1232,22.43,72.07,6.47,2
1233,22.44,17.48,3.1,2
1234,22.45,-49.68,2.09,2
1235,22.47,-81.71,-6.75,2
1236,22.48,-156.55,-5.39,2
1237,22.49,-199.82,-5.35,2
1238,22.51,-212.45,-19.57,2
1239,22.52,-204.04,-9.84,2
1240,22.53,-186.53,-8.17,2
1241,22.55,-166.76,-3.54,1
1242,22.56,-148.18,-3.95,1
1243,22.57,-126.09,-12.2,1
1244,22.59,-87.34,-6.65,1
1245,22.6,-59.28,11.35,1
1246,22.61,-36.48,3.63,1
1247,22.63,-30.44,21.97,1
1248,22.64,-2.5,9.5,1
1249,22.65,2.78,12.94,1
1250,22.67,24.42,3.42,1
1251,22.68,63.51,19.04,1
1252,22.69,63.33,15.61,1
1253,22.71,60.84,-1.79,1
1254,22.72,66.32,-2.05,1
1255,22.73,61.18,3.63,1
1256,22.75,70.09,-7.75,1
1257,22.76,72.27,-3.54,1
1258,22.77,65.65,-10.43,1
1259,22.79,60.95,-10.55,1
1260,22.8,68.82,-15.59,1
1261,22.81,72.44,-25.65,1
1262,22.82,78.41,-12.2,1
1263,22.84,65.06,5.43,1
1264,22.85,70.24,8.99,1
1265,22.86,72.53,-0.27,1
1266,22.88,47.63,-5.9,1
1267,22.89,48.27,-13.07,1
1268,22.9,45.48,2.41,1
1269,22.92,42.56,5.61,1
1270,22.93,39.66,-1.5,1
1271,22.95,37.67,12.45,1
1272,22.96,30.45,5.08,1
1273,22.97,26.75,-1.4,1
1274,22.99,23.61,13.81,1
1275,23.0,5.7,1.97,1
1276,23.01,12.26,-5.94,1
1277,23.03,20.9,6.61,1
1278,23.04,3.18,1.7,1
1279,23.05,9.66,4.79,1
1280,23.07,4.21,-2.08,1
1281,23.08,-12.86,11.43,1
1282,23.09,-3.07,11.84,1
1283,23.11,-5.11,-0.9,1
1284,23.12,-20.81,14.15,1
1285,23.13,-15.79,-9.42,1
1286,23.15,-6.09,-8.77,1
1287,23.16,-18.55,-9.58,1
1288,23.17,-19.02,-10.2,1
1289,23.19,-29.91,0.02,1
1290,23.2,-42.72,-9.88,1
1291,23.21,-33.8,-3.67,1
1292,23.23,-43.63,-5.29,1
1293,23.24,-23.02,-1.28,1
1294,23.25,-18.76,-7.82,1
1295,23.27,-29.12,-4.6,1
1296,23.28,-29.75,9.62,1
1297,23.29,-28.56,-6.75,1
1298,23.31,-31.56,2.02,1
1299,23.32,-19.21,-0.79,1
1300,23.33,-18.39,14.25,1
1301,23.35,-22.7,15.94,1
1302,23.36,-23.33,16.72,1
1303,23.37,-20.05,-5.94,1
1304,23.39,-9.23,4.9,1
1305,23.4,-18.55,-6.92,1
1306,23.41,-14.43,1.46,1
1307,23.43,-16.81,8.12,1
1308,23.44,-16.2,3.91,1
1309,23.45,-21.11,-12.54,1
1310,23.46,-20.41,-4.96,1
1311,23.48,-3.5,4.69,1
1312,23.49,-18.75,1.08,1
1313,23.5,-16.24,-8.02,1
1314,23.52,-20.82,-12.71,1
1315,23.53,-4.43,-4.54,1
1316,23.54,-8.84,-4.37,1
1317,23.56,-7.62,21.38,1
1318,23.57,-1.3,-0.43,1
1319,23.59,1.57,-10.12,1
1320,23.6,14.16,-2.64,1
1321,23.61,14.03,-5.1,1
1322,23.63,17.11,-15.34,1
1323,23.64,4.63,6.3,1
1324,23.65,13.25,1.4,1
1325,23.67,13.99,8.75,1
1326,23.68,11.92,8.75,1
1327,23.69,2.64,7.42,1
1328,23.71,2.24,6.71,1
1329,23.72,17.46,3.5,1
1330,23.73,15.84,5.27,1
1331,23.75,8.51,-2.06,1
1332,23.76,-5.31,-12.82,1
1333,23.77,7.2,2.19,1
1334,23.79,8.38,-15.21,1
1335,23.8,4.6,-4.34,1
1336,23.81,14.24,-1.0,1
1337,23.83,10.68,-8.14,1
1338,23.84,11.29,-0.97,1
1339,23.85,9.67,7.1,1
1340,23.87,6.66,-0.79,1
1341,23.88,25.71,-6.99,1
1342,23.89,12.17,-14.94,1
1343,23.91,16.06,-9.02,1
1344,23.92,-6.7,9.37,1
1345,23.93,1.7,13.27,1
1346,23.95,-5.05,16.83,1
1347,23.96,-7.88,-4.84,1
1348,23.97,7.46,-0.81,1
1349,23.99,5.02,20.49,1
1350,24.0,-6.7,-9.21,1
1351,24.01,13.43,4.12,1
1352,24.03,-1.94,12.19,1
1353,24.04,-16.96,4.43,1
1354,24.05,-6.19,-1.42,1
1355,24.07,2.58,-3.32,1
1356,24.08,-13.29,-10.28,1
1357,24.09,9.45,-9.3,1
1358,24.1,7.66,-4.67,1
1359,24.12,18.78,26.65,1
1360,24.13,4.29,14.35,1
1361,24.14,2.36,-11.75,1
1362,24.16,5.83,-11.72,1
1363,24.17,0.9,14.96,1
1364,24.18,6.02,25.04,1
1365,24.2,12.95,69.54,1
1366,24.21,35.27,104.85,1
1367,24.22,48.62,155.93,1
1368,24.24,171.37,381.48,1
1369,24.25,230.9,201.95,1
1370,24.27,-133.74,51.93,1
1371,24.28,46.54,56.08,1
1372,24.29,-7.97,145.5,1
1373,24.31,-320.72,51.74,1
1374,24.32,-46.08,26.62,1
1375,24.33,77.59,-27.47,1
1376,24.35,208.33,-59.49,1
1377,24.36,183.14,-91.82,1
1378,24.37,175.46,-130.93,1
1379,24.39,107.93,-336.65,1
1380,24.4,86.82,-499.47,1
1381,24.41,19.43,-291.15,1
1382,24.43,-120.66,-447.36,1
1383,24.44,-273.71,142.56,1
1384,24.45,-239.79,-293.58,1
1385,24.47,-177.51,-312.85,1
1386,24.48,-234.13,-372.05,1
1387,24.49,-5.09,-76.89,1
1388,24.51,-61.04,-281.29,1
1389,24.52,-104.23,-528.07,1
1390,24.53,-242.08,-31.94,1
1391,24.55,-248.0,187.74,1
1392,24.56,-474.45,-320.8,1
1393,24.57,106.07,-165.43,1
1394,24.59,-187.96,25.96,1
1395,24.6,-64.07,366.94,1
1396,24.61,-90.93,503.48,1
1397,24.63,21.87,641.12,1
1398,24.64,162.54,300.1,1
1399,24.65,60.27,375.22,1
1400,24.67,43.21,336.15,1
1401,24.68,295.04,-111.25,1
1402,24.69,0.71,162.11,1
1403,24.71,86.27,399.11,1
1404,24.72,244.91,234.49,1
1405,24.73,67.32,200.35,1
1406,24.75,10.3,145.82,1
1407,24.76,145.64,-340.32,1
1408,24.77,94.86,47.3,1
1409,24.78,169.71,-82.66,1
1410,24.8,48.44,-40.09,1
1411,24.81,181.7,312.3,1
1412,24.82,-97.89,-35.3,1
1413,24.84,-174.07,174.45,1
1414,24.85,268.66,-548.07,1
1415,24.86,19.87,143.81,1
1416,24.88,110.37,409.05,1
1417,24.89,178.13,60.62,1
1418,24.91,99.57,-335.46,1
1419,24.92,88.44,-266.77,1
1420,24.93,100.36,-146.59,1
1421,24.95,-84.99,-13.57,1
1422,24.96,-68.75,178.2,1
1423,24.97,186.67,210.42,1
1424,24.99,-360.86,-247.8,1
1425,25.0,-269.8,5.17,1
1426,25.01,-149.26,-337.43,1
1427,25.03,-265.04,-254.54,1
1428,25.04,77.54,25.82,1
1429,25.05,-38.31,71.58,1
1430,25.07,-17.22,128.04,1
1431,25.08,17.95,-28.17,1
1432,25.09,24.15,37.89,1
1433,25.11,4.75,-9.52,1
1434,25.12,-65.34,-76.15,1
1435,25.13,-60.33,88.93,1
1436,25.15,-91.49,139.56,1
1437,25.16,-71.92,272.17,1
1438,25.17,4.95,254.35,1
1439,25.19,47.52,46.38,1
1440,25.2,111.69,-27.67,1
1441,25.21,156.31,-133.17,1
1442,25.23,168.57,-233.53,1
1443,25.24,181.32,-241.95,1
1444,25.25,171.48,-131.15,1
1445,25.27,204.98,-94.53,1
1446,25.28,153.6,-37.96,1
1447,25.29,136.69,11.91,1
1448,25.31,123.47,-16.61,1
1449,25.32,97.84,25.22,1
1450,25.33,73.59,-4.34,1
1451,25.35,37.51,-0.61,1
1452,25.36,28.2,13.17,1
1453,25.37,12.09,26.25,1
1454,25.38,5.84,20.04,1
1455,25.4,-24.93,44.7,1
1456,25.41,-33.32,56.19,1
1457,25.42,-49.81,61.51,1
1458,25.44,-49.41,52.55,1
1459,25.45,-74.74,44.91,1
1460,25.46,-76.33,49.04,1
1461,25.48,-90.59,45.35,1
1462,25.49,-98.36,24.32,1
1463,25.5,-100.77,15.9,1
1464,25.52,-113.99,-13.82,1
1465,25.53,-115.29,-0.99,1
1466,25.55,-114.91,-17.67,1
1467,25.56,-104.42,-35.84,1
1468,25.57,-115.89,-41.23,1
1469,25.59,-90.84,-46.82,1
1470,25.6,-100.8,-57.0,1
1471,25.61,-91.66,-74.1,1
1472,25.63,-85.8,-64.09,1
1473,25.64,-80.18,-57.18,1
1474,25.65,-81.18,-43.59,1
1475,25.67,-66.8,-22.64,1
1476,25.68,-71.9,-51.58,1
1477,25.69,-59.73,-67.19,1
1478,25.71,-33.31,-55.54,1
1479,25.72,-39.11,-31.75,1
1480,25.73,-41.34,-8.14,1
1481,25.75,-22.2,-26.78,1
1482,25.76,-25.03,-28.55,1
1483,25.77,-11.51,-21.61,1
1484,25.79,-7.2,7.59,1
1485,25.8,3.51,13.37,1
1486,25.81,13.56,-0.67,1
1487,25.83,14.79,-1.93,1
1488,25.84,7.34,15.74,1
1489,25.85,28.35,4.65,1
1490,25.87,33.5,3.21,1
1491,25.88,15.86,4.9,1
1492,25.89,39.41,5.67,1
1493,25.91,36.81,15.11,1
1494,25.92,52.25,25.04,1
1495,25.93,43.69,19.53,1
1496,25.95,44.73,12.28,1
1497,25.96,49.49,28.77,1
1498,25.97,52.63,27.28,1
1499,25.99,54.44,31.66,1
1500,26.0,40.74,38.87,1
1501,26.01,43.01,25.24,1
1502,26.02,32.12,21.97,1
1503,26.04,35.11,30.02,1
1504,26.05,40.01,27.74,1
1505,26.06,31.03,40.71,1
1506,26.08,48.46,5.81,1
1507,26.09,45.96,11.38,1
1508,26.1,28.73,13.73,1
1509,26.12,41.68,26.56,1
1510,26.13,35.1,21.76,1
1511,26.14,32.85,24.86,1
1512,26.16,30.46,-9.16,2
1513,26.17,21.67,5.37,2
1514,26.19,25.01,8.55,2
1515,26.2,25.0,4.89,2
1516,26.21,10.0,4.13,2
1517,26.23,13.89,13.09,2
1518,26.24,15.41,5.23,2
1519,26.25,23.21,-37.47,2
1520,26.27,29.52,-25.55,2
1521,26.28,2.04,-5.26,2
1522,26.29,0.02,-0.05,2
1523,26.31,-16.43,-9.23,2
1524,26.32,54.48,13.88,2
1525,26.33,107.28,18.3,2
1526,26.35,144.83,23.69,2
1527,26.36,131.91,-7.0,2
1528,26.37,77.68,-10.82,2
1529,26.39,41.16,24.76,2
1530,26.4,5.17,8.91,2
1531,26.41,-31.3,2.14,2
1532,26.43,-64.4,-0.6,2
1533,26.44,-96.31,15.71,2
1534,26.45,-133.64,16.43,2
1535,26.47,-125.9,23.36,2
1536,26.48,-132.21,18.91,2
1537,26.49,-116.93,-8.56,2
1538,26.51,-120.63,0.88,2
1539,26.52,-133.46,0.7,2
1540,26.53,-100.65,-4.91,2
1541,26.55,-107.87,4.57,1
1542,26.56,-80.72,13.02,1
1543,26.57,-69.6,7.82,1
1544,26.59,-61.67,0.95,1
1545,26.6,-44.44,-8.55,1
1546,26.61,-44.96,-19.21,1
1547,26.63,-38.93,-10.02,1
1548,26.64,-9.25,-10.35,1
1549,26.65,-4.94,-21.47,1
1550,26.67,12.45,-19.87,1
1551,26.68,8.8,-6.39,1
1552,26.69,23.92,-13.9,1
1553,26.7,35.98,-13.51,1
1554,26.72,37.95,-11.62,1
1555,26.73,42.92,-21.59,1
1556,26.75,41.69,-28.44,1
1557,26.76,58.74,-17.56,1
1558,26.77,36.19,-24.61,1
1559,26.78,47.24,-20.71,1
1560,26.8,47.18,-26.99,1
1561,26.81,52.79,-18.83,1
1562,26.825,47.38,-14.81,1
1563,26.84,53.45,-14.57,1
1564,26.85,51.5,-4.31,1
1565,26.87,49.89,12.82,1
1566,26.88,44.76,-3.45,1
1567,26.89,47.29,8.25,1
1568,26.91,40.64,2.42,1
1569,26.92,41.07,-11.72,1
1570,26.93,24.77,-10.38,1
1571,26.95,21.2,-4.91,1
1572,26.96,32.08,-11.53,1
1573,26.97,21.32,-6.46,1
1574,26.99,21.08,-9.94,1
1575,27.0,9.27,-10.04,1
1576,27.01,21.15,2.64,1
1577,27.03,8.19,1.4,1
1578,27.04,13.18,-0.72,1
1579,27.05,6.66,5.46,1
1580,27.07,0.1,-3.12,1
1581,27.08,22.37,10.42,1
1582,27.09,-15.92,11.73,1
1583,27.11,0.97,5.74,1
1584,27.12,4.85,13.56,1
1585,27.13,-3.43,3.4,1
1586,27.15,-19.17,12.27,1
1587,27.16,-35.73,10.83,1
1588,27.17,-23.03,9.18,1
1589,27.19,-27.16,15.24,1
1590,27.2,-18.72,4.35,1
1591,27.21,-28.02,16.33,1
1592,27.23,-18.1,10.97,1
1593,27.24,-19.51,10.97,1
1594,27.25,-40.17,21.77,1
1595,27.27,-23.59,13.36,1
1596,27.28,-31.01,10.47,1
1597,27.29,-14.91,8.87,1
1598,27.3,-4.56,15.69,1
1599,27.32,-5.43,10.75,1
1600,27.33,1.96,9.88,1
1601,27.34,-17.89,6.4,1
1602,27.36,-22.24,2.77,1
1603,27.37,-15.93,-8.47,1
1604,27.38,-18.88,0.56,1
1605,27.4,-13.83,-2.36,1
1606,27.41,-21.14,8.08,1
1607,27.42,-8.62,11.8,1
1608,27.44,-4.14,2.36,1
1609,27.45,-3.72,20.88,1
1610,27.46,2.71,22.45,1
1611,27.48,-3.76,-8.15,1
1612,27.49,-21.31,-12.12,1
1613,27.51,4.22,0.18,1
1614,27.52,-14.5,4.34,1
1615,27.53,4.52,4.14,1
1616,27.55,-2.75,-3.12,1
1617,27.56,-12.68,-9.41,1
1618,27.57,-11.39,-25.76,1
1619,27.59,9.28,-5.75,1
1620,27.6,-1.23,-19.71,1
1621,27.61,-2.43,-6.54,1
1622,27.63,8.24,-8.9,1
1623,27.64,9.24,-11.43,1
1624,27.65,10.22,4.8,1
1625,27.67,-2.38,11.18,1
1626,27.68,6.8,-4.78,1
1627,27.69,-3.27,-9.45,1
1628,27.71,10.47,-21.43,1
1629,27.72,6.43,11.87,1
1630,27.73,9.17,-4.89,1
1631,27.75,8.89,-13.07,1
1632,27.76,10.91,-1.25,1
1633,27.77,7.13,1.52,1
1634,27.79,6.72,-9.9,1
1635,27.8,-2.67,2.62,1
1636,27.81,2.68,-10.5,1
1637,27.83,1.04,1.75,1
1638,27.84,7.59,1.33,1
1639,27.85,2.5,18.21,1
1640,27.87,6.32,-13.08,1
1641,27.88,12.19,5.18,1
1642,27.89,7.6,-4.57,1
1643,27.91,15.15,-16.07,1
1644,27.92,5.49,-6.99,1
1645,27.93,15.37,5.47,1
1646,27.94,-0.66,-4.32,1
1647,27.96,7.11,0.2,1
1648,27.97,3.81,-0.34,1
1649,27.98,4.48,-5.96,1
1650,28.0,4.0,-7.0,1
1651,28.01,-7.22,4.99,1
1652,28.02,0.18,23.87,1
1653,28.04,-0.29,5.73,1
1654,28.05,-33.23,16.59,1
1655,28.06,-19.69,4.23,1
1656,28.08,-6.2,7.3,1
1657,28.09,-8.4,-0.65,1
1658,28.1,19.82,-2.46,1
1659,28.12,19.38,-16.76,1
1660,28.13,5.26,4.23,1
1661,28.15,14.29,0.22,1
1662,28.16,-15.76,-5.75,0
1663,28.17,10.06,-3.05,0
1664,28.19,7.19,-2.11,0
1665,28.2,-7.38,7.19,0
1666,28.21,2.72,-28.17,0
1667,28.23,-39.03,41.29,0
1668,28.24,-64.61,23.08,0
1669,28.25,-84.07,26.12,0
1670,28.27,-130.05,14.41,0
1671,28.28,-138.32,27.66,0
1672,28.29,-137.53,-13.1,0
1673,28.31,-105.86,-19.16,0
1674,28.32,-84.06,-49.04,0
1675,28.33,-54.71,-63.9,0
1676,28.35,-10.43,-49.58,0
1677,28.36,52.21,-38.18,0
1678,28.37,138.72,-14.53,0
1679,28.39,185.42,0.05,0
1680,28.4,208.61,-0.14,0
1681,28.41,206.07,-11.42,0
1682,28.43,197.24,0.05,0
1683,28.44,170.77,4.08,0
1684,28.45,172.77,28.38,0
1685,28.47,122.93,24.81,0
1686,28.48,113.66,28.02,0
1687,28.49,77.22,19.47,0
1688,28.51,50.67,27.84,0
1689,28.52,31.47,7.15,0
1690,28.53,7.08,8.42,0
1691,28.55,4.89,15.03,1
1692,28.56,-13.4,11.99,1
1693,28.57,-27.03,6.81,1
1694,28.58,-45.8,15.27,1
1695,28.6,-57.94,-1.75,1
1696,28.61,-60.66,-8.99,1
1697,28.62,-61.98,-8.2,1
1698,28.64,-64.01,-5.09,1
1699,28.65,-68.73,19.52,1
1700,28.67,-80.3,6.36,1
1701,28.68,-76.36,23.73,1
1702,28.69,-77.33,26.23,1
1703,28.7,-76.37,-0.49,1
1704,28.72,-74.17,-5.33,1
1705,28.73,-64.79,9.66,1
1706,28.75,-65.11,-6.34,1
1707,28.76,-69.98,-2.29,1
1708,28.77,-48.63,-7.2,1
1709,28.79,-49.64,-3.22,1
1710,28.8,-55.62,-8.6,1
1711,28.81,-43.6,-11.57,1
1712,28.83,-48.62,-0.39,1
1713,28.84,-40.42,1.86,1
1714,28.85,-42.02,-4.6,1
1715,28.87,-21.0,-1.9,1
1716,28.88,-26.28,-12.36,1
1717,28.89,-24.79,8.76,1
1718,28.91,-12.16,3.63,1
1719,28.92,-21.51,-10.86,1
1720,28.93,-1.06,7.63,1
1721,28.95,4.48,1.18,1
1722,28.96,5.43,-10.65,1
1723,28.97,-0.09,-28.6,1
1724,28.99,14.5,-13.2,1
1725,29.0,13.31,5.69,1
1726,29.01,16.16,-6.38,1
1727,29.03,22.56,5.46,1
1728,29.04,35.18,-8.03,1
1729,29.05,28.13,-15.28,1
1730,29.07,32.23,-15.07,1
1731,29.08,28.92,-17.02,1
1732,29.09,18.21,-1.74,1
1733,29.11,30.47,3.04,1
1734,29.12,24.66,-0.1,1
1735,29.13,13.19,-5.3,1
1736,29.15,16.92,11.39,1
1737,29.16,31.38,6.41,1
1738,29.17,26.32,5.46,1
1739,29.19,25.63,1.13,1
1740,29.2,37.89,14.06,1
1741,29.21,29.86,2.28,1
1742,29.22,29.86,-10.12,1
1743,29.24,28.15,-7.35,1
1744,29.25,1.32,4.2,1
1745,29.26,19.45,-17.12,1
1746,29.28,25.47,-1.94,1
1747,29.29,17.76,-0.36,1
1748,29.3,14.85,10.22,1
1749,29.32,10.78,11.92,1
1750,29.33,20.31,8.35,1
1751,29.34,6.61,10.35,1
1752,29.36,0.16,10.97,1
1753,29.37,6.99,0.62,1
1754,29.38,15.06,5.95,1
1755,29.4,3.59,-9.55,1
1756,29.41,-4.93,-6.78,1
1757,29.425,1.2,-14.18,1
1758,29.44,0.38,3.75,1
1759,29.45,9.49,-1.81,1
1760,29.47,-6.1,-8.07,1
1761,29.48,9.08,-5.15,1
1762,29.49,-15.3,11.65,1
1763,29.51,-9.16,1.2,1
1764,29.52,3.94,14.33,1
1765,29.53,0.88,5.16,1
1766,29.55,-1.67,11.11,1
1767,29.56,7.48,13.65,1
1768,29.57,-1.86,-1.73,1
1769,29.59,2.18,-14.75,1
1770,29.6,-11.08,5.21,1
1771,29.61,-11.91,3.67,1
1772,29.63,-8.81,-0.37,1
1773,29.64,-12.07,7.64,1
1774,29.65,-16.96,3.91,1
1775,29.67,-9.79,-12.95,1
1776,29.68,-4.56,-5.55,1
1777,29.69,-19.03,5.58,1
1778,29.71,-19.11,10.63,1
1779,29.72,-2.72,4.38,1
1780,29.73,-12.4,14.65,1
1781,29.75,1.88,3.7,1
1782,29.76,-0.59,1.44,1
1783,29.77,-6.05,-5.99,1
1784,29.79,-13.3,-0.2,1
1785,29.8,5.52,8.69,1
1786,29.81,-12.35,-1.11,1
1787,29.83,-13.19,-22.2,1
1788,29.84,2.61,-11.79,1
1789,29.85,-3.38,2.71,1
1790,29.86,-9.18,10.42,1
1791,29.88,-1.21,-11.82,1
1792,29.89,-19.5,6.15,1
1793,29.9,13.04,-3.96,1
1794,29.92,2.2,-6.76,1
1795,29.93,-3.71,-21.55,1
1796,29.94,-10.12,-5.23,1
1797,29.96,-6.06,3.84,1
1798,29.97,-3.05,-15.11,1
1799,29.98,-11.17,-23.01,1
1800,30.0,-0.05,-8.81,1
1801,30.01,5.37,-6.64,1
1802,30.02,19.43,5.25,1
1803,30.04,-3.55,-2.07,1
1804,30.05,-15.94,-4.82,1
1805,30.06,-0.23,3.6,1
1806,30.08,-18.11,2.6,1
1807,30.09,-6.89,5.9,1
1808,30.11,3.8,10.99,1
1809,30.12,18.34,4.68,1
1810,30.13,7.14,6.09,1
1811,30.15,7.35,-5.3,1
1812,30.16,8.9,16.44,0
1813,30.17,27.12,-9.5,0
1814,30.19,18.98,19.83,0
1815,30.2,-0.48,3.34,0
1816,30.21,9.71,9.89,0
1817,30.23,-13.57,24.27,0
1818,30.24,-62.09,15.52,0
1819,30.25,-104.68,8.78,0
1820,30.27,-155.23,18.84,0
1821,30.28,-126.77,-42.8,0
1822,30.29,-94.9,-2.41,0
1823,30.31,-81.14,-24.27,0
1824,30.32,-34.52,-9.09,0
1825,30.33,7.2,-25.86,0
1826,30.35,42.86,-9.32,0
1827,30.36,74.3,12.16,0
1828,30.37,121.69,17.37,0
1829,30.39,123.92,19.05,0
1830,30.4,131.68,-11.4,0
1831,30.41,135.88,-4.28,0
1832,30.43,131.24,14.44,0
1833,30.44,133.79,7.19,0
1834,30.45,114.4,-27.44,0
1835,30.47,96.6,6.05,0
1836,30.48,98.12,-8.87,0
1837,30.49,48.62,4.93,0
1838,30.5,54.51,11.29,0
1839,30.52,32.93,5.25,0
1840,30.53,27.99,-3.54,0
1841,30.54,22.3,-0.62,0
1842,30.56,8.41,24.53,1
1843,30.57,-12.48,1.88,1
1844,30.58,-24.15,-2.59,1
1845,30.6,-29.95,-11.47,1
1846,30.61,-36.15,-0.88,1
1847,30.62,-28.24,-9.7,1
1848,30.64,-44.5,28.2,1
1849,30.65,-46.71,13.36,1
1850,30.67,-71.56,19.79,1
1851,30.68,-75.13,2.64,1
1852,30.69,-82.99,-4.34,1
1853,30.7,-72.4,1.39,1
1854,30.72,-56.59,-2.24,1
1855,30.73,-36.62,-6.29,1
1856,30.75,-39.85,-9.93,1
1857,30.76,-45.97,-18.66,1
1858,30.77,-32.71,-11.91,1
1859,30.79,-56.92,1.49,1
1860,30.8,-40.74,17.86,1
1861,30.81,-61.96,-5.2,1
1862,30.83,-67.12,0.41,1
1863,30.84,-53.77,0.24,1
1864,30.85,-40.82,2.39,1
1865,30.87,-25.94,-3.12,1
1866,30.88,-26.22,-14.4,1
1867,30.89,-17.76,-3.76,1
1868,30.91,-7.3,-30.44,1
1869,30.92,-15.73,3.7,1
1870,30.93,-11.31,-10.9,1
1871,30.95,-9.69,-7.8,1
1872,30.96,1.26,-37.94,1
1873,30.97,11.08,-15.35,1
1874,30.99,-1.24,-8.43,1
1875,31.0,1.54,-13.47,1
1876,31.01,12.54,16.65,1
1877,31.03,7.68,32.97,1
1878,31.04,11.36,9.55,1
1879,31.05,16.54,-1.8,1
1880,31.07,17.12,6.1,1
1881,31.08,17.4,18.1,1
1882,31.09,19.75,21.54,1
1883,31.11,25.41,7.17,1
1884,31.12,32.58,19.73,1
1885,31.13,15.06,8.78,1
1886,31.14,11.3,32.74,1
1887,31.16,18.67,3.97,1
1888,31.17,23.68,-12.92,1
1889,31.18,20.64,8.02,1
1890,31.2,41.34,6.84,1
1891,31.21,20.21,2.57,1
1892,31.22,32.05,4.87,1
1893,31.24,29.33,-4.95,1
1894,31.25,20.31,-7.75,1
1895,31.26,24.22,-18.93,1
1896,31.28,5.95,-24.93,1
1897,31.29,17.44,-9.13,1
1898,31.3,11.42,4.21,1
1899,31.32,20.96,-0.91,1
1900,31.33,20.62,9.41,1
1901,31.34,25.3,11.64,1
1902,31.36,4.55,-11.59,1
1903,31.37,4.29,-23.21,1
1904,31.39,10.99,-0.17,1
1905,31.4,17.5,-12.94,1
1906,31.41,1.98,-5.71,1
1907,31.43,6.51,-8.66,1
1908,31.44,-2.04,-2.79,1
1909,31.45,2.53,-29.17,1
1910,31.47,-5.68,-10.68,1
1911,31.48,7.48,11.58,1
1912,31.49,-7.94,5.18,1
1913,31.51,0.97,-3.59,1
1914,31.52,16.04,-1.67,1
1915,31.53,-5.74,18.16,1
1916,31.55,4.01,17.9,1
1917,31.56,-3.36,3.01,1
1918,31.57,-9.32,-7.0,1
1919,31.59,-7.71,-9.33,1
1920,31.6,-20.68,8.48,1
1921,31.61,-4.75,5.14,1
1922,31.63,-14.82,0.99,1
1923,31.64,-5.68,-3.32,1
1924,31.65,-19.83,-2.59,1
1925,31.67,-3.73,6.24,1
1926,31.68,-15.87,1.67,1
1927,31.69,-4.34,13.82,1
1928,31.71,-0.51,6.41,1
1929,31.72,-18.37,11.79,1
1930,31.73,-9.38,3.45,1
1931,31.75,-11.58,-4.68,1
1932,31.76,-10.02,24.29,1
1933,31.77,-5.28,15.25,1
1934,31.78,1.75,0.66,1
1935,31.8,-24.22,-2.26,1
1936,31.81,10.09,12.01,1
1937,31.82,-5.18,-13.51,1
1938,31.84,-8.49,9.04,1
1939,31.85,-5.23,0.61,1
1940,31.86,9.64,-17.96,1
1941,31.88,8.43,-19.99,1
1942,31.89,-20.84,-11.42,1
1943,31.9,2.73,-4.06,1
1944,31.92,7.93,-1.77,1
1945,31.93,1.62,-14.82,1
1946,31.94,-12.89,-0.84,1
1947,31.96,-7.66,0.21,1
1948,31.97,5.97,3.82,1
1949,31.98,-4.96,-1.63,1
1950,32.0,-1.77,-0.38,1
1951,32.01,7.26,21.64,1
1952,32.03,8.43,-1.88,1
1953,32.04,-4.08,4.89,1
1954,32.05,-12.17,17.55,1
1955,32.07,-9.27,-12.16,1
1956,32.08,-8.43,-31.12,1
1957,32.09,-8.61,-18.63,1
1958,32.11,7.09,34.74,1
1959,32.12,13.37,6.22,1
1960,32.13,6.78,6.64,1
1961,32.15,24.46,-14.36,1
1962,32.16,9.99,3.57,2
1963,32.17,-1.7,4.58,2
1964,32.19,11.74,-12.4,2
1965,32.2,-4.76,-9.53,2
1966,32.21,4.14,-8.81,2
1967,32.23,-22.28,-15.15,2
1968,32.24,69.04,7.71,2
1969,32.25,115.48,-6.93,2
1970,32.27,159.97,25.12,2
1971,32.28,156.49,5.09,2
1972,32.29,128.11,10.68,2
1973,32.31,120.6,12.32,2
1974,32.32,94.89,12.46,2
1975,32.33,49.5,9.53,2
1976,32.35,13.86,7.0,2
1977,32.36,-37.64,-10.05,2
1978,32.37,-104.95,-0.49,2
1979,32.39,-188.31,-5.69,2
1980,32.4,-220.21,12.37,2
1981,32.41,-223.71,-6.34,2
1982,32.43,-215.68,-7.12,2
1983,32.44,-203.72,6.0,2
1984,32.45,-179.13,-5.27,2
1985,32.47,-153.22,-2.13,2
1986,32.48,-117.02,-8.81,2
1987,32.49,-99.71,-22.61,2
1988,32.51,-68.15,-9.02,2
1989,32.52,-43.6,-16.61,2
1990,32.53,-17.13,-7.47,2
1991,32.54,-4.96,-10.12,2
1992,32.56,1.78,7.5,1
1993,32.57,78.73,-16.45,1
1994,32.59,53.45,5.46,1
1995,32.6,59.8,7.64,1
1996,32.61,53.03,-12.72,1
1997,32.63,58.84,5.26,1
1998,32.64,54.03,5.0,1
1999,32.65,52.43,2.96,1
2000,32.67,67.55,12.87,1
2001,32.68,69.68,-9.03,1
2002,32.69,78.68,21.67,1
2003,32.71,83.38,29.7,1
2004,32.72,78.99,23.58,1
2005,32.73,61.66,13.94,1
2006,32.75,57.81,2.71,1
2007,32.76,54.57,15.32,1
2008,32.77,30.21,-6.23,1
2009,32.79,54.32,13.81,1
2010,32.8,46.84,4.84,1
2011,32.81,40.63,-4.05,1
2012,32.83,49.43,32.73,1
2013,32.84,84.1,39.9,1
2014,32.85,-4.0,1.93,1
2015,32.87,-0.86,-20.47,1
2016,32.88,12.07,-37.99,1
2017,32.89,56.82,-42.79,1
2018,32.91,100.87,-28.43,1
2019,32.92,81.67,-78.89,1
2020,32.93,61.75,-48.85,1
2021,32.95,-71.95,-86.03,1
2022,32.96,77.62,-6.06,1
2023,32.97,44.76,13.73,1
2024,32.99,-115.94,44.97,1
2025,33.0,15.58,-20.05,1
2026,33.01,-90.56,46.91,1
2027,33.03,53.17,17.91,1
2028,33.04,56.47,74.43,1
2029,33.05,57.77,24.72,1
2030,33.06,-142.8,-51.4,1
2031,33.08,310.44,14.06,1
2032,33.09,-112.8,-18.94,1
2033,33.11,22.64,-20.64,1
2034,33.12,-98.24,70.71,1
2035,33.13,-8.36,-36.65,1
2036,33.15,-451.02,15.65,1
2037,33.16,-203.63,51.01,1
2038,33.17,-124.03,-68.82,1
2039,33.19,-151.3,-28.47,1
2040,33.2,97.89,-97.94,1
2041,33.21,-318.09,37.69,1
2042,33.22,101.35,111.22,1
2043,33.24,-323.2,16.5,1
2044,33.25,-57.81,5.58,1
2045,33.27,-45.57,46.78,1
2046,33.28,46.15,31.01,1
2047,33.29,-62.49,92.23,1
2048,33.31,437.88,73.28,1
2049,33.32,406.54,-36.84,1
2050,33.33,17.39,58.39,1
2051,33.35,-122.01,-57.11,1
2052,33.36,165.2,24.79,1
2053,33.37,199.98,173.07,1
2054,33.39,2.01,99.97,1
2055,33.4,120.5,-189.83,1
2056,33.41,-144.03,-226.3,1
2057,33.43,451.5,-8.51,1
2058,33.44,-157.78,-163.24,1
2059,33.45,-96.58,-149.36,1
2060,33.47,61.88,-190.58,1
2061,33.48,344.76,-122.14,1
2062,33.49,-222.67,-74.13,1
2063,33.51,-143.3,-18.31,1
2064,33.52,-184.36,19.91,1
2065,33.53,327.17,81.08,1
2066,33.55,-313.46,204.99,1
2067,33.56,-141.04,100.42,1
2068,33.57,295.44,68.61,1
2069,33.59,103.68,118.07,1
2070,33.6,-275.96,158.5,1
2071,33.61,-36.29,160.08,1
2072,33.63,-202.52,7.77,1
2073,33.64,-43.08,105.6,1
2074,33.65,-194.97,36.84,1
2075,33.67,94.6,1.09,1
2076,33.68,314.44,-23.2,1
2077,33.69,45.08,-101.44,1
2078,33.71,-244.21,-68.35,1
2079,33.72,-106.49,-22.27,1
2080,33.73,-90.61,-42.45,1
2081,33.75,29.29,4.52,1
2082,33.76,-42.95,-18.89,1
2083,33.77,11.78,-7.09,1
2084,33.79,-40.18,-25.4,1
2085,33.8,-7.09,2.95,1
2086,33.81,-12.97,-12.14,1
2087,33.83,9.32,-11.28,1
2088,33.84,8.29,-24.99,1
2089,33.85,-1.23,-15.26,1
2090,33.87,-8.81,-15.0,1
2091,33.88,17.74,-4.26,1
2092,33.89,10.86,-9.55,1
2093,33.9,1.6,-20.13,1
2094,33.92,-6.78,-28.0,1
2095,33.93,11.81,-42.43,1
2096,33.95,32.71,-25.74,1
2097,33.96,28.74,-12.53,1
2098,33.97,51.83,-11.29,1
2099,33.99,29.74,-5.46,1
2100,34.0,15.09,-6.13,1
2101,34.01,13.48,15.04,1
2102,34.03,9.79,-15.67,1
2103,34.04,13.68,0.79,1
2104,34.05,-12.17,-4.57,1
2105,34.07,1.13,15.79,1
2106,34.08,4.03,-13.14,1
2107,34.09,3.18,-1.24,1
2108,34.11,6.38,-1.59,1
2109,34.12,24.46,0.57,1
2110,34.13,0.96,3.71,1
2111,34.15,32.28,16.09,1
2112,34.16,-3.79,-7.22,1
2113,34.17,4.37,23.33,1
2114,34.19,32.17,128.79,1
2115,34.2,-11.87,179.35,1
2116,34.21,12.78,99.3,1
2117,34.23,-14.8,108.96,1
2118,34.24,-53.96,213.49,1
2119,34.25,-25.39,70.3,1
2120,34.27,13.66,-200.51,1
2121,34.28,25.21,214.45,1
2122,34.29,139.78,143.66,1
2123,34.31,-4.16,126.24,1
2124,34.32,267.36,62.57,1
2125,34.33,36.31,23.97,1
2126,34.35,186.75,-18.31,1
2127,34.36,149.09,-49.84,1
2128,34.37,184.43,-78.95,1
2129,34.38,120.52,-101.14,1
2130,34.4,86.05,-119.76,1
2131,34.41,13.84,-132.54,1
2132,34.43,-145.08,-141.57,1
2133,34.44,-10.96,-200.64,1
2134,34.45,-167.52,-415.95,1
2135,34.47,-218.21,-501.09,1
2136,34.48,-227.7,-56.73,1
2137,34.49,-127.85,-186.7,1
2138,34.51,-53.37,-453.69,1
2139,34.52,-296.62,-361.18,1
2140,34.53,-272.59,-106.82,1
2141,34.54,-125.2,137.45,1
2142,34.56,-283.86,133.64,1
2143,34.57,-263.71,-137.67,1
2144,34.59,1.42,-110.83,1
2145,34.6,-410.48,-17.82,1
2146,34.61,-161.78,206.13,1
2147,34.63,-139.16,214.96,1
2148,34.64,-209.69,233.97,1
2149,34.65,-73.01,-177.74,1
2150,34.67,18.03,-224.16,1
2151,34.68,408.82,-316.55,1
2152,34.69,151.42,-107.56,1
2153,34.71,55.1,116.89,1
2154,34.72,297.64,187.4,1
2155,34.73,198.94,243.75,1
2156,34.75,79.34,96.65,1
2157,34.76,262.11,811.91,1
2158,34.77,171.1,310.65,1
2159,34.79,90.49,91.45,1
2160,34.8,164.34,76.05,1
2161,34.81,192.22,-152.87,1
2162,34.83,137.86,405.13,1
2163,34.84,279.09,69.91,1
2164,34.85,-9.91,-14.23,1
2165,34.87,-54.59,459.2,1
2166,34.88,294.04,212.29,1
2167,34.89,30.42,21.95,1
2168,34.91,-52.87,23.2,1
2169,34.92,-169.27,482.25,1
2170,34.93,-20.84,56.86,1
2171,34.95,-64.41,302.59,1
2172,34.96,107.28,-76.24,1
2173,34.97,40.35,-46.66,1
2174,34.99,54.79,-163.49,1
2175,35.0,-65.28,-143.54,1
2176,35.01,-91.59,-63.44,1
2177,35.03,-141.28,1.25,1
2178,35.04,-145.09,88.0,1
2179,35.05,-199.54,198.18,1
2180,35.06,-165.51,-7.71,1
2181,35.08,-116.71,-79.3,1
2182,35.09,-7.58,-224.25,1
2183,35.11,73.59,-244.93,1
2184,35.12,122.51,-298.62,1
2185,35.13,145.24,-404.33,1
2186,35.15,150.58,-348.22,1
2187,35.16,157.67,-236.75,1
2188,35.17,159.42,-100.5,1
2189,35.19,124.89,-73.67,1
2190,35.2,149.91,36.12,1
2191,35.21,116.45,48.69,1
2192,35.22,95.85,112.88,1
2193,35.24,78.19,137.36,1
2194,35.25,57.54,169.7,1
2195,35.27,30.72,124.74,1
2196,35.28,0.21,93.27,1
2197,35.29,-23.13,95.38,1
2198,35.31,-15.14,72.22,1
2199,35.32,-75.2,80.64,1
2200,35.33,-76.15,90.48,1
2201,35.35,-66.96,43.23,1
2202,35.36,-75.13,-7.98,1
2203,35.37,-72.59,-39.33,1
2204,35.39,-89.93,-32.56,1
2205,35.4,-83.29,-34.7,1
2206,35.41,-64.82,6.09,1
2207,35.43,-122.83,-46.8,1
2208,35.44,-78.39,-47.83,1
2209,35.45,-112.57,-71.55,1
2210,35.47,-87.22,-86.73,1
2211,35.48,-76.18,-114.45,1
2212,35.49,-81.52,-78.16,1
2213,35.51,-88.73,-99.49,1
2214,35.52,-81.42,-100.42,1
2215,35.53,-82.53,-83.54,1
2216,35.55,-69.65,-82.87,1
2217,35.56,-71.53,-58.53,1
2218,35.57,-48.9,-61.75,1
2219,35.59,-62.86,-60.07,1
2220,35.6,-62.03,-43.42,1
2221,35.61,-38.63,-22.27,1
2222,35.63,-36.5,-37.86,1
2223,35.64,-21.39,-21.17,1
2224,35.65,-22.43,-31.74,1
2225,35.67,-8.26,-24.33,1
2226,35.68,-14.64,-40.57,1
2227,35.69,-3.15,-36.59,1
2228,35.71,-7.68,-28.14,1
2229,35.72,-8.46,-23.77,1
2230,35.73,14.17,-6.82,1
2231,35.75,21.3,8.51,1
2232,35.76,21.38,0.15,1
2233,35.77,20.93,29.56,1
2234,35.79,28.8,5.83,1
2235,35.8,25.99,19.94,1
2236,35.81,37.31,23.26,1
2237,35.83,39.06,41.56,1
2238,35.84,35.49,37.8,1
2239,35.85,38.48,35.53,1
2240,35.87,39.44,28.09,1
2241,35.88,37.1,49.27,1
2242,35.89,44.41,62.31,1
2243,35.9,35.25,29.36,1
2244,35.92,43.51,34.43,1
2245,35.93,46.29,42.81,1
2246,35.95,58.86,44.09,1
2247,35.96,40.13,44.54,1
2248,35.97,45.62,19.77,1
2249,35.99,29.99,46.16,1
2250,36.0,24.81,32.51,1
2251,36.01,24.04,48.05,1
2252,36.03,34.94,29.69,1
2253,36.04,25.28,39.35,1
2254,36.05,16.87,23.62,1
2255,36.07,49.04,31.87,1
2256,36.08,51.22,31.19,1
2257,36.09,39.71,28.11,1
2258,36.11,21.2,8.29,1
2259,36.12,15.83,31.0,1
2260,36.13,17.84,23.67,1
2261,36.15,4.65,24.29,1
2262,36.16,14.83,36.41,2
2263,36.17,39.98,11.36,2
2264,36.19,13.6,-23.75,2
2265,36.2,13.17,-8.48,2
2266,36.21,10.76,-6.98,2
2267,36.23,-17.21,-47.32,2
2268,36.24,-10.89,-22.72,2
2269,36.25,6.34,-40.13,2
2270,36.27,87.13,9.5,2
2271,36.28,130.79,-24.37,2
2272,36.29,131.27,-3.55,2
2273,36.31,117.54,18.58,2
2274,36.32,54.23,19.59,2
2275,36.33,6.54,37.38,2
2276,36.35,-27.98,17.26,2
2277,36.36,-51.55,4.95,2
2278,36.37,-94.91,34.9,2
2279,36.38,-127.4,32.21,2
2280,36.4,-132.71,48.32,2
2281,36.41,-126.29,8.97,2
2282,36.43,-135.82,18.46,2
2283,36.44,-126.58,4.72,2
2284,36.45,-115.26,10.15,2
2285,36.47,-133.02,9.46,2
2286,36.48,-114.37,1.25,2
2287,36.49,-84.24,12.46,2
2288,36.51,-61.5,15.47,2
2289,36.52,-53.65,0.14,2
2290,36.53,-61.34,-30.27,2
2291,36.54,-47.22,-4.49,2
2292,36.56,-35.23,-32.31,1
2293,36.57,-29.61,-32.93,1
2294,36.59,-19.47,-52.08,1
2295,36.6,-2.38,-58.71,1
2296,36.61,7.92,-41.43,1
2297,36.63,5.39,-49.16,1
2298,36.64,25.77,-43.46,1
2299,36.65,36.38,-55.63,1
2300,36.67,41.31,-49.14,1
2301,36.68,53.57,-34.24,1
2302,36.69,63.54,-32.7,1
2303,36.71,45.94,-34.26,1
2304,36.72,49.09,-37.47,1
2305,36.73,60.2,-6.46,1
2306,36.75,59.39,-11.43,1
2307,36.76,61.54,-18.47,1
2308,36.77,60.82,-16.13,1
2309,36.79,48.57,-3.08,1
2310,36.8,61.49,7.08,1
2311,36.81,46.07,2.2,1
2312,36.83,42.96,-4.35,1
2313,36.84,48.34,5.9,1
2314,36.85,47.46,1.43,1
2315,36.87,38.99,4.4,1
2316,36.88,32.62,10.53,1
2317,36.89,23.3,23.82,1
2318,36.9,28.93,2.74,1
2319,36.92,23.68,5.16,1
2320,36.93,33.29,23.96,1
2321,36.95,15.83,1.23,1
2322,36.96,15.34,7.32,1
2323,36.97,22.69,17.96,1
2324,36.99,7.75,8.38,1
2325,37.0,-17.15,4.4,1
2326,37.01,-3.31,-10.22,1
2327,37.03,14.95,21.65,1
2328,37.04,0.42,17.34,1
2329,37.05,-15.21,11.24,1
2330,37.06,-2.34,18.08,1
2331,37.08,-11.72,15.11,1
2332,37.09,-34.78,21.33,1
2333,37.11,-28.54,28.43,1
2334,37.12,-0.69,25.15,1
2335,37.13,9.28,5.67,1
2336,37.15,-19.01,2.71,1
2337,37.16,-43.5,13.87,1
2338,37.17,-28.06,35.51,1
2339,37.19,-23.68,18.31,1
2340,37.2,-21.16,-3.13,1
2341,37.21,-17.92,1.5,1
2342,37.22,-10.04,7.39,1
2343,37.24,-34.42,17.94,1
2344,37.25,-13.32,26.77,1
2345,37.27,-11.82,15.02,1
2346,37.28,-46.92,4.98,1
2347,37.29,-29.79,-14.59,1
2348,37.31,-20.57,-1.37,1
2349,37.32,-10.57,4.16,1
2350,37.33,1.92,-11.77,1
2351,37.35,-25.1,-6.67,1
2352,37.36,-21.29,15.49,1
2353,37.37,-38.1,22.78,1
2354,37.39,-1.86,-12.36,1
2355,37.4,-1.22,-12.28,1
2356,37.41,-4.85,-26.27,1
2357,37.43,-14.69,-32.96,1
2358,37.44,-25.34,-21.71,1
2359,37.45,-7.37,-5.69,1
2360,37.47,-13.11,-35.97,1
2361,37.48,10.99,-41.46,1
2362,37.49,-13.23,-22.25,1
2363,37.51,16.12,-12.36,1
2364,37.52,13.89,-0.78,1
2365,37.53,12.02,-10.85,1
2366,37.54,6.61,-22.7,1
2367,37.56,16.53,-15.63,1
2368,37.57,2.08,17.08,1
2369,37.59,9.7,14.98,1
2370,37.6,4.83,11.5,1
2371,37.61,-1.8,-20.4,1
2372,37.63,4.86,10.7,1
2373,37.64,13.54,-13.91,1
2374,37.65,3.12,-2.02,1
2375,37.67,13.59,-6.9,1
2376,37.68,17.24,-3.2,1
2377,37.69,8.3,-9.48,1
2378,37.71,-25.82,4.72,1
2379,37.72,-21.77,14.88,1
2380,37.73,11.71,1.38,1
2381,37.75,20.55,-4.08,1
2382,37.76,14.66,-5.08,1
2383,37.77,13.59,8.39,1
2384,37.79,20.65,31.19,1
2385,37.8,2.63,21.09,1
2386,37.81,-0.71,35.45,1
2387,37.83,1.3,-8.49,1
2388,37.84,21.71,25.51,1
2389,37.85,26.6,22.95,1
2390,37.87,20.34,12.91,1
2391,37.88,-15.81,-18.55,1
2392,37.89,-1.81,-5.52,1
2393,37.91,-11.2,9.79,1
2394,37.92,-7.08,2.83,1
2395,37.93,0.1,5.97,1
2396,37.95,1.07,-10.64,1
2397,37.96,-5.13,5.7,1
2398,37.97,3.36,-5.25,1
2399,37.99,7.64,2.92,1
2400,38.0,-5.66,2.32,1
2401,38.01,-1.73,-13.0,1
2402,38.03,8.3,7.63,1
2403,38.04,-1.87,20.02,1
2404,38.05,8.87,4.18,1
2405,38.07,-15.3,-1.14,1
2406,38.08,-17.78,-5.31,1
2407,38.09,6.21,-7.67,1
2408,38.11,-1.0,-0.29,1
2409,38.12,-1.67,8.86,1
2410,38.13,-15.31,-14.27,1
2411,38.15,-21.19,1.26,1
2412,38.16,9.23,9.51,0
2413,38.17,5.93,5.95,0
2414,38.19,12.57,-6.7,0
2415,38.2,15.08,-6.24,0
2416,38.21,8.73,2.47,0
2417,38.22,-1.46,26.88,0
2418,38.24,15.3,3.75,0
2419,38.25,23.61,-3.43,0
2420,38.27,-48.61,-8.92,0
2421,38.28,-82.43,-0.84,0
2422,38.29,-102.93,-6.12,0
2423,38.31,-114.58,-13.34,0
2424,38.32,-150.1,-20.54,0
2425,38.33,-139.74,-38.52,0
2426,38.35,-111.57,-42.13,0
2427,38.36,-72.46,-36.93,0
2428,38.37,-27.52,-43.53,0
2429,38.38,20.4,-20.08,0
2430,38.4,65.55,-18.17,0
2431,38.41,137.34,4.32,0
2432,38.43,181.59,16.13,0
2433,38.44,177.28,11.9,0
2434,38.45,208.04,18.0,0
2435,38.47,184.11,14.49,0
2436,38.48,174.65,16.72,0
2437,38.49,138.56,22.03,0
2438,38.51,106.86,33.26,0
2439,38.52,92.96,18.38,0
2440,38.53,92.14,10.89,0
2441,38.55,49.24,22.32,0
2442,38.56,14.59,-0.13,1
2443,38.57,-23.31,-8.02,1
2444,38.59,-45.72,-10.03,1
2445,38.6,-37.94,9.21,1
2446,38.61,-26.97,21.06,1
2447,38.63,-39.4,23.35,1
2448,38.64,-27.1,-14.32,1
2449,38.65,-28.69,-8.99,1
2450,38.67,-45.42,19.75,1
2451,38.68,-58.96,4.56,1
2452,38.69,-48.13,-45.08,1
2453,38.71,-59.88,-45.55,1
2454,38.72,-43.86,-5.51,1
2455,38.73,-76.82,48.11,1
2456,38.75,-70.39,75.02,1
2457,38.76,-46.8,47.81,1
2458,38.77,-84.93,20.72,1
2459,38.79,-51.12,-91.14,1
2460,38.8,-75.96,82.12,1
2461,38.81,-54.55,76.12,1
2462,38.83,-54.97,23.35,1
2463,38.84,-39.75,-66.39,1
2464,38.85,-15.9,-42.64,1
2465,38.87,-47.7,-22.52,1
2466,38.88,-41.79,-27.9,1
2467,38.89,-32.74,-25.03,1
2468,38.9,-16.7,-36.12,1
2469,38.92,-33.97,22.9,1
2470,38.93,-16.6,15.01,1
2471,38.95,-16.01,-17.29,1
2472,38.96,-49.75,1.77,1
2473,38.97,-17.3,15.22,1
2474,38.99,-6.29,-14.26,1
2475,39.0,24.81,-25.18,1
2476,39.01,14.66,-41.7,1
2477,39.03,30.68,-62.15,1
2478,39.04,31.56,-2.64,1
2479,39.05,-12.15,-34.69,1
2480,39.06,41.29,4.2,1
2481,39.08,-15.61,-12.74,1
2482,39.09,41.85,38.2,1
2483,39.11,-1.13,-8.8,1
2484,39.12,-16.57,-18.45,1
2485,39.13,10.79,-14.79,1
2486,39.15,15.99,-3.47,1
2487,39.16,31.05,12.29,1
2488,39.17,58.81,24.26,1
2489,39.19,32.42,0.67,1
2490,39.2,27.16,4.41,1
2491,39.21,27.96,14.74,1
2492,39.23,6.89,24.6,1
2493,39.24,13.3,9.18,1
2494,39.25,26.82,18.51,1
2495,39.27,47.29,0.33,1
2496,39.28,47.89,16.07,1
2497,39.29,32.05,-3.73,1
2498,39.31,-8.45,25.19,1
2499,39.32,0.28,3.95,1
2500,39.33,11.71,1.84,1
2501,39.35,4.23,-17.67,1
2502,39.36,26.61,1.36,1
2503,39.37,30.29,-4.8,1
2504,39.39,24.2,6.65,1
2505,39.4,27.08,5.78,1
2506,39.41,10.29,2.1,1
2507,39.43,-16.9,1.4,1
2508,39.44,14.88,6.15,1
2509,39.45,-9.63,-3.29,1
2510,39.47,0.7,-2.26,1
2511,39.48,12.27,-3.94,1
2512,39.49,9.47,15.98,1
2513,39.51,2.2,-2.44,1
2514,39.52,-5.89,-2.08,1
2515,39.53,2.11,-0.93,1
2516,39.54,-1.08,3.64,1
2517,39.56,-2.05,5.08,1
2518,39.57,-2.96,5.05,1
2519,39.59,3.84,12.46,1
2520,39.6,-9.4,-2.98,1
2521,39.61,-28.16,2.32,1
2522,39.63,-30.82,-0.13,1
2523,39.64,3.52,15.66,1
2524,39.65,-17.6,-14.92,1
2525,39.67,-8.46,6.09,1
2526,39.68,-20.17,2.26,1
2527,39.69,-16.97,0.56,1
2528,39.71,-2.83,-2.69,1
2529,39.72,-9.68,-22.64,1
2530,39.73,-3.48,18.47,1
2531,39.75,0.61,-10.19,1
2532,39.76,-7.42,8.17,1
2533,39.77,4.73,3.67,1
2534,39.79,-4.01,-0.42,1
2535,39.8,12.98,-1.53,1
2536,39.81,-0.37,-10.98,1
2537,39.83,-1.79,0.1,1
2538,39.84,-13.75,-1.54,1
2539,39.85,-15.27,-8.74,1
2540,39.87,-12.47,9.4,1
2541,39.88,-3.43,7.09,1
2542,39.89,0.78,3.47,1
2543,39.91,-15.12,-12.66,1
2544,39.92,-8.87,-0.36,1
2545,39.93,-9.41,-15.81,1
2546,39.95,-21.81,-15.31,1
2547,39.96,-6.59,-19.2,1
2548,39.97,-8.48,-20.84,1
2549,39.99,4.95,1.69,1
2550,40.0,10.16,-3.19,1
2551,40.01,0.85,-3.07,1
2552,40.03,0.63,-10.12,1
2553,40.04,-6.79,1.38,1
2554,40.05,-10.3,7.92,1
2555,40.07,-2.63,9.14,1
2556,40.08,23.64,-6.67,1
2557,40.09,21.85,-12.64,1
2558,40.11,16.2,3.93,1
2559,40.12,-1.5,-3.23,1
2560,40.13,-15.82,-0.66,1
2561,40.15,3.85,-5.81,1
2562,40.16,5.8,7.98,0
2563,40.17,-0.12,4.58,0
2564,40.19,11.99,9.52,0
2565,40.2,6.2,2.33,0
2566,40.21,1.54,-9.85,0
2567,40.22,8.78,-3.7,0
2568,40.24,-6.49,25.97,0
2569,40.25,17.02,11.35,0
2570,40.27,-20.96,-0.52,0
2571,40.28,-65.7,11.29,0
2572,40.29,-119.22,-12.53,0
2573,40.31,-137.69,-29.84,0
2574,40.32,-121.36,-58.48,0
2575,40.33,-106.38,4.25,0
2576,40.35,-73.03,0.05,0
2577,40.36,-14.17,-33.72,0
2578,40.37,14.1,-24.79,0
2579,40.38,62.81,36.11,0
2580,40.4,83.06,-6.73,0
2581,40.41,100.55,27.01,0
2582,40.43,124.09,66.87,0
2583,40.44,119.68,67.58,0
2584,40.45,145.47,42.24,0
2585,40.47,131.43,55.89,0
2586,40.48,111.39,53.45,0
2587,40.49,115.32,11.34,0
2588,40.51,102.55,20.92,0
2589,40.52,93.41,36.8,0
2590,40.53,73.41,24.95,0
2591,40.55,60.68,-3.83,0
2592,40.56,39.03,-8.11,1
2593,40.57,-0.35,-12.34,1
2594,40.59,12.95,-5.94,1
2595,40.6,-6.2,-42.56,1
2596,40.61,-7.73,-23.67,1
2597,40.63,-28.66,-31.33,1
2598,40.64,-19.09,-25.94,1
2599,40.65,-33.36,-34.89,1
2600,40.67,-37.03,-39.25,1
2601,40.68,-45.73,-15.68,1
2602,40.69,-42.41,-13.15,1
2603,40.71,-35.95,9.23,1
2604,40.72,-48.77,-15.5,1
2605,40.73,-55.12,-14.14,1
2606,40.75,-68.03,5.66,1
2607,40.76,-79.76,-36.91,1
2608,40.77,-90.91,4.32,1
2609,40.79,-42.28,-18.58,1
2610,40.8,-68.75,11.02,1
2611,40.81,-47.56,-10.4,1
2612,40.83,-66.68,12.13,1
2613,40.84,-49.59,-4.43,1
2614,40.85,-36.31,-11.76,1
2615,40.87,-52.76,4.97,1
2616,40.88,-46.8,-14.2,1
2617,40.89,-51.84,22.15,1
2618,40.9,-28.14,-2.35,1
2619,40.92,-27.6,-6.72,1
2620,40.93,-20.69,-6.8,1
2621,40.95,-4.38,-2.84,1
2622,40.96,19.83,15.02,1
2623,40.97,-10.61,-26.6,1
2624,40.99,-10.63,0.22,1
2625,41.0,-25.21,17.92,1
2626,41.01,3.41,-16.71,1
2627,41.03,21.98,3.33,1
2628,41.04,1.83,3.22,1
2629,41.05,1.66,4.45,1
2630,41.06,12.55,23.36,1
2631,41.08,21.27,-15.08,1
2632,41.09,21.49,-8.34,1
2633,41.11,18.52,10.8,1
2634,41.12,18.27,-15.76,1
2635,41.13,21.54,7.86,1
2636,41.15,10.27,4.09,1
2637,41.16,7.82,-14.91,1
2638,41.17,18.39,8.15,1
2639,41.19,10.4,8.98,1
2640,41.2,23.04,8.13,1
2641,41.21,27.1,-27.23,1
2642,41.23,34.08,-39.74,1
2643,41.24,28.04,0.01,1
2644,41.25,26.6,4.06,1
2645,41.27,26.54,10.91,1
2646,41.28,18.1,-3.28,1
2647,41.29,13.73,5.68,1
2648,41.31,21.58,-1.57,1
2649,41.32,6.65,11.57,1
2650,41.33,19.23,40.56,1
2651,41.35,12.48,16.45,1
2652,41.36,20.41,26.71,1
2653,41.37,19.38,8.46,1
2654,41.38,29.44,9.24,1
2655,41.4,21.33,23.59,1
2656,41.41,9.19,25.44,1
2657,41.43,3.3,-15.26,1
2658,41.44,5.13,18.52,1
2659,41.45,-2.01,-1.3,1
2660,41.47,14.29,-5.82,1
2661,41.48,11.55,-4.36,1
2662,41.49,9.45,7.03,1
2663,41.51,1.41,3.74,1
2664,41.52,0.76,-3.94,1
2665,41.53,5.86,-28.72,1
2666,41.54,7.13,-5.27,1
2667,41.56,10.14,9.3,1
2668,41.57,-6.66,-4.24,1
2669,41.59,-0.03,-17.14,1
2670,41.6,-14.25,1.76,1
2671,41.61,-4.99,4.34,1
2672,41.63,-7.95,3.06,1
2673,41.64,-1.9,-6.01,1
2674,41.65,2.36,-3.23,1
2675,41.67,-5.12,16.77,1
2676,41.68,-15.6,-8.65,1
2677,41.69,-11.73,12.58,1
2678,41.71,0.59,3.85,1
2679,41.72,-13.48,-7.59,1
2680,41.73,-12.57,0.84,1
2681,41.75,-25.2,-1.41,1
2682,41.76,-31.23,-11.98,1
2683,41.77,-13.09,-13.18,1
2684,41.79,6.33,11.11,1
2685,41.8,-17.2,-0.31,1
2686,41.81,-3.38,-6.16,1
2687,41.83,0.25,-20.38,1
2688,41.84,-11.08,1.56,1
2689,41.85,13.74,-4.15,1
2690,41.87,-1.83,19.44,1
2691,41.88,-0.33,-2.98,1
2692,41.89,-11.16,-2.66,1
2693,41.91,-3.89,1.92,1
2694,41.92,-14.5,-6.78,1
2695,41.93,0.57,-7.36,1
2696,41.95,-13.37,-5.01,1
2697,41.96,-11.62,2.89,1
2698,41.97,5.72,-0.9,1
2699,41.99,4.77,-7.54,1
2700,42.0,2.08,13.57,1
2701,42.01,0.07,-11.16,1
2702,42.03,-5.66,4.29,1
2703,42.04,-13.48,-1.16,1
2704,42.05,-1.9,16.54,1
2705,42.06,-15.21,1.33,1
2706,42.08,-23.43,-9.42,1
2707,42.09,-18.8,-12.93,1
2708,42.11,9.6,-8.68,1
2709,42.12,1.38,16.48,1
2710,42.13,9.84,-20.38,1
2711,42.15,1.22,2.05,1
2712,42.16,-2.77,-2.99,2
2713,42.17,32.54,13.05,2
2714,42.19,-23.12,-11.95,2
2715,42.2,5.78,-9.36,2
2716,42.21,20.13,6.92,2
2717,42.22,-2.12,-8.42,2
2718,42.24,8.2,4.45,2
2719,42.25,22.15,15.76,2
2720,42.27,31.94,-14.32,2
2721,42.28,18.1,6.82,2
2722,42.29,73.17,2.27,2
2723,42.31,89.59,16.78,2
2724,42.32,124.88,3.15,2
2725,42.33,134.17,-0.2,2
2726,42.35,124.16,-5.36,2
2727,42.36,127.97,-13.75,2
2728,42.37,90.97,-11.98,2
2729,42.38,80.77,-20.07,2
2730,42.4,27.77,-12.9,2
2731,42.41,-18.27,-16.99,2
2732,42.43,-69.96,0.77,2
2733,42.44,-158.94,3.92,2
2734,42.45,-211.51,8.75,2
2735,42.47,-225.29,3.89,2
2736,42.48,-228.44,7.79,2
2737,42.49,-225.93,0.98,2
2738,42.51,-168.62,19.12,2
2739,42.52,-159.77,38.76,2
2740,42.53,-130.69,13.05,2
2741,42.55,-118.72,-5.48,2
2742,42.56,-64.33,17.88,1
2743,42.57,-54.68,21.24,1
2744,42.59,-22.77,5.84,1
2745,42.6,-28.6,2.9,1
2746,42.61,36.79,1.58,1
2747,42.63,31.84,0.91,1
2748,42.64,43.14,-6.83,1
2749,42.65,47.88,-4.01,1
2750,42.67,45.94,-2.23,1
2751,42.68,62.21,0.9,1
2752,42.69,51.84,0.41,1
2753,42.71,61.66,-6.6,1
2754,42.72,64.77,-14.42,1
2755,42.73,68.81,-7.61,1
2756,42.75,68.77,0.39,1
2757,42.76,58.1,-5.83,1
2758,42.77,64.98,17.89,1
2759,42.79,78.97,5.12,1
2760,42.8,75.13,1.76,1
2761,42.81,73.32,-3.96,1
2762,42.83,66.06,3.35,1
2763,42.84,44.65,-13.7,1
2764,42.85,60.34,-5.59,1
2765,42.87,51.45,15.87,1
2766,42.88,48.48,-0.9,1
2767,42.89,57.45,-13.62,1
2768,42.9,49.81,-12.3,1
2769,42.92,48.41,4.8,1
2770,42.93,36.91,-5.35,1
2771,42.95,31.08,-1.81,1
2772,42.96,22.79,-3.46,1
2773,42.97,24.58,-4.26,1
2774,42.99,23.4,-3.08,1
2775,43.0,6.36,15.13,1
2776,43.01,6.35,10.58,1
2777,43.03,-6.36,4.95,1
2778,43.04,-7.21,-2.8,1
2779,43.05,-0.73,-19.71,1
2780,43.06,-21.08,-15.46,1
2781,43.08,0.53,-5.99,1
2782,43.09,-4.56,4.24,1
2783,43.11,-10.44,-5.17,1
2784,43.12,-22.16,0.72,1
2785,43.13,-22.28,4.82,1
2786,43.15,-13.57,-2.79,1
2787,43.16,-23.82,-25.79,1
2788,43.17,-35.99,7.29,1
2789,43.19,-32.95,1.55,1
2790,43.2,-24.52,-10.22,1
2791,43.21,-29.38,4.67,1
2792,43.23,-46.48,7.54,1
2793,43.24,-32.17,7.11,1
2794,43.25,-31.36,-3.04,1
2795,43.27,-30.26,-0.67,1
2796,43.28,-36.85,19.13,1
2797,43.29,-40.06,5.72,1
2798,43.31,-28.61,3.65,1
2799,43.32,-34.49,1.69,1
2800,43.33,-36.4,5.37,1
2801,43.35,-20.46,0.17,1
2802,43.36,-14.55,-12.96,1
2803,43.37,-9.17,1.58,1
2804,43.38,-25.99,-3.08,1
2805,43.4,-19.51,-2.32,1
2806,43.41,-14.12,-5.64,1
2807,43.43,-15.63,0.16,1
2808,43.44,1.63,11.29,1
2809,43.45,-10.55,0.34,1
2810,43.47,-11.96,-7.85,1
2811,43.48,-2.32,-2.9,1
2812,43.49,-7.73,8.72,1
2813,43.51,-1.64,9.13,1
2814,43.52,14.03,3.17,1
2815,43.53,-9.11,1.72,1
2816,43.54,-4.51,-12.3,1
2817,43.56,-4.51,-7.21,1
2818,43.57,-1.68,5.69,1
2819,43.59,14.21,6.72,1
2820,43.6,7.62,-8.38,1
2821,43.61,9.83,-4.56,1
2822,43.63,-3.35,-6.65,1
2823,43.64,5.72,5.01,1
2824,43.65,19.46,-1.03,1
2825,43.67,18.9,-8.62,1
2826,43.68,14.26,-6.04,1
2827,43.69,14.15,1.08,1
2828,43.71,6.09,3.68,1
2829,43.72,0.53,8.04,1
2830,43.73,8.89,17.36,1
2831,43.75,19.6,4.27,1
2832,43.76,4.99,3.04,1
2833,43.77,19.21,-8.96,1
2834,43.79,6.66,-0.45,1
2835,43.8,6.78,2.9,1
2836,43.81,-2.58,-2.71,1
2837,43.83,3.21,-0.48,1
2838,43.84,5.59,2.8,1
2839,43.85,5.59,-1.84,1
2840,43.87,13.49,-4.11,1
2841,43.88,3.87,5.24,1
2842,43.89,8.25,2.95,1
2843,43.91,8.53,1.42,1
2844,43.92,9.3,-3.41,1
2845,43.93,-1.63,4.36,1
2846,43.95,8.03,-2.86,1
2847,43.96,-5.36,14.51,1
2848,43.97,7.84,-2.02,1
2849,43.99,2.63,4.47,1
2850,44.0,-3.1,-2.01,1
2851,44.01,8.88,-4.53,1
2852,44.03,4.86,-4.0,1
2853,44.04,-6.54,-3.92,1
2854,44.05,1.79,7.74,1
2855,44.06,-13.44,-0.61,1
2856,44.08,-10.0,-18.18,1
2857,44.09,12.27,-3.51,1
2858,44.11,-4.7,-4.72,1
2859,44.12,17.73,11.71,1
2860,44.13,7.8,3.6,1
2861,44.15,-4.84,11.37,1
2862,44.16,9.03,4.19,1
2863,44.17,4.43,-6.41,1
2864,44.19,-11.08,6.73,1
2865,44.2,-0.3,-1.7,1
2866,44.21,-22.71,-17.88,1
2867,44.22,5.83,30.63,1
2868,44.24,13.24,303.13,1
2869,44.25,35.62,143.8,1
2870,44.27,-11.69,-178.35,1
2871,44.28,4.45,186.91,1
2872,44.29,-107.63,83.31,1
2873,44.31,144.13,328.01,1
2874,44.32,-196.68,155.35,1
2875,44.33,-18.41,145.01,1
2876,44.35,193.87,63.91,1
2877,44.36,43.68,19.97,1
2878,44.37,289.38,-26.33,1
2879,44.385000000000005,253.94,-237.18,1
2880,44.4,207.48,-505.89,1
2881,44.41,163.88,-363.06,1
2882,44.43,110.27,-646.32,1
2883,44.44,52.28,-45.33,1
2884,44.45,-35.42,-101.97,1
2885,44.47,-8.04,-641.11,1
2886,44.48,-160.31,-210.05,1
2887,44.49,-127.48,-156.19,1
2888,44.51,-316.98,72.01,1
2889,44.52,-384.59,83.05,1
2890,44.53,-421.49,-203.37,1
2891,44.55,-213.91,115.68,1
2892,44.56,-218.89,-107.13,1
2893,44.57,-164.35,202.13,1
2894,44.59,-271.26,37.68,1
2895,44.6,-31.43,-68.48,1
2896,44.61,62.36,422.18,1
2897,44.63,-248.05,392.52,1
2898,44.64,113.92,99.21,1
2899,44.65,-52.37,-152.39,1
2900,44.67,-29.63,520.65,1
2901,44.68,50.43,285.44,1
2902,44.69,46.14,58.71,1
2903,44.71,37.03,63.55,1
2904,44.72,-38.05,289.49,1
2905,44.73,-134.39,442.79,1
2906,44.75,95.93,-59.41,1
2907,44.76,234.24,-497.63,1
2908,44.77,250.15,45.29,1
2909,44.79,247.4,425.46,1
2910,44.8,359.14,139.97,1
2911,44.81,-153.91,312.26,1
2912,44.83,-81.37,-178.04,1
2913,44.84,22.11,-445.86,1
2914,44.85,146.33,-183.88,1
2915,44.87,247.49,-194.03,1
2916,44.88,213.88,-380.02,1
2917,44.89,52.07,64.9,1
2918,44.9,125.43,548.25,1
2919,44.92,166.79,240.78,1
2920,44.93,30.39,213.56,1
2921,44.95,-4.27,-162.78,1
2922,44.96,-89.98,-481.15,1
2923,44.97,45.03,-44.19,1
2924,44.99,200.56,-246.41,1
2925,45.0,27.86,-105.46,1
2926,45.01,22.09,-121.45,1
2927,45.03,-16.1,-21.13,1
2928,45.04,-20.6,192.51,1
2929,45.05,-125.34,118.87,1
2930,45.07,-233.26,-85.29,1
2931,45.08,-4.48,479.98,1
2932,45.09,-158.46,-13.71,1
2933,45.11,-104.45,-115.77,1
2934,45.12,-46.84,17.76,1
2935,45.13,-177.94,-65.75,1
2936,45.15,-35.38,-156.48,1
2937,45.16,-40.97,-83.11,1
2938,45.17,-198.64,-63.8,1
2939,45.19,-174.27,88.38,1
2940,45.2,-142.94,150.98,1
2941,45.21,-94.87,111.4,1
2942,45.22,-50.12,-48.16,1
2943,45.24,33.82,-176.67,1
2944,45.25,166.59,-230.65,1
2945,45.27,213.35,-296.95,1
2946,45.28,280.79,-243.31,1
2947,45.29,235.99,-231.98,1
2948,45.31,237.0,-123.1,1
2949,45.32,196.15,-129.77,1
2950,45.33,143.3,-40.52,1
2951,45.35,97.09,28.15,1
2952,45.36,103.79,102.08,1
2953,45.37,75.41,150.18,1
2954,45.38,44.93,187.04,1
2955,45.4,39.89,184.5,1
2956,45.41,38.18,252.42,1
2957,45.43,5.61,233.73,1
2958,45.44,-5.02,199.12,1
2959,45.45,-45.64,147.85,1
2960,45.47,-69.15,151.49,1
2961,45.48,-54.38,115.3,1
2962,45.49,-59.82,81.23,1
2963,45.51,-64.08,78.72,1
2964,45.52,-65.84,40.61,1
2965,45.53,-81.66,23.98,1
2966,45.54,-71.81,8.88,1
2967,45.56,-93.84,12.11,1
2968,45.57,-81.59,-20.24,1
2969,45.59,-84.05,-41.26,1
2970,45.6,-86.51,-42.03,1
2971,45.61,-71.18,-40.9,1
2972,45.63,-84.48,-47.36,1
2973,45.64,-90.78,-43.93,1
2974,45.65,-81.56,-57.87,1
2975,45.67,-74.61,-66.62,1
2976,45.68,-81.79,-53.89,1
2977,45.69,-75.55,-55.34,1
2978,45.71,-65.55,-62.27,1
2979,45.72,-64.12,-72.28,1
2980,45.73,-55.18,-70.29,1
2981,45.75,-50.87,-47.36,1
2982,45.76,-40.32,-36.36,1
2983,45.77,-18.31,-62.43,1
2984,45.79,-54.78,-52.16,1
2985,45.8,-43.46,-69.62,1
2986,45.81,-32.66,-48.52,1
2987,45.83,-2.5,-61.88,1
2988,45.84,2.52,-53.88,1
2989,45.85,11.81,-33.03,1
2990,45.87,17.91,-51.38,1
2991,45.88,10.19,-32.42,1
2992,45.89,20.15,-28.55,1
2993,45.9,20.88,-30.23,1
2994,45.92,29.85,-6.23,1
2995,45.93,29.06,-16.38,1
2996,45.95,27.59,-12.92,1
2997,45.96,29.4,-15.01,1
2998,45.97,46.87,6.84,1
2999,45.99,46.66,10.84,1
3000,46.0,39.14,19.34,1
3001,46.01,37.77,17.91,1
3002,46.03,34.71,25.38,1
3003,46.04,38.57,26.21,1
3004,46.05,37.09,32.06,1
3005,46.06,22.12,31.51,1
3006,46.08,42.87,37.46,1
3007,46.09,25.67,39.77,1
3008,46.11,36.73,28.13,1
3009,46.12,35.71,23.44,1
3010,46.13,38.05,38.97,1
3011,46.15,46.61,23.59,1
3012,46.16,34.14,37.55,2
3013,46.17,34.43,20.88,2
3014,46.19,43.54,17.76,2
3015,46.2,24.84,13.73,2
3016,46.21,23.03,0.6,2
3017,46.22,25.7,20.62,2
3018,46.24,7.99,44.75,2
3019,46.25,11.64,-2.42,2
3020,46.27,41.05,3.01,2
3021,46.28,11.83,17.93,2
3022,46.29,69.63,-34.85,2
3023,46.31,118.77,-23.36,2
3024,46.32,153.9,-7.25,2
3025,46.33,133.73,-27.61,2
3026,46.35,93.88,-0.94,2
3027,46.36,72.43,4.47,2
3028,46.37,12.16,28.84,2
3029,46.39,-33.76,40.19,2
3030,46.4,-63.61,24.89,2
3031,46.41,-93.37,54.28,2
3032,46.43,-116.4,50.05,2
3033,46.44,-136.88,54.45,2
3034,46.45,-142.44,44.66,2
3035,46.47,-130.39,36.69,2
3036,46.48,-105.8,32.97,2
3037,46.49,-114.33,42.75,2
3038,46.51,-109.43,38.95,2
3039,46.52,-120.8,36.37,2
3040,46.53,-86.19,23.81,2
3041,46.54,-73.54,29.62,2
3042,46.56,-51.64,12.27,1
3043,46.57,-28.35,5.06,1
3044,46.59,-16.31,-4.54,1
3045,46.6,-20.61,-20.98,1
3046,46.61,-25.28,-49.88,1
3047,46.63,-8.73,-52.44,1
3048,46.64,8.24,-58.41,1
3049,46.65,8.99,-58.51,1
3050,46.67,12.32,-51.5,1
3051,46.68,10.75,-46.45,1
3052,46.69,23.63,-49.14,1
3053,46.71,29.47,-39.76,1
3054,46.72,39.18,-50.96,1
3055,46.73,55.93,-36.83,1
3056,46.75,46.05,-9.87,1
3057,46.76,57.56,-27.95,1
3058,46.77,53.25,-30.73,1
3059,46.79,54.29,-15.49,1
3060,46.8,42.13,-27.85,1
3061,46.81,43.58,-31.45,1
3062,46.83,45.07,-28.43,1
3063,46.84,42.17,-17.83,1
3064,46.85,46.21,-11.89,1
3065,46.87,46.48,-18.76,1
3066,46.88,40.85,-19.26,1
3067,46.89,41.22,-14.29,1
3068,46.9,33.36,1.51,1
3069,46.92,32.44,-0.53,1
3070,46.93,34.24,16.92,1
3071,46.95,20.11,16.3,1
3072,46.96,16.38,7.65,1
3073,46.97,1.89,15.7,1
3074,46.99,-1.72,-4.76,1
3075,47.0,9.61,15.34,1
3076,47.01,-8.11,15.35,1
3077,47.03,-0.86,16.78,1
3078,47.04,12.42,33.8,1
3079,47.05,8.19,15.21,1
3080,47.07,13.58,19.91,1
3081,47.08,-11.51,19.58,1
3082,47.09,-8.11,13.56,1
3083,47.11,-4.18,14.24,1
3084,47.12,-7.6,13.48,1
3085,47.13,-19.71,20.81,1
3086,47.15,-23.66,19.9,1
3087,47.16,-16.22,23.35,1
3088,47.17,-25.94,10.5,1
3089,47.19,-23.67,12.29,1
3090,47.2,-24.57,15.98,1
3091,47.21,-7.11,-3.38,1
3092,47.22,-22.15,21.84,1
3093,47.24,-11.53,-1.98,1
3094,47.25,-15.24,10.93,1
3095,47.27,-9.02,7.59,1
3096,47.28,-8.34,0.04,1
3097,47.29,-14.63,0.85,1
3098,47.31,-23.29,2.7,1
3099,47.32,-25.91,-5.39,1
3100,47.33,-25.55,-7.01,1
3101,47.35,-7.56,2.86,1
3102,47.36,-26.98,1.77,1
3103,47.37,-12.88,-10.15,1
3104,47.38,-19.73,-5.39,1
3105,47.4,-8.32,-4.83,1
3106,47.41,-5.5,-2.43,1
3107,47.43,-11.93,2.27,1
3108,47.44,-7.51,-0.52,1
3109,47.45,-13.41,-13.73,1
3110,47.47,-4.34,-9.51,1
3111,47.48,-1.1,-7.46,1
3112,47.49,-23.04,5.12,1
3113,47.51,-4.83,3.12,1
3114,47.52,2.53,7.67,1
3115,47.53,-15.13,1.04,1
3116,47.54,4.98,4.75,1
3117,47.56,5.37,-0.64,1
3118,47.57,3.67,-6.45,1
3119,47.59,3.31,-7.81,1
3120,47.6,7.89,-12.98,1
3121,47.61,-1.12,-13.35,1
3122,47.63,5.37,-3.94,1
3123,47.64,19.79,-8.61,1
3124,47.65,5.07,2.9,1
3125,47.67,16.36,11.92,1
3126,47.68,-2.13,-6.12,1
3127,47.69,7.04,-13.05,1
3128,47.71,-4.5,-5.81,1
3129,47.72,-6.49,-1.4,1
3130,47.73,3.53,-0.25,1
3131,47.75,3.75,-2.79,1
3132,47.76,6.54,6.58,1
3133,47.77,6.75,-3.93,1
3134,47.79,8.6,-3.05,1
3135,47.8,3.65,-3.14,1
3136,47.81,17.28,-5.2,1
3137,47.83,20.27,-8.66,1
3138,47.84,14.85,-2.48,1
3139,47.85,4.49,1.17,1
3140,47.87,3.29,1.06,1
3141,47.88,-1.88,4.68,1
3142,47.89,-4.42,12.14,1
3143,47.9,7.42,2.9,1
3144,47.92,-1.06,-1.1,1
3145,47.93,4.78,0.49,1
3146,47.95,11.97,-3.03,1
3147,47.96,-4.75,-3.79,1
3148,47.97,4.79,-1.71,1
3149,47.99,-0.49,-2.2,1
3150,48.0,11.09,6.04,1
3151,48.01,9.87,3.29,1
3152,48.03,9.45,2.14,1
3153,48.04,-1.74,8.25,1
3154,48.05,5.08,15.78,1
3155,48.06,-36.0,10.61,1
3156,48.08,-28.51,-6.58,1
3157,48.09,-2.13,-7.21,1
3158,48.11,13.14,-7.78,1
3159,48.12,-3.6,6.02,1
3160,48.13,5.37,8.0,1
3161,48.15,11.74,3.46,1
3162,48.16,10.83,8.5,0
3163,48.17,12.47,-4.12,0
3164,48.19,-6.45,-5.32,0
3165,48.2,3.58,-18.83,0
3166,48.21,18.37,-2.75,0
3167,48.22,-16.13,4.92,0
3168,48.24,5.17,10.01,0
3169,48.25,7.5,6.22,0
3170,48.27,21.47,-3.94,0
3171,48.28,6.77,-15.29,0
3172,48.29,-78.83,-3.51,0
3173,48.31,-90.5,13.74,0
3174,48.32,-129.79,-1.92,0
3175,48.33,-134.45,-12.39,0
3176,48.35,-135.39,-0.56,0
3177,48.36,-123.64,-7.8,0
3178,48.37,-94.99,-13.86,0
3179,48.39,-61.23,-14.64,0
3180,48.4,-25.96,-5.19,0
3181,48.41,3.4,0.86,0
3182,48.43,56.8,10.9,0
3183,48.44,128.85,20.56,0
3184,48.45,166.6,11.03,0
3185,48.47,193.47,-10.81,0
3186,48.48,196.71,8.68,0
3187,48.49,200.09,0.7,0
3188,48.51,170.62,10.78,0
3189,48.52,160.25,3.24,0
3190,48.53,126.76,-2.4,0
3191,48.54,110.18,-7.04,0
3192,48.56,69.98,8.26,1
3193,48.57,48.33,-14.67,1
3194,48.59,32.77,-11.41,1
3195,48.6,19.47,-14.58,1
3196,48.61,-4.09,-20.86,1
3197,48.63,-13.54,-20.68,1
3198,48.64,-14.03,-19.28,1
3199,48.65,-30.33,8.97,1
3200,48.67,-43.58,27.95,1
3201,48.68,-62.47,19.87,1
3202,48.69,-48.05,30.19,1
3203,48.71,-65.3,16.14,1
3204,48.72,-84.56,10.55,1
3205,48.73,-82.76,9.6,1
3206,48.75,-81.96,2.29,1
3207,48.76,-63.39,0.23,1
3208,48.77,-62.81,-3.28,1
3209,48.79,-58.73,-4.91,1
3210,48.8,-61.37,10.27,1
3211,48.81,-72.54,2.04,1
3212,48.83,-71.68,6.95,1
3213,48.84,-52.97,7.14,1
3214,48.85,-47.64,6.26,1
3215,48.87,-47.29,-0.71,1
3216,48.88,-52.0,-2.05,1
3217,48.89,-52.67,12.97,1
3218,48.9,-27.6,-2.68,1
3219,48.92,-39.6,-5.43,1
3220,48.93,-28.16,-14.88,1
3221,48.95,-25.17,-1.34,1
3222,48.96,-20.27,-9.55,1
3223,48.97,-4.15,-10.75,1
3224,48.99,-21.64,-1.4,1
3225,49.0,6.81,-7.27,1
3226,49.01,-14.54,2.96,1
3227,49.03,-8.29,-14.44,1
3228,49.04,17.06,9.05,1
3229,49.05,1.89,-5.57,1
3230,49.06,5.48,1.8,1
3231,49.08,7.19,-1.52,1
3232,49.09,18.08,-1.1,1
3233,49.11,31.05,9.77,1
3234,49.12,10.99,-2.31,1
3235,49.13,21.53,-6.26,1
3236,49.15,4.87,-2.67,1
3237,49.16,7.28,-0.5,1
3238,49.17,30.73,-13.43,1
3239,49.19,18.39,-15.05,1
3240,49.2,24.53,-10.72,1
3241,49.21,29.83,10.35,1
3242,49.22,38.24,15.37,1
3243,49.24,35.99,4.31,1
3244,49.25,33.36,-8.13,1
3245,49.27,15.43,-9.6,1
3246,49.28,30.75,-1.81,1
3247,49.29,24.18,9.01,1
3248,49.31,36.21,6.2,1
3249,49.32,24.43,-6.65,1
3250,49.33,18.03,-8.16,1
3251,49.35,14.28,-6.21,1
3252,49.36,22.09,-4.86,1
3253,49.37,4.71,5.23,1
3254,49.38,10.79,2.27,1
3255,49.4,5.64,16.53,1
3256,49.41,16.95,-0.58,1
3257,49.43,25.41,-9.68,1
3258,49.44,18.22,8.84,1
3259,49.45,7.84,3.46,1
3260,49.47,9.06,14.81,1
3261,49.48,-6.45,9.96,1
3262,49.49,-2.05,7.97,1
3263,49.51,-1.42,-10.75,1
3264,49.52,6.7,0.91,1
3265,49.53,-2.65,4.17,1
3266,49.54,9.75,0.72,1
3267,49.56,6.06,4.13,1
3268,49.57,4.11,0.52,1
3269,49.59,10.78,-1.55,1
3270,49.6,-9.9,10.26,1
3271,49.61,-13.31,4.04,1
3272,49.63,-1.56,-4.73,1
3273,49.64,1.8,11.0,1
3274,49.65,8.77,7.77,1
3275,49.67,-5.01,3.58,1
3276,49.68,-17.87,-14.92,1
3277,49.69,-12.52,-11.57,1
3278,49.71,-14.46,-12.91,1
3279,49.72,-2.92,4.61,1
3280,49.73,-4.13,2.99,1
3281,49.75,-4.15,-17.61,1
3282,49.76,-15.36,-1.82,1
3283,49.77,-10.77,-0.74,1
3284,49.79,0.01,-0.52,1
3285,49.8,-3.24,-1.0,1
3286,49.81,-15.0,-12.87,1
3287,49.83,-16.34,-12.96,1
3288,49.84,-13.94,-6.41,1
3289,49.85,-19.26,-14.03,1
3290,49.87,-8.18,1.37,1
3291,49.88,-4.0,2.94,1
3292,49.89,3.82,-1.49,1
3293,49.9,-14.49,2.54,1
3294,49.92,-12.31,2.63,1
3295,49.93,4.03,12.1,1
3296,49.95,2.36,8.13,1
3297,49.96,2.27,0.1,1
3298,49.97,-7.3,20.31,1
3299,49.99,-5.64,1.27,1
3300,50.0,6.21,9.65,1
3301,50.01,-17.55,-0.82,1
3302,50.03,-2.06,2.17,1
3303,50.04,-14.11,5.99,1
3304,50.05,4.31,4.07,1
3305,50.06,-4.15,0.5,1
3306,50.08,-16.1,-0.44,1
3307,50.09,8.54,-8.96,1
3308,50.11,-11.74,-8.93,1
3309,50.12,15.01,-1.13,1
3310,50.13,10.93,7.61,1
3311,50.15,-4.05,23.17,1
3312,50.16,10.02,3.57,0
3313,50.17,-1.82,1.34,0
3314,50.19,0.12,-29.2,0
3315,50.2,16.96,28.09,0
3316,50.21,-1.56,-36.77,0
3317,50.22,-7.03,-19.95,0
3318,50.24,-7.78,18.36,0
3319,50.25,-58.12,6.63,0
3320,50.27,-67.31,-5.18,0
3321,50.28,-126.09,-6.71,0
3322,50.29,-148.03,-30.58,0
3323,50.31,-126.22,-28.33,0
3324,50.32,-92.75,-6.9,0
3325,50.33,-41.44,6.77,0
3326,50.35,1.02,-7.29,0
3327,50.36,51.21,1.07,0
3328,50.37,82.26,-5.36,0
3329,50.38,100.72,24.72,0
3330,50.4,122.2,27.51,0
3331,50.41,133.01,23.14,0
3332,50.43,141.04,17.45,0
3333,50.44,133.11,12.89,0
3334,50.45,120.52,14.44,0
3335,50.47,117.83,33.88,0
3336,50.48,102.97,-1.01,0
3337,50.49,96.6,27.6,0
3338,50.51,75.31,6.62,0
3339,50.52,80.62,11.2,0
3340,50.53,47.29,-9.98,0
3341,50.54,33.96,-22.42,0
3342,50.56,24.0,-20.98,1
3343,50.57,14.94,-15.42,1
3344,50.59,-10.36,-3.75,1
3345,50.6,-17.33,13.89,1
3346,50.61,-14.16,17.18,1
3347,50.63,-22.76,-5.83,1
3348,50.64,-21.65,4.6,1
3349,50.65,-51.18,-16.46,1
3350,50.67,-65.48,-21.34,1
3351,50.68,-56.14,-17.72,1
3352,50.69,-57.63,-4.62,1
3353,50.71,-57.66,-16.02,1
3354,50.72,-44.53,-14.25,1
3355,50.73,-53.73,-13.1,1
3356,50.75,-62.93,-0.67,1
3357,50.76,-55.86,8.86,1
3358,50.77,-62.94,-5.31,1
3359,50.79,-58.56,-21.41,1
3360,50.8,-49.58,-28.42,1
3361,50.81,-54.61,-11.43,1
3362,50.83,-52.07,-32.16,1
3363,50.84,-51.02,-8.12,1
3364,50.85,-41.35,8.32,1
3365,50.87,-35.92,-3.7,1
3366,50.88,-41.82,2.45,1
3367,50.89,-35.43,0.55,1
3368,50.91,-43.29,21.33,1
3369,50.92,-36.29,25.73,1
3370,50.93,-35.2,13.08,1
3371,50.95,-22.22,5.4,1
3372,50.96,-21.45,-7.76,1
3373,50.97,-6.39,12.39,1
3374,50.99,-6.39,25.31,1
3375,51.0,0.97,20.49,1
3376,51.01,-6.54,5.79,1
3377,51.03,-0.41,-5.89,1
3378,51.04,9.18,1.99,1
3379,51.05,14.15,-8.95,1
3380,51.06,12.84,-2.49,1
3381,51.08,19.57,9.75,1
3382,51.09,23.5,-3.69,1
3383,51.11,20.38,4.24,1
3384,51.12,16.26,7.78,1
3385,51.13,34.27,12.5,1
3386,51.15,29.28,-3.59,1
3387,51.16,27.23,-7.95,1
3388,51.17,16.2,16.24,1
3389,51.19,36.73,-5.39,1
3390,51.2,23.5,2.7,1
3391,51.21,34.59,2.71,1
3392,51.22,24.9,5.41,1
3393,51.24,31.86,11.57,1
3394,51.25,39.47,-3.81,1
3395,51.27,24.59,-2.95,1
3396,51.28,20.19,-1.74,1
3397,51.29,29.51,2.6,1
3398,51.31,18.34,-12.2,1
3399,51.32,3.79,-9.68,1
3400,51.33,30.33,4.45,1
3401,51.35,12.49,13.65,1
3402,51.36,19.17,-14.87,1
3403,51.37,18.82,1.58,1
3404,51.38,13.76,11.59,1
3405,51.4,7.42,-14.13,1
3406,51.41,4.26,0.45,1
3407,51.43,2.24,-8.02,1
3408,51.44,18.75,-2.67,1
3409,51.45,19.24,4.48,1
3410,51.47,14.91,10.01,1
3411,51.48,3.89,12.54,1
3412,51.49,15.94,11.52,1
3413,51.51,-8.15,-3.3,1
3414,51.52,4.54,4.89,1
3415,51.53,-11.3,-25.97,1
3416,51.55,-2.5,4.55,1
3417,51.56,-1.23,2.4,1
3418,51.57,-10.71,-3.79,1
3419,51.59,2.66,-17.33,1
3420,51.6,-10.44,7.12,1
3421,51.61,-20.4,-5.12,1
3422,51.63,-1.78,-12.96,1
3423,51.64,-16.49,9.36,1
3424,51.65,-6.93,2.7,1
3425,51.67,-21.4,-20.48,1
3426,51.68,-10.31,-6.11,1
3427,51.69,-0.26,4.63,1
3428,51.71,3.33,-1.77,1
3429,51.72,-10.37,14.01,1
3430,51.73,-6.73,-6.44,1
3431,51.75,-5.11,11.69,1
3432,51.76,-5.4,2.42,1
3433,51.77,-24.23,19.49,1
3434,51.79,-18.58,-2.85,1
3435,51.8,-10.77,-8.46,1
3436,51.81,-12.96,-15.64,1
3437,51.83,-9.27,-21.74,1
3438,51.84,-10.15,2.52,1
3439,51.85,3.32,10.47,1
3440,51.87,-6.41,-1.65,1
3441,51.88,-11.88,-14.21,1
3442,51.89,-27.28,11.62,1
3443,51.9,6.42,4.02,1
3444,51.92,-3.02,-1.19,1
3445,51.93,-1.54,-5.31,1
3446,51.95,-7.04,-29.79,1
3447,51.96,-10.38,-1.82,1
3448,51.97,-12.01,-2.29,1
3449,51.99,5.38,-3.26,1
3450,52.0,-2.76,16.45,1
3451,52.01,3.13,3.14,1
3452,52.03,-0.66,20.23,1
3453,52.04,12.06,7.12,1
3454,52.05,0.47,4.91,1
3455,52.06,1.76,2.2,1
3456,52.08,-14.8,-10.19,1
3457,52.09,-2.83,15.22,1
3458,52.11,2.01,3.5,1
3459,52.12,28.98,-6.25,1
3460,52.13,13.49,-3.25,1
3461,52.15,7.26,-26.19,1
3462,52.16,12.5,5.81,2
3463,52.17,3.68,-4.4,2
3464,52.19,10.38,-3.63,2
3465,52.2,-2.33,-10.78,2
3466,52.21,-10.77,22.68,2
3467,52.23,17.9,-21.26,2
3468,52.24,3.64,3.4,2
3469,52.25,7.39,5.38,2
3470,52.27,13.5,8.4,2
3471,52.28,5.32,-8.27,2
3472,52.29,-11.51,-11.13,2
3473,52.31,-5.28,-15.31,2
3474,52.32,2.72,7.23,2
3475,52.33,6.19,9.51,2
3476,52.35,-3.13,13.12,2
3477,52.36,-17.69,32.16,2
3478,52.37,71.3,37.14,2
3479,52.38,88.55,42.31,2
3480,52.4,132.94,33.13,2
3481,52.41,129.95,26.95,2
3482,52.43,141.71,29.67,2
3483,52.44,91.92,-5.94,2
3484,52.45,93.54,-18.27,2
3485,52.47,59.53,-36.77,2
3486,52.48,29.05,-35.21,2
3487,52.49,-24.9,-16.12,2
3488,52.51,-78.75,-26.72,2
3489,52.52,-148.81,-17.2,2
3490,52.53,-195.45,-12.55,2
3491,52.54,-207.9,-19.3,2
3492,52.56,-220.99,-24.96,1
3493,52.57,-185.76,2.71,1
3494,52.59,-181.95,-14.07,1
3495,52.6,-169.4,-6.71,1
3496,52.61,-142.34,-28.64,1
3497,52.63,-111.08,-10.42,1
3498,52.64,-90.29,-11.94,1
3499,52.65,-43.31,0.01,1
3500,52.67,-22.2,-8.93,1
3501,52.68,-22.97,15.86,1
3502,52.69,-3.7,23.0,1
3503,52.71,20.0,25.46,1
3504,52.72,46.99,5.59,1
3505,52.73,71.35,21.47,1
3506,52.75,65.0,12.8,1
3507,52.76,66.04,0.57,1
3508,52.77,68.6,-4.02,1
3509,52.79,64.1,0.62,1
3510,52.8,59.99,19.26,1
3511,52.81,67.29,-3.87,1
3512,52.83,92.81,4.43,1
3513,52.84,69.13,16.92,1
3514,52.85,73.49,23.75,1
3515,52.87,71.87,-1.87,1
3516,52.88,65.61,-5.8,1
3517,52.89,70.56,-1.27,1
3518,52.9,63.91,-0.12,1
3519,52.92,71.69,0.62,1
3520,52.93,58.38,5.13,1
3521,52.95,67.2,-16.55,1
3522,52.96,48.68,6.25,1
3523,52.97,60.12,1.47,1
3524,52.99,35.51,-10.99,1
3525,53.0,51.41,6.52,1
3526,53.01,17.77,1.57,1
3527,53.03,16.03,-1.77,1
3528,53.04,24.02,8.88,1
3529,53.05,18.28,2.57,1
3530,53.06,21.97,-5.0,1
3531,53.08,11.13,-10.51,1
3532,53.09,1.17,2.3,1
3533,53.11,7.73,-16.19,1
3534,53.12,-0.84,-9.52,1
3535,53.13,-15.6,-9.47,1
3536,53.15,-12.52,5.67,1
3537,53.16,-14.75,0.87,1
3538,53.17,-19.9,0.36,1
3539,53.19,-13.84,0.55,1
3540,53.2,-26.35,-0.28,1
3541,53.21,-18.49,-9.2,1
3542,53.22,-45.32,11.87,1
3543,53.24,-32.53,1.26,1
3544,53.25,-33.01,-7.33,1
3545,53.27,-29.6,-17.0,1
3546,53.28,-31.68,1.65,1
3547,53.29,-40.79,9.4,1
3548,53.31,-35.03,-6.38,1
3549,53.32,-23.16,-3.4,1
3550,53.33,-25.94,-10.49,1
3551,53.35,-24.09,-8.25,1
3552,53.36,-25.06,-14.29,1
3553,53.37,-32.17,9.86,1
3554,53.38,-10.34,0.14,1
3555,53.4,-33.18,22.03,1
3556,53.41,-47.07,20.45,1
3557,53.43,-20.96,14.95,1
3558,53.44,-18.34,15.55,1
3559,53.45,-9.32,4.29,1
3560,53.47,-14.16,-13.77,1
3561,53.48,-24.08,0.2,1
3562,53.49,-8.97,1.39,1
3563,53.51,-9.06,1.16,1
3564,53.52,-1.06,0.89,1
3565,53.53,-5.59,11.07,1
3566,53.54,-5.03,3.85,1
3567,53.56,-1.99,-8.6,1
3568,53.57,7.96,-21.81,1
3569,53.59,-3.34,-5.21,1
3570,53.6,-17.91,6.36,1
3571,53.61,-13.13,3.73,1
3572,53.63,-8.02,-3.65,1
3573,53.64,6.45,-9.27,1
3574,53.65,2.82,-0.07,1
3575,53.67,-4.81,-10.05,1
3576,53.68,-0.2,4.74,1
3577,53.69,11.14,4.58,1
3578,53.71,12.71,4.81,1
3579,53.72,10.55,-6.75,1
3580,53.73,2.06,-5.87,1
3581,53.75,7.05,3.28,1
3582,53.76,11.48,9.71,1
3583,53.77,1.57,3.06,1
3584,53.79,7.83,18.1,1
3585,53.8,13.32,8.66,1
3586,53.81,25.45,-1.81,1
3587,53.83,11.29,-16.7,1
3588,53.84,6.88,-8.69,1
3589,53.85,18.41,1.32,1
3590,53.87,14.23,-13.17,1
3591,53.88,-1.17,-2.14,1
3592,53.89,7.04,9.85,1
3593,53.9,15.91,7.41,1
3594,53.92,21.48,-16.38,1
3595,53.93,12.88,2.05,1
3596,53.95,-1.96,-5.34,1
3597,53.96,-19.59,-10.4,1
3598,53.97,12.01,2.65,1
3599,53.99,2.89,-0.89,1
3600,54.0,16.56,15.12,1
3601,54.01,21.76,30.89,1
3602,54.03,11.17,-5.52,1
3603,54.04,6.7,-9.99,1
3604,54.05,0.56,-19.1,1
3605,54.06,-4.26,-24.67,1
3606,54.08,-31.41,-32.8,1
3607,54.09,-2.19,17.72,1
3608,54.11,7.87,-14.48,1
3609,54.12,4.6,-5.41,1
3610,54.13,2.41,-6.14,1
3611,54.15,-11.66,20.84,1
3612,54.16,5.05,47.77,1
3613,54.17,24.42,99.09,1
3614,54.19,-5.88,83.0,1
3615,54.2,6.27,284.3,1
3616,54.21,21.77,335.01,1
3617,54.22,23.26,113.77,1
3618,54.24,86.17,-107.34,1
3619,54.25,137.58,-58.92,1
3620,54.27,-78.35,18.26,1
3621,54.28,4.13,190.19,1
3622,54.29,163.58,76.32,1
3623,54.31,-172.28,61.18,1
3624,54.32,71.96,1.09,1
3625,54.33,-170.27,-29.44,1
3626,54.35,-39.5,-65.32,1
3627,54.36,132.98,-90.44,1
3628,54.37,228.57,-112.61,1
3629,54.38,186.76,-129.5,1
3630,54.4,164.22,-140.85,1
3631,54.41,112.97,-149.36,1
3632,54.43,51.4,-235.96,1
3633,54.44,-112.13,-361.29,1
3634,54.45,-87.17,-239.08,1
3635,54.47,-239.34,-113.41,1
3636,54.48,-48.47,-333.07,1
3637,54.49,-218.19,-625.02,1
3638,54.51,-213.25,-278.3,1
3639,54.52,-163.86,-459.94,1
3640,54.53,-326.73,-49.69,1
3641,54.54,-315.29,-338.3,1
3642,54.56,-366.43,146.69,1
3643,54.57,53.0,211.2,1
3644,54.59,-307.36,146.37,1
3645,54.6,143.15,44.01,1
3646,54.61,-28.76,201.36,1
3647,54.63,-7.3,-3.91,1
3648,54.64,216.77,216.61,1
3649,54.65,-6.32,449.96,1
3650,54.67,147.07,230.29,1
3651,54.68,144.53,264.49,1
3652,54.69,-36.09,252.9,1
3653,54.71,124.51,439.81,1
3654,54.72,-67.21,204.3,1
3655,54.73,-205.02,-233.7,1
3656,54.75,156.76,159.7,1
3657,54.76,151.03,343.9,1
3658,54.77,324.2,-108.86,1
3659,54.79,-53.76,24.14,1
3660,54.8,188.5,202.54,1
3661,54.81,-265.88,85.08,1
3662,54.83,132.47,3.19,1
3663,54.84,61.58,-158.45,1
3664,54.85,306.68,-110.37,1
3665,54.87,273.32,76.57,1
3666,54.88,17.77,186.92,1
3667,54.89,191.4,270.7,1
3668,54.9,-243.12,-202.27,1
3669,54.92,136.34,138.36,1
3670,54.93,-57.29,-120.75,1
3671,54.95,-60.65,144.2,1
3672,54.96,136.98,219.46,1
3673,54.97,-64.12,-214.82,1
3674,54.99,-125.55,2.83,1
3675,55.0,150.64,-133.82,1
3676,55.01,-101.32,-89.49,1
3677,55.03,32.9,-97.01,1
3678,55.04,15.14,-114.72,1
3679,55.05,88.85,-48.57,1
3680,55.06,-43.86,-93.89,1
3681,55.08,-80.44,14.05,1
3682,55.09,-206.08,-1.06,1
3683,55.11,-272.74,24.0,1
3684,55.12,-238.82,-107.94,1
3685,55.13,-186.35,-108.73,1
3686,55.15,-118.34,-123.29,1
3687,55.16,-13.75,-62.01,1
3688,55.17,50.44,-4.45,1
3689,55.19,116.34,84.23,1
3690,55.2,174.19,26.75,1
3691,55.21,185.03,65.15,1
3692,55.22,210.73,60.0,1
3693,55.24,192.5,98.29,1
3694,55.25,162.21,92.85,1
3695,55.27,164.18,77.69,1
3696,55.28,137.14,62.7,1
3697,55.29,112.96,29.03,1
3698,55.31,90.43,-3.3,1
3699,55.32,69.06,14.54,1
3700,55.33,67.04,39.24,1
3701,55.35,29.62,47.51,1
3702,55.36,22.74,29.39,1
3703,55.37,9.93,0.36,1
3704,55.38,-20.67,12.49,1
3705,55.4,-5.6,6.2,1
3706,55.41,-47.3,9.21,1
3707,55.43,-44.66,-25.24,1
3708,55.44,-51.63,-29.98,1
3709,55.45,-70.15,-42.35,1
3710,55.47,-80.24,-40.84,1
3711,55.48,-80.57,-48.32,1
3712,55.49,-85.29,-56.09,1
3713,55.51,-97.88,-53.6,1
3714,55.52,-88.92,-55.63,1
3715,55.53,-88.11,-62.56,1
3716,55.54,-93.98,-76.54,1
3717,55.56,-89.95,-56.12,1
3718,55.57,-83.0,-56.55,1
3719,55.59,-74.71,-63.91,1
3720,55.6,-71.97,-70.33,1
3721,55.61,-68.61,-92.73,1
3722,55.63,-75.15,-62.26,1
3723,55.64,-65.57,-60.76,1
3724,55.65,-79.35,-59.19,1
3725,55.67,-43.6,-35.8,1
3726,55.68,-47.35,-50.75,1
3727,55.69,-36.16,-45.77,1
3728,55.71,-38.9,-35.72,1
3729,55.72,-31.14,-41.96,1
3730,55.73,-23.12,-39.01,1
3731,55.75,-21.27,-26.05,1
3732,55.76,-18.62,-46.88,1
3733,55.77,-14.49,-21.97,1
3734,55.79,-10.19,7.82,1
3735,55.8,-8.41,1.79,1
3736,55.81,19.95,-12.42,1
3737,55.83,10.17,16.36,1
3738,55.84,18.12,3.52,1
3739,55.85,21.3,10.08,1
3740,55.87,18.54,12.21,1
3741,55.88,14.84,41.26,1
3742,55.89,23.02,43.05,1
3743,55.9,37.96,52.26,1
3744,55.92,23.83,45.0,1
3745,55.93,33.32,51.13,1
3746,55.95,30.22,44.65,1
3747,55.96,28.14,50.3,1
3748,55.97,31.68,28.26,1
3749,55.99,43.53,32.63,1
3750,56.0,39.61,35.22,1
3751,56.01,34.42,41.76,1
3752,56.03,53.75,41.65,1
3753,56.04,32.58,38.54,1
3754,56.05,34.3,30.21,1
3755,56.06,22.67,43.6,1
3756,56.08,2.47,17.94,1
3757,56.09,30.52,34.94,1
3758,56.11,15.12,34.85,1
3759,56.12,36.15,12.47,1
3760,56.13,46.23,48.27,1
3761,56.15,37.6,15.36,1
3762,56.16,13.89,42.56,2
3763,56.17,14.73,8.13,2
3764,56.19,14.32,4.08,2
3765,56.2,25.53,-15.54,2
3766,56.21,15.0,33.17,2
3767,56.22,13.71,-13.29,2
3768,56.24,21.36,-0.66,2
3769,56.25,14.54,-17.37,2
3770,56.27,11.24,-18.71,2
3771,56.28,86.9,-37.95,2
3772,56.29,109.88,3.05,2
3773,56.31,144.67,17.66,2
3774,56.32,121.31,13.3,2
3775,56.33,95.5,-5.43,2
3776,56.35,40.98,46.52,2
3777,56.36,1.13,31.1,2
3778,56.37,-30.81,32.85,2
3779,56.38,-56.31,12.48,2
3780,56.4,-81.94,18.39,2
3781,56.41,-92.12,3.27,2
3782,56.43,-123.14,-1.58,2
3783,56.44,-118.68,16.79,2
3784,56.45,-108.75,22.2,2
3785,56.47,-110.69,4.95,2
3786,56.48,-127.59,-13.46,2
3787,56.49,-107.99,-6.06,2
3788,56.51,-94.23,13.74,2
3789,56.52,-92.04,-6.83,2
3790,56.53,-72.81,-29.6,2
3791,56.54,-59.07,-41.59,2
3792,56.56,-39.54,-25.47,1
3793,56.57,-32.6,-15.96,1
3794,56.59,-37.52,-34.03,1
3795,56.6,-6.48,-29.37,1
3796,56.61,-17.92,-27.25,1
3797,56.63,3.96,-35.23,1
3798,56.64,-3.68,-41.57,1
3799,56.65,8.29,-30.14,1
3800,56.67,16.19,-39.46,1
3801,56.68,16.23,-27.59,1
3802,56.69,47.02,-51.21,1
3803,56.71,47.82,-21.04,1
3804,56.72,36.62,-22.14,1
3805,56.73,37.65,-45.63,1
3806,56.75,30.82,-21.18,1
3807,56.76,49.65,-34.62,1
3808,56.77,65.07,-27.3,1
3809,56.79,51.27,0.73,1
3810,56.8,42.82,15.3,1
3811,56.81,44.07,0.87,1
3812,56.83,52.94,8.67,1
3813,56.84,47.36,25.79,1
3814,56.85,58.28,23.99,1
3815,56.87,25.83,14.84,1
3816,56.88,44.58,10.25,1
3817,56.89,41.33,11.13,1
3818,56.9,37.93,19.85,1
3819,56.92,22.08,25.55,1
3820,56.93,20.55,36.32,1
3821,56.95,36.56,34.56,1
3822,56.96,23.0,35.26,1
3823,56.97,-6.45,3.8,1
3824,56.99,27.7,11.25,1
3825,57.0,16.12,7.6,1
3826,57.01,0.01,19.5,1
3827,57.03,38.26,-8.08,1
3828,57.04,36.87,-1.23,1
3829,57.05,-7.23,17.97,1
3830,57.06,-15.15,6.78,1
3831,57.08,-23.0,18.53,1
3832,57.09,-34.21,29.86,1
3833,57.11,-37.31,13.56,1
3834,57.12,19.91,-4.06,1
3835,57.13,-33.48,10.62,1
3836,57.15,-11.67,1.95,1
3837,57.16,-32.59,-56.01,1
3838,57.17,-37.54,-16.79,1
3839,57.19,-59.34,-14.91,1
3840,57.2,-8.24,-26.29,1
3841,57.21,-23.67,10.35,1
3842,57.22,30.2,30.6,1
3843,57.24,2.17,-16.24,1
3844,57.25,-19.52,-28.15,1
3845,57.27,-3.02,-6.0,1
3846,57.28,-48.89,22.28,1
3847,57.29,14.23,4.66,1
3848,57.31,-57.95,-9.15,1
3849,57.32,-11.38,0.86,1
3850,57.33,-0.7,2.84,1
3851,57.35,-21.47,5.11,1
3852,57.36,-61.97,7.39,1
3853,57.37,-33.07,37.27,1
3854,57.38,-39.48,5.07,1
3855,57.4,-17.68,13.16,1
3856,57.41,-17.72,7.82,1
3857,57.43,14.3,-7.45,1
3858,57.44,4.81,-7.69,1
3859,57.45,-1.8,-1.21,1
3860,57.47,1.87,2.83,1
3861,57.48,5.28,-14.83,1
3862,57.49,-5.29,-6.8,1
3863,57.51,-19.64,-5.73,1
3864,57.52,-2.2,-17.02,1
3865,57.53,-13.28,-5.15,1
3866,57.54,1.56,-1.11,1
3867,57.56,3.77,0.79,1
3868,57.57,34.29,-5.37,1
3869,57.59,10.45,-14.63,1
3870,57.6,7.6,-21.28,1
3871,57.61,12.38,1.55,1
3872,57.63,-3.48,-14.85,1
3873,57.64,16.6,1.75,1
3874,57.65,7.99,-13.21,1
3875,57.67,-0.08,-6.28,1
3876,57.68,22.84,-1.48,1
3877,57.69,23.29,14.81,1
3878,57.71,-1.76,4.18,1
3879,57.72,-6.19,10.87,1
3880,57.73,19.75,-1.09,1
3881,57.75,7.83,-12.66,1
3882,57.76,14.5,-1.15,1
3883,57.77,12.44,5.24,1
3884,57.79,6.51,-0.03,1
3885,57.8,-15.02,1.34,1
3886,57.81,4.58,8.45,1
3887,57.83,5.7,7.62,1
3888,57.84,7.27,10.26,1
3889,57.85,3.12,-4.06,1
3890,57.87,13.29,-22.06,1
3891,57.88,4.29,10.34,1
3892,57.89,-0.92,9.56,1
3893,57.9,2.81,2.6,1
3894,57.92,-1.31,13.86,1
3895,57.93,17.81,0.73,1
3896,57.95,5.74,-2.67,1
3897,57.96,-9.27,12.26,1
3898,57.97,-14.19,5.34,1
3899,57.99,-5.42,8.96,1
3900,58.0,-5.23,8.93,1
3901,58.01,-5.48,-3.22,1
3902,58.02,-2.34,20.2,1
3903,58.04,10.79,18.43,1
3904,58.05,-5.17,-9.82,1
3905,58.06,-13.64,3.63,1
3906,58.08,-6.27,-17.71,1
3907,58.09,-12.23,-3.63,1
3908,58.11,6.22,9.46,1
3909,58.12,10.86,-8.57,1
3910,58.13,-0.78,-13.18,1
3911,58.15,6.05,-5.01,1
3912,58.16,-10.74,19.02,0
3913,58.17,6.49,24.79,0
3914,58.19,34.77,16.61,0
3915,58.2,6.72,-24.68,0
3916,58.21,-1.17,2.03,0
3917,58.22,-6.38,14.1,0
3918,58.24,-11.64,-26.28,0
3919,58.25,-9.48,3.22,0
3920,58.27,3.96,4.79,0
3921,58.28,25.6,-12.14,0
3922,58.29,-55.15,-5.67,0
3923,58.31,-95.12,-8.71,0
3924,58.32,-160.84,-24.86,0
3925,58.33,-150.96,-20.84,0
3926,58.35,-154.3,-52.13,0
3927,58.36,-130.99,-54.06,0
3928,58.37,-94.39,-23.69,0
3929,58.38,-47.76,-12.81,0
3930,58.4,1.44,-11.63,0
3931,58.41,47.71,-2.41,0
3932,58.43,123.97,1.94,0
3933,58.44,192.98,30.79,0
3934,58.45,212.95,20.87,0
3935,58.47,199.23,27.07,0
3936,58.48,209.76,31.2,0
3937,58.49,174.22,36.39,0
3938,58.51,151.05,44.22,0
3939,58.52,133.86,48.37,0
3940,58.53,99.23,45.35,0
3941,58.54,98.92,23.04,0
3942,58.56,55.09,14.84,1
3943,58.57,36.09,5.29,1
3944,58.59,9.19,-9.03,1
3945,58.6,-8.6,-38.11,1
3946,58.61,1.58,-34.36,1
3947,58.63,-36.61,-2.99,1
3948,58.64,-36.07,-20.86,1
3949,58.65,-46.3,-17.48,1
3950,58.66,-52.14,-29.6,1
3951,58.68,-57.01,-28.04,1
3952,58.69,-54.29,-16.8,1
3953,58.71,-58.16,-15.49,1
3954,58.72,-60.96,2.36,1
3955,58.73,-86.74,-3.47,1
3956,58.75,-68.46,-5.71,1
3957,58.76,-75.97,-4.16,1
3958,58.77,-90.1,10.5,1
3959,58.79,-84.23,5.6,1
3960,58.8,-80.64,16.59,1
3961,58.81,-62.67,24.17,1
3962,58.83,-68.83,5.4,1
3963,58.84,-61.1,7.45,1
3964,58.85,-47.31,-5.05,1
3965,58.87,-46.47,24.3,1
3966,58.88,-46.31,22.3,1
3967,58.89,-35.52,-5.4,1
3968,58.9,-11.81,27.63,1
3969,58.92,-26.0,-5.87,1
3970,58.93,-22.32,-3.82,1
3971,58.95,-26.6,-18.29,1
3972,58.96,-19.25,-7.77,1
3973,58.97,-15.85,4.47,1
3974,58.99,-12.55,10.55,1
3975,59.0,-0.51,10.92,1
3976,59.01,1.21,11.83,1
3977,59.03,-10.12,-6.91,1
3978,59.04,-2.89,-21.69,1
3979,59.05,12.85,-32.24,1
3980,59.06,11.49,-23.31,1
3981,59.08,13.88,-6.64,1
3982,59.09,19.35,0.41,1
3983,59.11,44.11,5.58,1
3984,59.12,13.57,3.13,1
3985,59.13,31.75,-20.91,1
3986,59.15,26.35,-1.38,1
3987,59.16,44.4,-12.8,1
3988,59.17,40.35,-16.33,1
3989,59.19,39.92,3.41,1
3990,59.2,40.08,0.09,1
3991,59.21,30.59,9.65,1
3992,59.22,18.36,-3.55,1
3993,59.24,30.08,0.73,1
3994,59.25,26.2,6.42,1
3995,59.27,23.25,6.65,1
3996,59.28,28.05,-3.84,1
3997,59.29,14.46,11.15,1
3998,59.3,27.19,-6.84,1
3999,59.32,23.09,4.38,1
4000,59.33,15.36,19.5,1
4001,59.35,15.66,-2.69,1
4002,59.36,33.61,-3.08,1
4003,59.37,-0.87,11.79,1
4004,59.38,3.08,7.18,1
4005,59.4,14.99,10.63,1
4006,59.41,5.2,-1.41,1
4007,59.43,9.81,0.96,1
4008,59.44,6.35,6.86,1
4009,59.45,11.79,13.26,1
4010,59.47,9.67,-9.42,1
4011,59.48,4.19,0.4,1
4012,59.49,8.15,-4.59,1
4013,59.51,16.36,15.78,1
4014,59.52,-7.22,1.27,1
4015,59.53,-5.98,5.39,1
4016,59.54,-1.74,0.98,1
4017,59.56,-4.29,-5.45,1
4018,59.57,5.92,-4.26,1
4019,59.59,-11.52,-1.92,1
4020,59.6,-11.24,-12.37,1
4021,59.61,-10.09,-17.7,1
4022,59.63,-19.06,-2.6,1
4023,59.64,-22.56,0.93,1
4024,59.65,-5.74,7.79,1
4025,59.67,-2.12,-12.38,1
4026,59.68,-1.87,1.84,1
4027,59.69,-2.01,-6.43,1
4028,59.71,-17.54,-0.44,1
4029,59.72,-11.33,10.47,1
4030,59.73,-25.08,-7.48,1
4031,59.75,-7.46,-7.8,1
4032,59.76,-0.26,1.97,1
4033,59.77,7.42,16.45,1
4034,59.79,-5.87,23.95,1
4035,59.8,-9.43,20.99,1
4036,59.81,-6.24,-9.93,1
4037,59.83,-18.88,0.32,1
4038,59.84,-8.3,-2.61,1
4039,59.85,-22.66,7.32,1
4040,59.87,-18.4,8.85,1
4041,59.88,1.19,-11.31,1
4042,59.89,-2.81,-16.94,1
4043,59.9,-6.34,5.98,1
4044,59.92,-7.25,-3.43,1
4045,59.93,9.86,8.77,1
4046,59.94,-2.33,2.96,1
4047,59.96,2.7,0.75,1
4048,59.97,-6.5,-12.67,1
4049,59.985,-12.37,7.39,1
4050,60.0,4.43,-1.73,1
4051,60.01,6.28,-10.27,1
4052,60.03,19.87,-5.35,1
4053,60.04,-1.47,-8.81,1
4054,60.05,-3.33,3.99,1
4055,60.06,-9.43,3.44,1
4056,60.08,-0.73,-9.15,1
4057,60.09,6.76,3.5,1
4058,60.11,-4.7,10.17,1
4059,60.12,-12.1,-16.11,1
4060,60.13,2.02,-11.77,1
4061,60.15,0.47,-1.39,1
4062,60.16,2.95,-0.52,0
4063,60.17,14.21,2.24,0
4064,60.19,12.62,7.61,0
4065,60.2,3.03,-5.78,0
4066,60.21,15.23,-26.16,0
4067,60.22,16.37,6.06,0
4068,60.24,8.51,4.44,0
4069,60.25,6.46,-11.77,0
4070,60.27,8.93,-49.08,0
4071,60.28,15.61,-13.37,0
4072,60.29,8.85,14.63,0
4073,60.31,-93.74,-8.55,0
4074,60.32,-127.56,21.91,0
4075,60.33,-162.97,-15.18,0
4076,60.35,-143.31,-39.87,0
4077,60.36,-124.24,-19.77,0
4078,60.37,-63.0,21.05,0
4079,60.38,-57.26,12.09,0
4080,60.4,19.88,17.76,0
4081,60.41,46.15,26.84,0
4082,60.43,88.7,37.72,0
4083,60.44,111.54,60.11,0
4084,60.45,131.1,22.41,0
4085,60.47,126.89,35.09,0
4086,60.48,128.4,40.98,0
4087,60.49,127.34,54.22,0
4088,60.51,113.45,23.59,0
4089,60.52,112.88,3.54,0
4090,60.53,99.42,-16.02,0
4091,60.54,86.24,-6.59,0
4092,60.56,74.24,-18.55,1
4093,60.57,78.81,-8.18,1
4094,60.58,36.14,-24.67,1
4095,60.6,45.48,-20.23,1
4096,60.61,10.29,-20.6,1
4097,60.62,3.92,-16.3,1
4098,60.64,-5.58,-16.54,1
4099,60.65,-27.27,-24.17,1
4100,60.67,-19.29,-14.33,1
4101,60.68,-25.96,17.11,1
4102,60.69,-44.06,-1.23,1
4103,60.71,-34.96,19.54,1
4104,60.72,-23.72,-2.37,1
4105,60.73,-40.53,-15.93,1
4106,60.75,-57.45,-10.18,1
4107,60.76,-45.31,14.82,1
4108,60.77,-53.76,-3.16,1
4109,60.79,-58.58,0.53,1
4110,60.8,-71.86,-1.34,1
4111,60.81,-75.22,-21.08,1
4112,60.83,-69.71,-11.01,1
4113,60.84,-73.26,-9.77,1
4114,60.85,-67.51,-38.03,1
4115,60.87,-45.92,-26.08,1
4116,60.88,-55.83,-18.78,1
4117,60.89,-43.24,-0.34,1
4118,60.9,-16.95,-6.32,1
4119,60.92,-26.73,-32.95,1
4120,60.93,-20.55,-8.71,1
4121,60.95,-30.28,16.94,1
4122,60.96,-27.86,-8.56,1
4123,60.97,-8.9,-1.12,1
4124,60.99,-20.85,-13.38,1
4125,61.0,-26.88,-27.46,1
4126,61.01,-6.11,-2.51,1
4127,61.03,-18.03,-1.05,1
4128,61.04,-2.68,26.63,1
4129,61.05,2.47,-6.6,1
4130,61.06,4.94,10.7,1
4131,61.08,2.85,28.59,1
4132,61.09,16.64,12.9,1
4133,61.11,12.75,30.52,1
4134,61.12,11.78,20.85,1
4135,61.13,10.17,36.39,1
4136,61.15,24.36,9.43,1
4137,61.16,4.15,28.69,1
4138,61.17,7.35,19.48,1
4139,61.19,1.17,4.01,1
4140,61.2,15.09,22.8,1
4141,61.21,33.73,-3.04,1
4142,61.22,33.2,-0.29,1
4143,61.24,39.35,-16.32,1
4144,61.25,51.77,1.17,1
4145,61.26,19.12,-17.68,1
4146,61.28,31.4,-3.17,1
4147,61.29,13.19,6.13,1
4148,61.31,12.45,12.17,1
4149,61.32,21.83,16.94,1
4150,61.33,30.15,11.16,1
4151,61.35,15.0,22.62,1
4152,61.36,10.32,8.04,1
4153,61.37,7.5,21.2,1
4154,61.38,23.18,12.33,1
4155,61.4,12.2,0.19,1
4156,61.41,29.33,7.29,1
4157,61.43,16.81,-12.51,1
4158,61.44,22.02,-2.32,1
4159,61.45,22.16,-10.4,1
4160,61.47,5.13,-22.57,1
4161,61.48,-1.79,-17.42,1
4162,61.49,15.26,-3.78,1
4163,61.51,10.69,1.91,1
4164,61.52,10.16,-7.96,1
4165,61.53,-10.32,-44.26,1
4166,61.54,-7.17,-1.49,1
4167,61.56,7.19,-16.44,1
4168,61.57,-1.24,-4.28,1
4169,61.59,26.39,-4.22,1
4170,61.6,-6.49,-10.76,1
4171,61.61,-4.41,-23.7,1
4172,61.63,-18.51,-6.9,1
4173,61.64,-4.75,-6.13,1
4174,61.65,-19.66,-19.21,1
4175,61.67,-18.06,-9.02,1
4176,61.68,-25.28,-2.0,1
4177,61.69,-6.55,-19.5,1
4178,61.71,-3.66,-21.06,1
4179,61.72,-3.48,-3.28,1
4180,61.73,0.51,1.62,1
4181,61.75,-13.65,-11.92,1
4182,61.76,-6.71,-13.69,1
4183,61.77,-11.87,-2.19,1
4184,61.79,-4.83,10.57,1
4185,61.8,-2.75,14.88,1
4186,61.81,-8.35,3.78,1
4187,61.83,-8.39,6.11,1
4188,61.84,-19.24,-1.02,1
4189,61.85,-6.39,-9.56,1
4190,61.86,-9.04,18.98,1
4191,61.88,-1.07,5.26,1
4192,61.89,-1.58,-0.73,1
4193,61.9,12.21,5.85,1
4194,61.92,-15.51,24.36,1
4195,61.93,6.6,31.93,1
4196,61.95,-5.7,21.5,1
4197,61.96,-13.53,9.86,1
4198,61.97,-9.35,19.92,1
4199,61.99,0.17,1.89,1
4200,62.0,-7.55,14.37,1
4201,62.01,-11.15,9.39,1
4202,62.03,-3.13,-4.44,1
4203,62.04,3.06,1.76,1
4204,62.05,0.88,13.69,1
4205,62.06,0.7,-4.17,1
4206,62.08,-21.41,2.52,1
4207,62.09,-6.19,-9.01,1
4208,62.11,-1.04,-7.93,1
4209,62.12,0.61,2.69,1
4210,62.13,12.6,7.95,1
4211,62.15,5.23,6.31,1
4212,62.16,13.17,-9.35,2
4213,62.17,11.53,-8.03,2
4214,62.19,11.21,5.43,2
4215,62.2,9.7,-14.16,2
4216,62.21,6.01,-11.97,2
4217,62.22,8.5,18.12,2
4218,62.24,14.31,-9.32,2
4219,62.25,10.02,-3.4,2
4220,62.27,-1.78,6.92,2
4221,62.28,-9.16,16.06,2
4222,62.29,88.59,23.01,2
4223,62.31,114.89,23.1,2
4224,62.32,124.32,35.72,2
4225,62.33,142.06,29.84,2
4226,62.35,127.42,9.33,2
4227,62.36,116.54,-21.98,2
4228,62.37,77.81,-3.82,2
4229,62.38,35.78,-15.86,2
4230,62.4,22.39,-19.35,2
4231,62.41,-25.82,-14.64,2
4232,62.43,-65.62,-17.41,2
4233,62.44,-123.61,-25.89,2
4234,62.45,-183.79,8.81,2
4235,62.47,-230.84,-20.81,2
4236,62.48,-232.48,-19.93,2
4237,62.49,-214.33,-27.86,2
4238,62.5,-190.58,-17.65,2
4239,62.52,-160.46,-27.64,2
4240,62.53,-152.05,-4.81,2
4241,62.54,-122.99,-7.85,2
4242,62.56,-101.05,-3.1,1
4243,62.57,-59.2,6.31,1
4244,62.58,-43.23,10.61,1
4245,62.6,-22.51,11.51,1
4246,62.61,2.47,7.43,1
4247,62.63,23.74,6.76,1
4248,62.64,31.13,-17.27,1
4249,62.65,29.32,2.31,1
4250,62.67,52.87,3.6,1
4251,62.68,80.44,-0.58,1
4252,62.69,66.45,-1.02,1
4253,62.71,74.49,16.25,1
4254,62.72,84.51,-3.51,1
4255,62.73,83.72,11.8,1
4256,62.75,89.69,0.59,1
4257,62.76,77.2,-3.54,1
4258,62.77,102.75,-10.31,1
4259,62.79,67.41,-13.34,1
4260,62.8,81.94,-7.58,1
4261,62.81,79.15,0.99,1
4262,62.83,94.28,13.0,1
4263,62.84,63.92,10.02,1
4264,62.85,72.52,13.89,1
4265,62.87,61.67,13.94,1
4266,62.88,68.12,-7.43,1
4267,62.89,49.25,15.09,1
4268,62.9,45.32,1.86,1
4269,62.92,39.07,0.2,1
4270,62.93,39.35,-8.72,1
4271,62.95,34.39,-14.1,1
4272,62.96,10.18,-13.75,1
4273,62.97,13.96,2.93,1
4274,62.99,19.32,-1.21,1
4275,63.0,0.95,-8.49,1
4276,63.01,10.75,2.25,1
4277,63.03,-10.04,-21.61,1
4278,63.04,-6.51,-6.67,1
4279,63.05,-15.07,-0.5,1
4280,63.06,-16.89,-13.29,1
4281,63.08,-12.93,4.93,1
4282,63.09,-22.48,-1.37,1
4283,63.11,-17.76,13.8,1
4284,63.12,-26.98,22.24,1
4285,63.13,-16.66,28.94,1
4286,63.14,-35.81,7.91,1
4287,63.16,-31.24,11.96,1
4288,63.17,-31.56,-1.2,1
4289,63.18,-38.32,11.4,1
4290,63.2,-35.42,24.26,1
4291,63.21,-44.12,32.92,1
4292,63.22,-21.65,-13.91,1
4293,63.24,-20.65,4.42,1
4294,63.25,-42.81,5.48,1
4295,63.27,-36.27,8.39,1
4296,63.28,-32.77,-6.12,1
4297,63.29,-39.44,-1.42,1
4298,63.31,-33.87,-19.54,1
4299,63.32,-22.66,-12.21,1
4300,63.33,-18.38,7.95,1
4301,63.35,-37.26,-9.26,1
4302,63.36,-21.5,-3.99,1
4303,63.37,-21.76,7.3,1
4304,63.38,-15.34,16.7,1
4305,63.4,-21.37,12.32,1
4306,63.41,1.92,9.8,1
4307,63.43,-16.16,2.9,1
4308,63.44,-7.37,-11.27,1
4309,63.45,-15.0,-2.16,1
4310,63.47,-13.29,-13.54,1
4311,63.48,-2.03,-0.26,1
4312,63.49,-0.95,-4.79,1
4313,63.51,-2.7,5.31,1
4314,63.52,1.8,1.66,1
4315,63.53,2.74,16.99,1
4316,63.54,4.82,-24.09,1
4317,63.56,10.96,-29.12,1
4318,63.57,-5.35,-20.42,1
4319,63.59,-6.15,-16.07,1
4320,63.6,20.56,-18.51,1
4321,63.61,7.45,-15.7,1
4322,63.63,17.28,-4.78,1
4323,63.64,8.76,5.68,1
4324,63.65,6.7,-3.32,1
4325,63.67,10.61,-2.71,1
4326,63.68,21.81,-1.37,1
4327,63.69,-0.84,-6.96,1
4328,63.71,21.05,-4.04,1
4329,63.72,9.03,-1.48,1
4330,63.73,-1.8,0.95,1
4331,63.75,13.3,-13.62,1
4332,63.76,12.02,-25.07,1
4333,63.77,3.65,-3.42,1
4334,63.78,16.52,-3.03,1
4335,63.8,20.09,5.04,1
4336,63.81,14.89,6.51,1
4337,63.82,9.08,16.6,1
4338,63.84,7.63,10.0,1
4339,63.85,4.47,1.7,1
4340,63.86,-7.05,0.41,1
4341,63.88,-4.68,12.42,1
4342,63.89,2.03,6.09,1
4343,63.9,17.6,0.78,1
4344,63.92,19.49,19.62,1
4345,63.93,10.77,10.13,1
4346,63.95,-3.54,-0.86,1
4347,63.96,7.42,-0.74,1
4348,63.97,7.67,4.55,1
4349,63.99,-17.97,20.59,1
4350,64.0,-14.92,13.81,1
4351,64.01,-1.43,8.6,1
4352,64.02,13.64,6.31,1
4353,64.04,-8.86,17.55,1
4354,64.05,7.4,19.61,1
4355,64.06,1.58,-14.05,1
4356,64.08,3.52,-12.45,1
4357,64.09,-17.23,-19.09,1
4358,64.11,-8.3,-5.43,1
4359,64.12,7.43,24.48,1
4360,64.13,-15.63,64.94,1
4361,64.14,11.34,58.4,1
4362,64.16,-1.32,85.9,1
4363,64.17,6.59,99.07,1
4364,64.18,18.72,409.12,1
4365,64.2,31.58,182.89,1
4366,64.21,95.38,-13.09,1
4367,64.22,-40.14,-174.37,1
4368,64.24,78.0,270.7,1
4369,64.25,105.12,52.23,1
4370,64.26,65.0,86.78,1
4371,64.28,-204.82,2.9,1
4372,64.29,-10.24,-18.83,1
4373,64.3,173.78,-96.68,1
4374,64.32,250.34,-244.73,1
4375,64.33,168.7,-306.91,1
4376,64.34,66.86,-549.7,1
4377,64.36,105.89,-286.32,1
4378,64.37,-129.55,-188.14,1
4379,64.38,18.14,-63.55,1
4380,64.4,-97.26,-137.08,1
4381,64.41,-175.37,5.54,1
4382,64.42,-341.9,89.35,1
4383,64.44,-106.02,-45.52,1
4384,64.45,-247.63,-277.17,1
4385,64.46,-12.23,-48.92,1
4386,64.48,-212.98,-19.43,1
4387,64.49,-172.56,-301.17,1
4388,64.5,-267.47,252.33,1
4389,64.52,-84.05,-85.11,1
4390,64.53,-139.71,97.03,1
4391,64.54,-22.81,-163.92,1
4392,64.56,132.24,-97.56,1
4393,64.57,-107.93,-438.35,1
4394,64.58,205.46,-115.57,1
4395,64.6,-23.69,311.27,1
4396,64.61,50.1,-57.8,1
4397,64.62,51.37,-80.87,1
4398,64.64,83.4,467.39,1
4399,64.65,-86.67,77.79,1
4400,64.66,268.04,282.73,1
4401,64.68,-225.11,229.29,1
4402,64.69,26.76,79.21,1
4403,64.7,47.88,20.06,1
4404,64.72,311.82,-28.16,1
4405,64.73,-215.23,174.57,1
4406,64.75,106.2,220.55,1
4407,64.76,-31.72,5.3,1
4408,64.77,193.04,-7.43,1
4409,64.79,53.58,574.93,1
4410,64.8,222.69,270.35,1
4411,64.81,-234.96,-37.28,1
4412,64.82,237.41,94.27,1
4413,64.84,-266.87,348.16,1
4414,64.85,13.14,-253.21,1
4415,64.86,246.66,30.83,1
4416,64.88,102.07,0.71,1
4417,64.89,-251.75,257.21,1
4418,64.9,35.67,93.14,1
4419,64.92,193.13,275.44,1
4420,64.93,-64.41,-202.48,1
4421,64.94,56.15,-277.66,1
4422,64.96,192.01,0.88,1
4423,64.97,210.12,-192.92,1
4424,64.98,40.06,-184.9,1
4425,65.0,14.91,-293.55,1
4426,65.01,71.07,-145.03,1
4427,65.02,26.99,107.6,1
4428,65.04,14.78,221.94,1
4429,65.05,-56.13,193.02,1
4430,65.06,-130.71,30.07,1
4431,65.08,-215.81,-114.74,1
4432,65.09,-151.12,-158.4,1
4433,65.1,-86.67,-120.9,1
4434,65.12,-1.11,-88.33,1
4435,65.13,68.34,-73.62,1
4436,65.14,108.59,-44.27,1
4437,65.16,100.26,11.53,1
4438,65.17,121.74,72.28,1
4439,65.18,125.95,103.3,1
4440,65.2,104.15,52.0,1
4441,65.21,74.54,61.85,1
4442,65.22,91.67,67.88,1
4443,65.24,42.28,1.88,1
4444,65.25,43.83,35.99,1
4445,65.26,18.0,-7.08,1
4446,65.28,21.73,8.52,1
4447,65.29,-11.53,-27.1,1
4448,65.3,4.21,13.2,1
4449,65.32,-37.07,-59.45,1
4450,65.33,-44.96,-8.95,1
4451,65.34,-39.87,-46.47,1
4452,65.36,-59.56,-27.21,1
4453,65.37,-68.46,-31.34,1
4454,65.38,-81.45,-50.75,1
4455,65.4,-90.08,-28.38,1
4456,65.41,-70.31,-31.79,1
4457,65.43,-54.9,-39.33,1
4458,65.44,-70.07,-38.92,1
4459,65.45,-70.82,-49.8,1
4460,65.46,-86.11,-59.3,1
4461,65.48,-82.29,-67.1,1
4462,65.49,-89.71,-67.71,1
4463,65.5,-97.4,-77.07,1
4464,65.52,-77.28,-82.11,1
4465,65.53,-69.73,-62.2,1
4466,65.54,-59.05,-57.7,1
4467,65.56,-59.8,-60.32,1
4468,65.57,-59.66,-37.28,1
4469,65.58,-45.67,-33.95,1
4470,65.6,-47.92,-23.21,1
4471,65.61,-43.77,-23.99,1
4472,65.62,-15.88,-18.1,1
4473,65.64,-29.72,-18.1,1
4474,65.65,-20.75,-34.71,1
4475,65.66,-15.42,-22.48,1
4476,65.68,-2.43,-6.97,1
4477,65.69,-14.7,-13.21,1
4478,65.7,1.63,-5.46,1
4479,65.72,4.98,-10.39,1
4480,65.73,11.47,-2.3,1
4481,65.74,17.05,12.94,1
4482,65.76,28.27,8.09,1
4483,65.77,10.45,4.73,1
4484,65.78,29.71,26.26,1
4485,65.8,37.17,38.38,1
4486,65.81,42.02,44.28,1
4487,65.82,30.42,39.63,1
4488,65.84,22.57,38.74,1
4489,65.85,30.77,37.77,1
4490,65.86,35.39,48.98,1
4491,65.88,45.29,45.29,1
4492,65.89,47.07,48.55,1
4493,65.9,34.58,32.51,1
4494,65.92,45.12,36.3,1
4495,65.93,33.54,35.17,1
4496,65.94,22.44,48.98,1
4497,65.96,43.29,55.21,1
4498,65.97,38.69,22.52,1
4499,65.98,34.56,28.47,1
4500,66.0,34.33,30.17,1
4501,66.01,27.63,25.51,1
4502,66.02,48.26,23.64,1
4503,66.04,27.27,50.39,1
4504,66.05,25.58,37.18,1
4505,66.06,28.86,35.14,1
4506,66.08,9.72,23.28,1
4507,66.09,0.94,17.39,1
4508,66.11,20.97,19.86,1
4509,66.12,5.54,2.27,1
4510,66.13,16.13,16.36,1
4511,66.14,20.65,24.22,1
4512,66.16,20.8,-9.8,2
4513,66.17,12.75,2.01,2
4514,66.18,15.87,19.1,2
4515,66.2,9.44,-21.96,2
4516,66.21,3.95,-13.01,2
4517,66.22,5.0,-11.91,2
4518,66.24,1.58,8.0,2
4519,66.25,-6.9,-30.51,2
4520,66.26,-21.72,-41.84,2
4521,66.28,-6.45,-61.01,2
4522,66.29,4.29,-49.47,2
4523,66.3,-19.63,-9.32,2
4524,66.32,-15.18,-22.55,2
4525,66.33,-6.63,-5.39,2
4526,66.34,64.17,25.41,2
4527,66.36,116.78,14.33,2
4528,66.37,120.55,29.37,2
4529,66.38,96.65,-2.9,2
4530,66.4,62.31,17.97,2
4531,66.41,21.89,36.13,2
4532,66.42,-1.41,30.21,2
4533,66.44,-36.67,28.14,2
4534,66.45,-73.12,41.14,2
4535,66.46,-74.5,24.22,2
4536,66.48,-106.2,28.96,2
4537,66.49,-111.62,-14.77,2
4538,66.5,-109.76,-19.52,2
4539,66.52,-120.94,-24.47,2
4540,66.53,-102.38,-39.81,2
4541,66.54,-95.14,-45.33,2
4542,66.56,-100.86,-50.9,1
4543,66.57,-107.63,-55.76,1
4544,66.58,-85.84,-37.08,1
4545,66.6,-76.62,-26.38,1
4546,66.61,-68.07,-36.23,1
4547,66.62,-47.68,-33.88,1
4548,66.64,-34.72,-19.37,1
4549,66.65,-21.41,-15.62,1
4550,66.66,-28.65,-15.42,1
4551,66.68,-14.0,-12.74,1
4552,66.69,-11.69,3.38,1
4553,66.7,6.19,0.11,1
4554,66.72,20.34,4.13,1
4555,66.73,22.26,-1.39,1
4556,66.75,38.69,-8.67,1
4557,66.76,42.66,1.62,1
4558,66.77,49.24,-11.77,1
4559,66.79,67.11,-12.08,1
4560,66.8,64.29,-12.97,1
4561,66.81,52.51,2.46,1
4562,66.82,56.03,-0.68,1
4563,66.84,57.47,-14.5,1
4564,66.85,65.3,18.44,1
4565,66.86,49.32,17.62,1
4566,66.88,63.7,10.5,1
4567,66.89,54.58,22.02,1
4568,66.9,56.35,19.6,1
4569,66.92,44.39,-0.29,1
4570,66.93,40.91,9.13,1
4571,66.94,56.37,-17.04,1
4572,66.96,48.15,11.94,1
4573,66.97,62.43,1.82,1
4574,66.98,23.14,-6.9,1
4575,67.0,29.36,0.71,1
4576,67.01,13.17,5.93,1
4577,67.02,2.95,-1.46,1
4578,67.04,15.54,11.8,1
4579,67.05,8.16,18.08,1
4580,67.06,2.51,9.5,1
4581,67.08,10.04,16.56,1
4582,67.09,1.84,1.19,1
4583,67.1,-2.5,28.79,1
4584,67.12,-12.77,9.46,1
4585,67.13,-11.59,-8.01,1
4586,67.14,-19.24,-3.98,1
4587,67.16,-6.59,10.78,1
4588,67.17,-15.5,20.94,1
4589,67.18,-25.29,5.18,1
4590,67.2,-21.08,-7.49,1
4591,67.21,-24.58,16.08,1
4592,67.22,-13.16,-1.13,1
4593,67.24,-20.6,10.46,1
4594,67.25,-12.01,-8.16,1
4595,67.26,-18.78,12.35,1
4596,67.28,-17.79,13.03,1
4597,67.29,-30.08,-16.03,1
4598,67.3,-22.09,18.2,1
4599,67.32,-17.87,6.82,1
4600,67.33,-22.6,-3.05,1
4601,67.34,-26.62,-4.69,1
4602,67.36,-22.78,20.69,1
4603,67.37,-18.97,9.42,1
4604,67.38,-12.52,4.43,1
4605,67.4,-12.0,-11.93,1
4606,67.41,-15.06,-3.54,1
4607,67.43,-22.86,-1.67,1
4608,67.44,-7.03,-5.25,1
4609,67.45,-6.6,-6.32,1
4610,67.46,-0.04,14.85,1
4611,67.48,-0.03,-14.44,1
4612,67.49,-3.62,-12.37,1
4613,67.5,-10.01,-12.42,1
4614,67.52,-5.69,-5.46,1
4615,67.53,-19.16,-3.83,1
4616,67.54,-6.87,-2.09,1
4617,67.56,-15.07,-6.35,1
4618,67.57,-17.04,-11.2,1
4619,67.58,-4.14,11.74,1
4620,67.6,-9.8,1.13,1
4621,67.61,-10.35,11.86,1
4622,67.62,15.1,-12.24,1
4623,67.64,9.97,-6.74,1
4624,67.65,-6.46,-5.39,1
4625,67.66,14.98,-13.3,1
4626,67.68,18.27,-14.42,1
4627,67.69,5.32,2.77,1
4628,67.7,10.62,-8.15,1
4629,67.72,8.11,-0.79,1
4630,67.73,-0.61,5.17,1
4631,67.74,-8.35,-0.6,1
4632,67.76,-7.24,-5.2,1
4633,67.77,20.82,0.82,1
4634,67.79,0.13,-13.2,1
4635,67.8,10.7,-18.34,1
4636,67.81,5.27,-5.57,1
4637,67.82,18.1,-6.81,1
4638,67.84,7.48,6.61,1
4639,67.85,8.69,-9.42,1
4640,67.86,12.54,-8.37,1
4641,67.88,14.44,-6.05,1
4642,67.89,-3.82,0.49,1
4643,67.9,1.12,-2.14,1
4644,67.92,-3.01,4.68,1
4645,67.93,13.31,6.57,1
4646,67.94,-3.68,4.18,1
4647,67.96,9.45,3.45,1
4648,67.97,9.69,-1.33,1
4649,67.98,12.49,1.63,1
4650,68.0,4.32,2.79,1
4651,68.01,4.65,11.22,1
4652,68.02,2.02,15.77,1
4653,68.04,-11.78,-11.2,1
4654,68.05,11.18,-0.65,1
4655,68.06,-0.54,-1.62,1
4656,68.08,10.9,14.23,1
4657,68.09,-28.18,3.92,1
4658,68.11,-11.43,12.07,1
4659,68.12,-17.21,-3.74,1
4660,68.13,15.85,8.82,1
4661,68.14,-19.63,22.93,1
4662,68.16,13.26,0.35,0
4663,68.17,-6.61,0.68,0
4664,68.18,12.93,4.98,0
4665,68.2,17.32,-16.24,0
4666,68.21,-0.07,-10.26,0
4667,68.22,13.3,1.16,0
4668,68.24,13.43,-8.81,0
4669,68.25,-6.65,23.1,0
4670,68.26,3.42,24.25,0
4671,68.28,11.49,15.6,0
4672,68.29,44.0,9.89,0
4673,68.3,-52.92,14.13,0
4674,68.32,-77.43,-4.31,0
4675,68.33,-135.73,-14.32,0
4676,68.34,-149.18,-14.33,0
4677,68.36,-143.43,-30.9,0
4678,68.37,-142.83,-39.43,0
4679,68.38,-119.33,-20.02,0
4680,68.4,-78.25,-2.11,0
4681,68.41,-32.26,-3.72,0
4682,68.42,8.17,16.13,0
4683,68.44,81.36,31.23,0
4684,68.45,143.28,31.55,0
4685,68.46,174.51,15.61,0
4686,68.48,202.44,5.29,0
4687,68.49,198.84,9.06,0
4688,68.5,207.71,14.34,0
4689,68.52,167.86,-8.75,0
4690,68.53,154.2,-5.37,0
4691,68.54,125.87,2.52,0
4692,68.56,103.82,-23.25,1
4693,68.57,72.1,-13.61,1
4694,68.58,41.3,-12.39,1
4695,68.6,-26.76,-18.81,1
4696,68.61,-33.96,-14.12,1
4697,68.62,-7.81,-13.51,1
4698,68.64,-4.97,-5.95,1
4699,68.65,-10.43,-1.72,1
4700,68.66,-24.94,-2.38,1
4701,68.68,-42.9,8.04,1
4702,68.69,-35.01,6.09,1
4703,68.7,-52.45,2.48,1
4704,68.72,-36.83,3.2,1
4705,68.73,-54.39,10.55,1
4706,68.75,-59.48,12.57,1
4707,68.76,-63.69,13.9,1
4708,68.77,-69.24,10.94,1
4709,68.79,-62.97,9.24,1
4710,68.8,-65.06,22.55,1
4711,68.81,-52.54,3.2,1
4712,68.82,-66.57,13.5,1
4713,68.84,-67.84,5.05,1
4714,68.85,-49.95,-3.92,1
4715,68.86,-59.07,-14.73,1
4716,68.88,-48.92,3.86,1
4717,68.89,-47.08,-8.46,1
4718,68.9,-42.95,-2.14,1
4719,68.92,-51.94,7.38,1
4720,68.93,-37.78,14.7,1
4721,68.94,-43.05,3.88,1
4722,68.96,-41.91,-8.9,1
4723,68.97,-25.33,-13.19,1
4724,68.98,-21.81,-13.9,1
4725,69.0,-1.57,-21.76,1
4726,69.01,2.55,-12.85,1
4727,69.02,-1.7,-23.81,1
4728,69.04,2.31,-25.82,1
4729,69.05,-3.37,-21.07,1
4730,69.06,6.8,0.23,1
4731,69.08,13.56,-1.98,1
4732,69.09,13.08,-15.18,1
4733,69.11,31.77,-18.54,1
4734,69.12,25.41,-2.25,1
4735,69.13,11.78,0.31,1
4736,69.14,2.56,11.24,1
4737,69.16,17.38,17.78,1
4738,69.17,16.71,4.79,1
4739,69.18,11.7,-2.09,1
4740,69.2,31.32,-2.09,1
4741,69.21,26.28,14.34,1
4742,69.22,24.46,9.98,1
4743,69.24,18.0,2.84,1
4744,69.25,14.76,1.83,1
4745,69.26,26.39,-5.77,1
4746,69.28,32.25,7.4,1
4747,69.29,32.01,-3.91,1
4748,69.3,17.24,-3.7,1
4749,69.32,32.4,13.87,1
4750,69.33,23.9,4.11,1
4751,69.34,14.73,16.95,1
4752,69.36,17.27,11.73,1
4753,69.37,16.38,10.34,1
4754,69.38,6.61,10.94,1
4755,69.4,22.21,8.95,1
4756,69.41,7.9,11.06,1
4757,69.43,24.33,-2.29,1
4758,69.44,22.86,2.69,1
4759,69.45,13.92,-5.59,1
4760,69.46,16.12,13.49,1
4761,69.48,10.93,1.9,1
4762,69.49,6.4,2.44,1
4763,69.5,5.02,-13.39,1
4764,69.52,-12.44,4.47,1
4765,69.53,4.2,-8.24,1
4766,69.54,-1.4,-5.31,1
4767,69.56,1.61,4.28,1
4768,69.57,16.82,-2.28,1
4769,69.58,9.04,-8.5,1
4770,69.6,-0.06,4.85,1
4771,69.61,-7.64,-0.08,1
4772,69.62,-6.59,25.19,1
4773,69.64,-6.41,1.57,1
4774,69.65,-7.65,3.73,1
4775,69.66,-4.42,-19.61,1
4776,69.68,-3.73,9.48,1
4777,69.69,1.69,-9.76,1
4778,69.7,-2.43,1.38,1
4779,69.72,-1.18,-4.78,1
4780,69.73,-0.99,2.45,1
4781,69.75,-12.76,-6.91,1
4782,69.76,-3.19,-2.36,1
4783,69.77,-5.2,-11.9,1
4784,69.79,-10.89,-1.96,1
4785,69.8,-11.61,4.12,1
4786,69.81,-21.09,-9.34,1
4787,69.82,-15.81,-5.33,1
4788,69.84,-11.82,-4.27,1
4789,69.85,-8.9,3.1,1
4790,69.86,-14.85,-1.18,1
4791,69.88,-13.8,-21.65,1
4792,69.89,-8.0,-18.52,1
4793,69.9,-11.07,-10.53,1
4794,69.92,-1.83,-6.59,1
4795,69.93,-7.31,-12.08,1
4796,69.94,-7.41,0.72,1
4797,69.96,-13.23,-1.77,1
4798,69.97,-6.59,-4.5,1
4799,69.98,2.18,7.02,1
4800,70.0,-3.92,21.5,1
4801,70.01,2.9,10.82,1
4802,70.02,-2.73,10.8,1
4803,70.04,-0.02,17.15,1
4804,70.05,-6.4,9.33,1
4805,70.06,-8.03,13.77,1
4806,70.08,4.22,9.52,1
4807,70.09,-17.62,-2.37,1
4808,70.11,-13.88,5.0,1
4809,70.12,-2.51,-1.58,1
4810,70.13,-5.18,-9.06,1
4811,70.14,13.02,-0.97,1
4812,70.16,16.74,3.09,0
4813,70.17,0.85,-2.84,0
4814,70.18,28.42,3.15,0
4815,70.2,19.9,10.11,0
4816,70.21,6.18,9.36,0
4817,70.22,7.03,-6.97,0
4818,70.24,6.78,-14.16,0
4819,70.25,7.18,7.36,0
4820,70.26,-6.69,11.09,0
4821,70.28,-3.13,9.72,0
4822,70.29,12.52,-21.42,0
4823,70.3,-1.87,-14.89,0
4824,70.32,-1.41,-13.74,0
4825,70.33,0.01,-13.85,0
4826,70.34,-33.62,-7.76,0
4827,70.36,-74.98,-10.08,0
