,Timestamp,Data1,Data2,Label
0,6.0,3.85,-9.1,1
1,6.01,-5.71,-0.01,1
2,6.03,-20.51,21.66,1
3,6.04,-5.44,-1.91,1
4,6.05,-1.57,-2.39,1
5,6.07,-13.27,10.93,1
6,6.08,6.2,10.26,1
7,6.09,6.1,-2.6,1
8,6.11,1.27,-10.58,1
9,6.12,8.48,10.3,1
10,6.13,13.58,8.06,1
11,6.15,3.52,10.74,2
12,6.16,22.89,12.1,2
13,6.17,51.4,-5.0,2
14,6.19,113.71,-18.55,2
15,6.2,130.93,-12.47,2
16,6.21,128.92,2.12,2
17,6.23,125.29,8.43,2
18,6.24,92.02,0.32,2
19,6.25,40.59,-34.93,2
20,6.27,1.47,-53.85,2
21,6.28,-73.94,-65.95,2
22,6.29,-99.37,-58.55,2
23,6.31,-110.07,-32.8,2
24,6.32,-116.4,-23.09,2
25,6.33,-125.27,5.92,2
26,6.35,-132.34,42.01,2
27,6.36,-133.75,42.96,2
28,6.37,-102.19,65.13,2
29,6.39,-89.77,47.69,2
30,6.4,-88.71,31.83,2
31,6.41,-77.5,40.05,2
32,6.43,-60.22,42.61,2
33,6.44,-42.78,39.12,2
34,6.45,-43.54,29.38,2
35,6.47,-41.76,30.23,2
36,6.48,-22.2,31.2,2
37,6.49,-10.63,33.75,2
38,6.51,-10.61,-6.23,2
39,6.52,14.62,18.24,2
40,6.53,2.13,20.69,2
41,6.55,17.69,2.77,2
42,6.56,32.42,-6.73,1
43,6.57,52.23,16.03,1
44,6.59,59.03,1.85,1
45,6.6,72.93,-0.35,1
46,6.61,66.8,-5.57,1
47,6.63,50.09,-11.56,1
48,6.64,51.49,-26.37,1
49,6.65,59.24,-22.0,1
50,6.67,45.29,-5.27,1
51,6.68,56.98,-17.19,1
52,6.69,45.74,-26.53,1
53,6.71,50.37,-37.33,1
54,6.72,68.29,-34.49,1
55,6.73,43.92,-43.54,1
56,6.75,54.31,-31.59,1
57,6.76,43.61,-36.35,1
58,6.77,30.81,-26.59,1
59,6.79,29.82,-31.95,1
60,6.8,32.93,-30.7,1
61,6.81,24.08,-42.82,1
62,6.83,14.55,-22.32,1
63,6.84,24.26,-6.67,1
64,6.85,17.98,-13.84,1
65,6.87,15.2,-6.64,1
66,6.88,7.9,-7.84,1
67,6.89,-8.02,3.0,1
68,6.91,0.76,-28.06,1
69,6.92,6.6,-6.52,1
70,6.93,-4.11,2.09,1
71,6.95,-5.3,0.28,1
72,6.96,-3.85,4.58,1
73,6.97,-25.81,17.99,1
74,6.99,-9.9,22.06,1
75,7.0,-25.14,33.23,1
76,7.01,-32.59,8.65,1
77,7.03,-14.54,15.96,1
78,7.04,2.19,19.88,1
79,7.05,-0.69,15.67,1
80,7.07,-26.45,24.51,1
81,7.08,-21.51,7.72,1
82,7.09,-18.9,0.46,1
83,7.11,-16.5,25.7,1
84,7.12,-19.78,-1.25,1
85,7.13,-20.63,21.31,1
86,7.15,-26.16,-0.18,1
87,7.16,-24.23,-8.74,1
88,7.17,-19.88,6.09,1
89,7.19,-30.89,-3.9,1
90,7.2,-39.54,11.08,1
91,7.21,-26.46,19.62,1
92,7.23,-29.25,-5.56,1
93,7.24,-27.87,13.73,1
94,7.25,-9.16,21.84,1
95,7.27,-9.59,6.32,1
96,7.28,-12.65,21.54,1
97,7.29,-27.7,13.37,1
98,7.31,-17.23,15.26,1
99,7.32,-6.71,17.22,1
100,7.33,-10.35,20.96,1
101,7.35,-3.45,15.94,1
102,7.36,-3.27,18.21,1
103,7.37,5.38,3.19,1
104,7.39,-0.15,11.15,1
105,7.4,-2.54,-20.95,1
106,7.41,1.43,-4.35,1
107,7.43,1.56,1.78,1
108,7.44,-7.92,-7.21,1
109,7.45,5.83,-2.84,1
110,7.47,10.15,-3.92,1
111,7.48,6.66,0.53,1
112,7.49,7.93,-5.09,1
113,7.51,-0.22,-1.65,1
114,7.52,17.19,6.64,1
115,7.53,9.49,-1.4,1
116,7.55,-4.37,-4.59,1
117,7.56,1.87,-8.24,1
118,7.57,11.65,-9.55,1
119,7.59,12.92,3.79,1
120,7.6,12.98,0.07,1
121,7.61,6.38,-16.66,1
122,7.63,26.64,-19.17,1
123,7.64,4.59,-10.86,1
124,7.65,18.89,-24.5,1
125,7.67,-6.15,-15.45,1
126,7.68,2.78,-12.9,1
127,7.69,7.9,-9.81,1
128,7.71,-2.03,-19.84,1
129,7.72,5.61,-10.64,1
130,7.73,9.63,-5.85,1
131,7.75,-2.52,-12.49,1
132,7.76,21.68,-11.01,1
133,7.77,15.63,-2.83,1
134,7.79,2.99,8.31,1
135,7.8,9.52,-7.77,1
136,7.81,5.98,-9.05,1
137,7.83,-8.68,6.46,1
138,7.84,-1.34,-9.91,1
139,7.85,-4.44,-5.41,1
140,7.87,6.02,13.1,1
141,7.88,1.94,-2.24,1
142,7.89,4.76,-0.63,1
143,7.91,13.13,10.62,1
144,7.92,5.79,6.57,1
145,7.93,-3.54,3.58,1
146,7.95,-3.68,-11.6,1
147,7.96,0.15,-11.04,1
148,7.97,1.3,-19.64,1
149,7.99,-16.01,-18.3,1
150,8.0,-7.87,15.27,1
151,8.01,-4.67,6.57,1
152,8.03,13.95,3.28,1
153,8.04,-7.52,-10.37,1
154,8.05,7.35,30.99,1
155,8.07,8.25,8.68,1
156,8.08,-7.78,1.27,1
157,8.09,4.76,-13.98,1
158,8.11,-10.28,15.21,1
159,8.12,-5.29,8.81,1
160,8.13,15.5,2.47,1
161,8.15,-11.06,12.38,0
162,8.16,2.04,26.34,0
163,8.17,-5.93,16.23,0
164,8.19,3.76,17.7,0
165,8.2,-16.15,29.88,0
166,8.21,-65.09,-20.96,0
167,8.23,-102.82,2.42,0
168,8.24,-115.01,4.71,0
169,8.25,-140.9,4.27,0
170,8.27,-114.42,9.55,0
171,8.28,-107.88,-6.12,0
172,8.29,-71.4,-17.85,0
173,8.31,-46.72,-19.43,0
174,8.32,-7.88,-25.24,0
175,8.33,32.36,-35.36,0
176,8.35,83.51,-18.26,0
177,8.36,149.43,-16.75,0
178,8.37,187.7,-4.71,0
179,8.39,188.94,16.87,0
180,8.4,187.03,13.4,0
181,8.41,179.1,9.86,0
182,8.43,153.24,18.77,0
183,8.44,140.78,6.26,0
184,8.45,106.56,14.99,0
185,8.47,92.07,15.95,0
186,8.48,59.04,14.88,0
187,8.49,31.97,47.53,0
188,8.51,-6.32,52.33,0
189,8.52,-20.65,35.34,0
190,8.53,-28.95,22.71,0
191,8.55,-40.71,8.14,1
192,8.56,-43.18,14.33,1
193,8.57,-41.82,-13.53,1
194,8.59,-49.56,-19.96,1
195,8.6,-41.48,-22.71,1
196,8.61,-42.76,-18.45,1
197,8.63,-58.69,-27.68,1
198,8.64,-53.65,-24.83,1
199,8.65,-60.79,-9.96,1
200,8.67,-59.1,-38.6,1
201,8.68,-48.92,-19.91,1
202,8.69,-54.3,-39.08,1
203,8.71,-57.61,-16.36,1
204,8.72,-60.42,-9.02,1
205,8.73,-47.67,-1.85,1
206,8.75,-57.23,6.72,1
207,8.76,-50.88,0.93,1
208,8.77,-36.54,-8.21,1
209,8.79,-36.23,-6.9,1
210,8.8,-45.47,6.96,1
211,8.81,-35.72,8.26,1
212,8.83,-40.23,-0.69,1
213,8.84,-25.72,-0.49,1
214,8.85,-20.68,0.28,1
215,8.87,-32.9,-9.44,1
216,8.88,-18.14,13.91,1
217,8.89,-18.29,9.14,1
218,8.91,-8.69,14.26,1
219,8.92,-11.83,-3.18,1
220,8.93,-18.44,-1.09,1
221,8.95,-1.26,-11.75,1
222,8.96,-4.14,1.63,1
223,8.97,1.97,-0.52,1
224,8.99,9.73,-7.23,1
225,9.0,10.93,2.81,1
226,9.01,7.71,16.49,1
227,9.03,26.9,19.95,1
228,9.04,17.87,19.8,1
229,9.05,15.89,-0.57,1
230,9.07,16.42,11.83,1
231,9.08,30.95,-14.62,1
232,9.09,41.42,3.36,1
233,9.11,33.45,-12.37,1
234,9.12,33.98,-10.91,1
235,9.13,20.91,1.1,1
236,9.15,20.37,-7.6,1
237,9.16,17.15,2.92,1
238,9.17,12.68,3.21,1
239,9.19,32.9,-2.0,1
240,9.2,14.33,-16.95,1
241,9.21,15.18,4.24,1
242,9.23,28.45,-21.43,1
243,9.24,9.51,-7.59,1
244,9.25,9.27,-11.92,1
245,9.27,21.39,-5.06,1
246,9.28,19.03,10.51,1
247,9.29,21.5,-1.41,1
248,9.31,16.41,8.32,1
249,9.32,12.55,6.28,1
250,9.33,10.31,3.51,1
251,9.35,13.16,-0.57,1
252,9.36,15.34,13.49,1
253,9.37,23.48,10.93,1
254,9.39,15.87,-0.96,1
255,9.4,-0.31,8.17,1
256,9.41,13.54,2.1,1
257,9.43,0.9,21.55,1
258,9.44,-3.56,9.78,1
259,9.45,14.4,11.42,1
260,9.47,8.87,3.41,1
261,9.48,0.02,-0.46,1
262,9.49,0.16,-5.71,1
263,9.51,-10.51,12.16,1
264,9.52,0.54,8.44,1
265,9.53,1.44,0.82,1
266,9.55,-9.35,14.53,1
267,9.56,-12.88,0.08,1
268,9.57,-1.64,-14.56,1
269,9.59,-9.18,0.66,1
270,9.6,-12.1,-0.26,1
271,9.61,-25.29,-0.24,1
272,9.63,-14.29,-2.33,1
273,9.64,-11.55,6.5,1
274,9.65,-1.32,3.92,1
275,9.67,-20.78,2.84,1
276,9.68,-1.38,-4.9,1
277,9.69,-5.1,-9.87,1
278,9.71,-5.72,-14.24,1
279,9.72,-13.46,-10.49,1
280,9.73,-2.02,-14.48,1
281,9.75,-0.96,1.76,1
282,9.76,-14.93,1.15,1
283,9.77,-12.11,1.85,1
284,9.79,-8.93,-6.59,1
285,9.8,-3.11,-7.08,1
286,9.81,-1.84,-8.77,1
287,9.83,0.55,-10.53,1
288,9.84,-3.39,-9.56,1
289,9.85,6.16,4.83,1
290,9.87,-10.64,-6.82,1
291,9.88,-10.07,-4.09,1
292,9.89,-1.6,11.74,1
293,9.91,-4.72,5.32,1
294,9.92,-14.47,-6.57,1
295,9.93,-2.44,-9.12,1
296,9.95,-7.98,1.15,1
297,9.96,-1.75,-8.48,1
298,9.97,9.27,-3.21,1
299,9.99,2.98,3.13,1
300,10.0,-4.45,0.31,1
301,10.01,-10.24,-4.19,1
302,10.03,-11.92,10.3,1
303,10.04,-1.93,-12.38,1
304,10.05,13.39,7.7,1
305,10.07,0.55,10.22,1
306,10.08,4.65,-1.96,1
307,10.09,9.07,-6.29,1
308,10.11,5.04,15.19,1
309,10.12,3.17,11.78,1
310,10.13,-10.09,-7.56,1
311,10.15,-9.47,-1.48,0
312,10.16,14.21,-6.78,0
313,10.17,7.43,12.11,0
314,10.19,-3.0,-3.36,0
315,10.2,18.51,0.49,0
316,10.21,24.82,10.59,0
317,10.23,-49.89,-2.28,0
318,10.24,-111.24,4.83,0
319,10.25,-139.43,57.0,0
320,10.27,-119.61,-50.85,0
321,10.28,-102.01,-21.97,0
322,10.29,-55.88,-25.44,0
323,10.31,-11.97,-20.3,0
324,10.32,25.24,-10.16,0
325,10.33,66.22,-20.19,0
326,10.35,82.84,2.85,0
327,10.36,94.62,23.38,0
328,10.37,92.56,31.56,0
329,10.39,98.76,34.25,0
330,10.4,98.85,30.67,0
331,10.41,93.86,29.44,0
332,10.43,112.22,22.18,0
333,10.44,73.33,33.32,0
334,10.45,85.6,-21.07,0
335,10.47,63.99,2.97,0
336,10.48,60.26,27.15,0
337,10.49,37.29,-1.07,0
338,10.51,38.29,-2.11,0
339,10.52,46.69,3.19,0
340,10.53,21.03,-8.27,0
341,10.55,13.85,-11.67,1
342,10.56,-4.31,-3.71,1
343,10.57,8.29,-17.35,1
344,10.59,-18.41,-5.84,1
345,10.6,-15.07,-19.02,1
346,10.61,-28.54,-35.3,1
347,10.63,-41.5,-13.09,1
348,10.64,-48.83,16.52,1
349,10.65,-46.07,-3.7,1
350,10.67,-58.49,12.64,1
351,10.68,-45.97,13.67,1
352,10.69,-52.99,-13.55,1
353,10.71,-65.22,0.01,1
354,10.72,-55.25,-18.66,1
355,10.73,-51.52,1.47,1
356,10.75,-34.43,3.48,1
357,10.76,-49.87,-13.4,1
358,10.77,-33.04,-15.02,1
359,10.79,-37.91,-22.8,1
360,10.8,-22.39,8.82,1
361,10.81,-32.11,-12.84,1
362,10.83,-38.2,-15.56,1
363,10.84,-30.62,-3.01,1
364,10.85,-27.9,-2.07,1
365,10.87,-44.89,-26.85,1
366,10.88,-37.16,-1.27,1
367,10.89,-22.18,-8.27,1
368,10.91,-13.6,-7.12,1
369,10.92,-8.94,2.71,1
370,10.93,-12.57,17.84,1
371,10.95,-18.58,7.84,1
372,10.96,5.04,-0.78,1
373,10.97,-3.67,20.26,1
374,10.99,1.24,-13.99,1
375,11.0,17.55,1.53,1
376,11.01,10.67,0.05,1
377,11.03,34.6,-9.89,1
378,11.04,-3.46,25.67,1
379,11.05,6.19,6.25,1
380,11.07,13.53,-6.45,1
381,11.08,25.83,3.79,1
382,11.09,11.44,7.36,1
383,11.11,4.45,19.59,1
384,11.12,20.03,-1.25,1
385,11.13,32.11,-16.6,1
386,11.15,24.04,-8.52,1
387,11.16,12.15,-7.26,1
388,11.17,14.51,-10.22,1
389,11.19,12.62,3.53,1
390,11.2,22.3,-3.65,1
391,11.21,7.42,-14.37,1
392,11.23,36.67,8.98,1
393,11.24,5.37,-3.64,1
394,11.25,32.74,-3.67,1
395,11.27,12.67,21.89,1
396,11.28,12.4,14.23,1
397,11.29,5.94,13.02,1
398,11.31,5.89,11.04,1
399,11.32,8.92,26.57,1
400,11.33,19.29,39.55,1
401,11.35,21.64,8.17,1
402,11.36,-4.82,-2.83,1
403,11.37,22.44,21.24,1
404,11.39,-6.28,14.45,1
405,11.4,17.72,10.57,1
406,11.41,16.86,9.97,1
407,11.43,-7.81,5.58,1
408,11.44,11.14,9.79,1
409,11.45,-8.41,11.06,1
410,11.47,-0.33,-8.7,1
411,11.48,18.18,-19.22,1
412,11.49,12.27,-7.25,1
413,11.51,-0.61,6.65,1
414,11.52,-11.69,-8.01,1
415,11.53,2.68,-7.14,1
416,11.55,-2.14,-4.26,1
417,11.56,-3.0,-19.72,1
418,11.57,12.8,6.7,1
419,11.59,-6.0,13.22,1
420,11.6,7.54,9.21,1
421,11.61,-10.01,0.08,1
422,11.63,-11.98,3.39,1
423,11.64,-6.35,14.62,1
424,11.65,-5.68,-19.55,1
425,11.67,-4.8,-16.34,1
426,11.68,7.08,-19.85,1
427,11.69,-9.99,-38.12,1
428,11.71,-6.8,-22.37,1
429,11.72,-13.83,-24.62,1
430,11.73,-4.46,-3.37,1
431,11.75,2.29,-20.37,1
432,11.76,-14.23,-16.83,1
433,11.77,-9.88,-15.74,1
434,11.79,-19.37,-2.78,1
435,11.8,-9.07,-13.28,1
436,11.81,-10.86,-14.05,1
437,11.83,-15.14,-12.62,1
438,11.84,-6.87,10.27,1
439,11.85,-0.77,0.1,1
440,11.87,-2.02,3.79,1
441,11.88,-8.48,0.46,1
442,11.89,-10.07,10.77,1
443,11.91,-9.54,6.61,1
444,11.92,-10.23,-7.69,1
445,11.93,1.75,5.26,1
446,11.95,-2.16,-5.06,1
447,11.96,-5.03,0.79,1
448,11.97,6.98,13.3,1
449,11.99,8.08,-14.47,1
450,12.0,2.15,4.3,1
451,12.01,-4.24,18.34,1
452,12.03,-17.9,8.17,1
453,12.04,10.32,1.92,1
454,12.05,22.39,-2.21,1
455,12.07,12.18,8.56,1
456,12.08,12.16,13.99,1
457,12.09,1.61,5.07,1
458,12.11,8.62,-1.04,1
459,12.12,12.49,8.55,1
460,12.13,-5.13,22.39,1
461,12.15,-9.14,2.78,2
462,12.16,-9.95,9.9,2
463,12.17,-4.29,18.12,2
464,12.19,-2.17,8.69,2
465,12.2,5.06,12.32,2
466,12.21,-9.71,-6.04,2
467,12.23,83.42,-35.63,2
468,12.24,96.69,-13.13,2
469,12.25,136.56,-20.81,2
470,12.27,142.78,2.21,2
471,12.28,121.49,14.37,2
472,12.29,100.28,27.57,2
473,12.31,90.29,27.71,2
474,12.32,58.25,12.87,2
475,12.33,16.5,-10.86,2
476,12.35,-48.67,0.04,2
477,12.36,-105.9,-7.1,2
478,12.37,-168.34,0.38,2
479,12.39,-204.5,7.68,2
480,12.4,-207.54,11.76,2
481,12.41,-190.56,2.06,2
482,12.43,-193.21,6.12,2
483,12.44,-168.36,4.6,2
484,12.45,-152.94,6.17,2
485,12.47,-119.08,14.12,2
486,12.48,-81.82,10.52,2
487,12.49,-58.8,12.93,2
488,12.51,-48.51,-5.8,2
489,12.52,-13.1,4.93,2
490,12.53,7.9,-4.72,2
491,12.55,21.42,-3.23,1
492,12.56,27.32,-7.28,1
493,12.57,31.42,5.87,1
494,12.59,76.09,-19.07,1
495,12.6,65.91,11.3,1
496,12.61,70.39,-13.66,1
497,12.63,67.88,-0.41,1
498,12.64,64.05,-6.27,1
499,12.65,76.71,-14.16,1
500,12.67,60.24,-4.02,1
501,12.68,81.12,-10.69,1
502,12.69,63.04,-11.01,1
503,12.71,72.22,-26.58,1
504,12.72,67.4,-10.81,1
505,12.73,65.09,-11.53,1
506,12.75,54.64,2.12,1
507,12.76,62.25,-2.14,1
508,12.77,52.17,-17.26,1
509,12.79,46.24,-10.24,1
510,12.8,34.93,-7.99,1
511,12.81,44.76,-2.31,1
512,12.83,35.23,5.79,1
513,12.84,32.42,-5.28,1
514,12.85,22.31,10.62,1
515,12.87,13.94,-16.71,1
516,12.88,28.98,-13.12,1
517,12.89,18.84,-15.06,1
518,12.91,1.67,-5.02,1
519,12.92,14.14,-0.97,1
520,12.93,0.4,16.2,1
521,12.95,-2.7,-9.95,1
522,12.96,-6.3,-2.59,1
523,12.97,2.21,-7.55,1
524,12.99,-10.01,12.56,1
525,13.0,-12.3,10.67,1
526,13.01,-17.64,14.6,1
527,13.03,-17.57,-7.83,1
528,13.04,-16.14,1.11,1
529,13.05,-6.44,3.95,1
530,13.07,-14.08,23.71,1
531,13.08,-15.57,3.7,1
532,13.09,-14.75,8.94,1
533,13.11,-20.92,-9.0,1
534,13.12,-27.55,5.1,1
535,13.13,-40.79,12.85,1
536,13.15,-34.54,9.57,1
537,13.16,-38.33,0.99,1
538,13.17,-20.49,12.55,1
539,13.19,-23.47,8.05,1
540,13.2,-24.99,4.31,1
541,13.21,-28.79,-18.45,1
542,13.23,-12.96,-12.56,1
543,13.24,-18.33,1.89,1
544,13.25,-18.25,5.42,1
545,13.27,-24.11,2.65,1
546,13.28,-16.03,-4.08,1
547,13.29,-24.07,9.9,1
548,13.31,-22.82,9.91,1
549,13.32,-14.52,26.49,1
550,13.33,-12.65,-3.56,1
551,13.35,-13.2,3.63,1
552,13.36,-7.6,-8.14,1
553,13.37,-6.15,10.41,1
554,13.39,9.85,14.45,1
555,13.4,4.87,7.63,1
556,13.41,-6.59,-8.37,1
557,13.43,-9.54,-15.82,1
558,13.44,-5.91,-8.62,1
559,13.45,-0.12,-16.32,1
560,13.47,-2.54,-2.15,1
561,13.48,3.81,6.35,1
562,13.49,1.64,10.95,1
563,13.51,-6.18,1.8,1
564,13.52,2.52,-19.2,1
565,13.53,9.76,-8.79,1
566,13.55,1.05,-18.09,1
567,13.56,-2.15,-2.83,1
568,13.57,13.84,7.93,1
569,13.59,12.03,-7.07,1
570,13.6,12.99,0.92,1
571,13.61,2.1,17.5,1
572,13.63,-7.19,-5.67,1
573,13.64,-7.79,-28.3,1
574,13.65,9.56,13.39,1
575,13.67,28.14,-5.43,1
576,13.68,16.26,-10.83,1
577,13.69,0.42,-6.42,1
578,13.71,-3.66,-6.92,1
579,13.72,-1.75,13.47,1
580,13.73,3.15,9.72,1
581,13.75,1.72,23.66,1
582,13.76,-16.98,10.31,1
583,13.77,11.07,5.87,1
584,13.79,1.45,8.6,1
585,13.8,2.59,-2.82,1
586,13.81,9.03,-14.57,1
587,13.83,-3.77,4.14,1
588,13.84,10.15,1.33,1
589,13.85,15.93,-14.74,1
590,13.87,12.15,7.87,1
591,13.88,24.05,1.93,1
592,13.89,22.01,-11.63,1
593,13.91,3.44,2.72,1
594,13.92,-4.78,-0.05,1
595,13.93,8.55,-12.76,1
596,13.95,3.93,1.47,1
597,13.96,-6.91,25.94,1
598,13.97,-3.3,15.56,1
599,13.99,0.67,-3.92,1
600,14.0,-3.03,-11.62,1
601,14.01,-3.35,-5.18,1
602,14.03,9.02,4.28,1
603,14.04,8.04,0.25,1
604,14.05,7.51,-3.21,1
605,14.07,0.95,-3.53,1
606,14.08,-14.36,-1.17,1
607,14.09,5.26,8.09,1
608,14.11,5.76,-7.59,1
609,14.12,19.71,51.86,1
610,14.13,9.76,109.77,1
611,14.15,12.79,41.63,1
612,14.16,15.64,117.37,1
613,14.17,-17.93,182.54,1
614,14.19,-36.19,142.18,1
615,14.2,75.64,148.43,1
616,14.21,-79.57,-216.58,1
617,14.23,120.76,-150.29,1
618,14.24,30.53,-405.45,1
619,14.25,202.0,-313.19,1
620,14.27,229.54,90.4,1
621,14.28,168.94,77.64,1
622,14.29,27.34,225.48,1
623,14.31,132.2,146.71,1
624,14.32,-32.33,176.96,1
625,14.33,-180.95,-208.59,1
626,14.35,-46.01,-67.7,1
627,14.36,-269.33,258.83,1
628,14.37,-18.93,137.6,1
629,14.39,-160.3,121.62,1
630,14.4,-313.93,-0.74,1
631,14.41,-103.76,-26.32,1
632,14.43,-494.07,-258.74,1
633,14.44,-60.43,20.5,1
634,14.45,-192.53,-123.16,1
635,14.47,-136.54,-412.28,1
636,14.48,-19.25,-79.59,1
637,14.49,46.67,-88.6,1
638,14.51,63.59,-243.82,1
639,14.52,104.01,173.18,1
640,14.53,54.09,-186.25,1
641,14.55,1.15,-236.64,1
642,14.56,-37.48,-190.96,1
643,14.57,53.92,-219.34,1
644,14.59,80.25,-344.05,1
645,14.6,122.48,-40.13,1
646,14.61,33.75,-178.48,1
647,14.63,32.54,17.68,1
648,14.64,-35.65,-15.58,1
649,14.65,60.26,122.04,1
650,14.67,83.74,225.2,1
651,14.68,15.59,-80.91,1
652,14.69,82.74,306.29,1
653,14.71,220.55,148.44,1
654,14.72,-10.47,142.93,1
655,14.73,154.09,231.99,1
656,14.75,-31.08,-171.76,1
657,14.76,32.29,-140.13,1
658,14.77,191.36,219.79,1
659,14.79,83.59,561.86,1
660,14.8,0.73,288.53,1
661,14.81,-32.47,-58.13,1
662,14.83,154.89,131.07,1
663,14.84,-69.5,251.39,1
664,14.85,154.92,533.93,1
665,14.87,-119.57,241.52,1
666,14.88,-13.62,109.94,1
667,14.89,-98.8,-107.03,1
668,14.91,-63.17,-39.98,1
669,14.92,-215.61,-77.39,1
670,14.93,254.04,86.49,1
671,14.95,-101.73,-156.19,1
672,14.96,1.68,132.57,1
673,14.97,32.5,28.12,1
674,14.99,37.86,-93.9,1
675,15.0,105.35,-117.98,1
676,15.01,4.93,-22.92,1
677,15.03,29.18,-74.84,1
678,15.04,-29.72,-50.92,1
679,15.05,-117.46,-117.83,1
680,15.07,-176.52,-155.16,1
681,15.08,-117.86,-164.45,1
682,15.09,-65.23,-222.35,1
683,15.11,-6.9,-210.02,1
684,15.12,29.92,-131.96,1
685,15.13,66.67,-56.57,1
686,15.15,71.51,-1.3,1
687,15.16,88.78,33.08,1
688,15.17,82.44,12.16,1
689,15.19,56.64,42.32,1
690,15.2,51.96,62.58,1
691,15.21,33.07,61.44,1
692,15.23,10.49,61.06,1
693,15.24,37.46,100.66,1
694,15.25,9.9,85.31,1
695,15.27,6.6,91.46,1
696,15.28,-6.83,79.23,1
697,15.29,-12.85,81.42,1
698,15.31,13.54,83.55,1
699,15.32,-17.7,45.0,1
700,15.33,-2.96,23.53,1
701,15.35,-23.29,39.43,1
702,15.36,-11.53,30.52,1
703,15.37,-25.23,8.06,1
704,15.39,-32.78,-14.22,1
705,15.4,-60.27,-29.51,1
706,15.41,-39.64,-43.12,1
707,15.43,-52.64,-35.69,1
708,15.44,-34.62,-52.98,1
709,15.45,-34.17,-60.65,1
710,15.47,-30.34,-50.88,1
711,15.48,-30.31,-82.09,1
712,15.49,-36.77,-72.39,1
713,15.51,-34.81,-91.19,1
714,15.52,-32.58,-80.12,1
715,15.53,-40.78,-93.3,1
716,15.55,-37.71,-83.66,1
717,15.56,-37.92,-85.1,1
718,15.57,-32.36,-73.68,1
719,15.59,-22.91,-89.14,1
720,15.6,-21.41,-87.15,1
721,15.61,-24.4,-72.35,1
722,15.63,-7.73,-57.48,1
723,15.64,-10.45,-57.35,1
724,15.65,-15.09,-41.95,1
725,15.67,-12.6,-22.01,1
726,15.68,-14.85,-19.95,1
727,15.69,0.04,-5.63,1
728,15.71,-4.33,-8.25,1
729,15.72,6.23,-9.75,1
730,15.73,-12.95,11.58,1
731,15.75,-7.09,7.76,1
732,15.76,1.31,16.3,1
733,15.77,2.72,29.2,1
734,15.79,13.92,41.33,1
735,15.8,18.55,40.83,1
736,15.81,7.64,42.13,1
737,15.83,25.91,41.8,1
738,15.84,23.24,41.12,1
739,15.85,29.14,33.86,1
740,15.87,30.85,37.55,1
741,15.88,31.12,28.07,1
742,15.89,32.29,22.34,1
743,15.91,19.37,24.54,1
744,15.92,22.4,34.51,1
745,15.93,6.89,28.02,1
746,15.95,15.93,31.59,1
747,15.96,20.43,34.01,1
748,15.97,27.01,44.39,1
749,15.99,33.23,28.82,1
750,16.0,5.25,34.66,1
751,16.01,-1.42,35.32,1
752,16.03,-7.81,27.08,1
753,16.04,10.51,31.49,1
754,16.05,24.33,47.58,1
755,16.07,18.08,19.44,1
756,16.08,25.59,11.52,1
757,16.09,11.12,21.89,1
758,16.11,-0.91,32.91,1
759,16.12,17.93,29.79,1
760,16.13,9.71,36.46,1
761,16.15,18.87,8.41,1
762,16.16,8.39,-3.04,2
763,16.17,6.67,18.66,2
764,16.19,-7.35,13.07,2
765,16.2,11.15,-3.87,2
766,16.21,-11.03,-4.74,2
767,16.23,15.68,4.32,2
768,16.24,4.9,-16.46,2
769,16.25,14.87,-13.96,2
770,16.27,15.71,8.72,2
771,16.28,77.11,-23.4,2
772,16.29,139.92,-25.35,2
773,16.31,119.27,-30.11,2
774,16.32,103.14,-21.35,2
775,16.33,61.94,-3.64,2
776,16.35,7.37,-17.21,2
777,16.36,-27.76,-5.08,2
778,16.37,-60.05,-1.15,2
779,16.39,-67.46,-2.32,2
780,16.4,-96.21,7.2,2
781,16.41,-92.43,3.82,2
782,16.42,-117.7,24.16,2
783,16.44,-107.08,23.17,2
784,16.45,-118.85,39.73,2
785,16.47,-92.1,8.37,2
786,16.48,-92.41,13.01,2
787,16.49,-91.12,33.78,2
788,16.51,-83.72,11.19,2
789,16.52,-47.31,10.15,2
790,16.53,-50.71,14.06,2
791,16.55,-38.89,8.65,1
792,16.56,-39.07,1.95,1
793,16.57,-12.11,-11.38,1
794,16.59,-24.99,-3.08,1
795,16.6,9.02,-26.61,1
796,16.61,-17.64,-37.3,1
797,16.63,-17.12,-32.3,1
798,16.64,4.17,-29.7,1
799,16.65,17.15,-44.98,1
800,16.67,36.95,-46.45,1
801,16.68,33.62,-52.58,1
802,16.69,46.14,-21.61,1
803,16.71,39.35,-40.56,1
804,16.72,51.26,-33.72,1
805,16.73,54.9,-26.57,1
806,16.75,47.98,-15.12,1
807,16.76,36.66,-5.02,1
808,16.77,49.36,-25.55,1
809,16.79,52.52,-21.61,1
810,16.8,48.67,-18.42,1
811,16.81,43.45,-11.35,1
812,16.83,51.9,-25.43,1
813,16.84,51.28,-6.21,1
814,16.85,57.43,-10.12,1
815,16.87,28.4,-29.56,1
816,16.88,26.96,-21.89,1
817,16.89,28.93,2.85,1
818,16.91,36.99,9.02,1
819,16.92,27.39,-1.12,1
820,16.93,20.95,-0.02,1
821,16.95,16.25,19.28,1
822,16.96,14.86,20.04,1
823,16.97,14.15,0.2,1
824,16.99,5.2,5.73,1
825,17.0,9.9,27.31,1
826,17.01,-5.21,24.51,1
827,17.03,-2.74,2.08,1
828,17.04,-1.22,38.84,1
829,17.05,-6.21,36.2,1
830,17.06,-7.68,33.76,1
831,17.08,-24.67,5.2,1
832,17.09,-2.78,28.41,1
833,17.11,-15.45,20.47,1
834,17.12,-14.71,26.1,1
835,17.13,-16.31,27.84,1
836,17.15,-16.21,21.56,1
837,17.16,-2.48,23.53,1
838,17.17,-32.36,21.12,1
839,17.19,-19.74,23.13,1
840,17.2,-23.25,17.83,1
841,17.21,-16.46,13.18,1
842,17.23,-9.21,1.4,1
843,17.24,-6.1,-8.77,1
844,17.25,-19.84,-4.93,1
845,17.27,-17.81,2.41,1
846,17.28,-21.62,5.16,1
847,17.29,-7.04,-15.71,1
848,17.31,-4.99,1.26,1
849,17.32,-10.72,-9.84,1
850,17.33,-28.87,-10.31,1
851,17.35,-38.38,1.15,1
852,17.36,-7.27,-10.83,1
853,17.37,-10.88,-8.32,1
854,17.39,-16.2,-18.16,1
855,17.4,-18.31,-10.85,1
856,17.41,-7.6,2.36,1
857,17.43,-3.11,-5.44,1
858,17.44,-10.93,-3.87,1
859,17.45,-15.19,-7.07,1
860,17.47,1.28,10.04,1
861,17.48,-2.37,-2.67,1
862,17.49,-14.38,2.5,1
863,17.51,3.06,-12.66,1
864,17.52,3.77,3.6,1
865,17.53,-3.74,-15.22,1
866,17.55,-10.78,-7.81,1
867,17.56,-1.98,-2.18,1
868,17.57,0.39,-14.53,1
869,17.59,-1.59,-22.2,1
870,17.6,-5.01,12.24,1
871,17.61,-2.14,-1.52,1
872,17.63,4.11,-5.02,1
873,17.64,9.86,0.08,1
874,17.65,5.56,1.33,1
875,17.67,12.36,-2.63,1
876,17.68,22.88,-9.83,1
877,17.69,25.53,-2.16,1
878,17.7,8.0,3.69,1
879,17.72,-12.77,1.86,1
880,17.73,-3.01,-17.35,1
881,17.75,-3.76,-7.93,1
882,17.76,10.46,2.91,1
883,17.77,13.55,17.41,1
884,17.79,13.99,0.69,1
885,17.8,15.6,3.36,1
886,17.81,5.7,-10.2,1
887,17.83,5.83,-7.82,1
888,17.84,-6.57,4.04,1
889,17.85,-4.69,15.73,1
890,17.87,13.15,17.06,1
891,17.88,-1.85,4.64,1
892,17.89,2.38,-12.96,1
893,17.91,6.01,-4.58,1
894,17.92,5.32,-0.81,1
895,17.93,-12.0,-13.21,1
896,17.95,-5.12,-0.09,1
897,17.96,3.87,6.36,1
898,17.97,16.29,3.62,1
899,17.99,23.48,-11.0,1
900,18.0,4.2,-13.57,1
901,18.01,-15.88,-3.1,1
902,18.03,-10.13,-4.16,1
903,18.04,-7.75,8.54,1
904,18.05,5.47,3.01,1
905,18.07,3.05,-2.2,1
906,18.08,24.84,8.46,1
907,18.09,4.79,-3.79,1
908,18.11,1.66,-9.15,1
909,18.12,7.77,11.55,1
910,18.13,7.28,16.5,1
911,18.15,-8.27,5.11,1
912,18.16,1.9,9.0,0
913,18.17,-12.81,13.42,0
914,18.19,2.34,-8.1,0
915,18.2,0.71,-5.69,0
916,18.21,-1.57,13.57,0
917,18.23,-1.48,11.45,0
918,18.24,18.97,32.14,0
919,18.25,-53.17,-7.64,0
920,18.27,-65.28,13.8,0
921,18.28,-123.92,0.28,0
922,18.29,-139.13,-23.45,0
923,18.31,-143.24,-17.95,0
924,18.32,-127.56,-1.91,0
925,18.33,-85.58,-11.2,0
926,18.34,-68.98,-34.34,0
927,18.36,-12.98,-19.05,0
928,18.37,11.08,-18.77,0
929,18.39,72.51,-0.58,0
930,18.4,141.96,10.22,0
931,18.41,178.21,17.44,0
932,18.43,202.77,10.81,0
933,18.44,209.17,14.86,0
934,18.45,178.49,-9.39,0
935,18.47,157.14,5.22,0
936,18.48,138.89,5.36,0
937,18.49,111.02,-2.05,0
938,18.51,95.86,-4.75,0
939,18.52,58.91,4.83,0
940,18.53,44.83,8.51,0
941,18.55,28.51,4.38,1
942,18.56,15.48,16.01,1
943,18.57,-7.84,-19.29,1
944,18.59,-28.69,-1.41,1
945,18.6,-37.29,-8.38,1
946,18.61,-42.44,-25.38,1
947,18.63,-42.6,-21.36,1
948,18.64,-37.57,-1.8,1
949,18.65,-56.06,12.99,1
950,18.67,-68.39,28.44,1
951,18.68,-73.12,4.68,1
952,18.69,-79.1,10.14,1
953,18.71,-60.38,9.91,1
954,18.72,-66.49,29.18,1
955,18.73,-86.5,17.12,1
956,18.75,-69.18,16.87,1
957,18.76,-70.35,3.61,1
958,18.77,-62.12,19.73,1
959,18.79,-59.8,-4.69,1
960,18.8,-58.82,1.7,1
961,18.81,-45.88,11.42,1
962,18.83,-42.02,11.06,1
963,18.84,-57.11,18.47,1
964,18.85,-49.95,-5.5,1
965,18.87,-32.94,5.23,1
966,18.88,-23.21,-30.55,1
967,18.89,-17.12,-21.14,1
968,18.91,-8.14,-22.27,1
969,18.92,-23.98,-8.33,1
970,18.93,-34.81,-6.21,1
971,18.95,-20.94,4.52,1
972,18.96,-1.13,-22.47,1
973,18.97,1.35,-25.23,1
974,18.98,16.52,-12.38,1
975,19.0,8.28,-20.31,1
976,19.01,8.28,-19.96,1
977,19.02,10.43,-9.12,1
978,19.04,19.19,-0.19,1
979,19.05,15.98,-1.81,1
980,19.07,26.15,-17.38,1
981,19.08,27.33,-14.95,1
982,19.09,14.77,-9.17,1
983,19.11,13.95,-4.68,1
984,19.12,12.22,3.37,1
985,19.13,19.41,7.04,1
986,19.15,28.88,4.33,1
987,19.16,27.82,-2.52,1
988,19.17,40.09,1.83,1
989,19.19,19.49,19.42,1
990,19.2,47.22,21.78,1
991,19.21,20.11,4.91,1
992,19.23,24.87,16.26,1
993,19.24,23.54,2.04,1
994,19.25,19.41,-2.55,1
995,19.27,14.48,-20.39,1
996,19.28,35.37,17.63,1
997,19.29,23.63,2.59,1
998,19.31,29.8,-9.95,1
999,19.32,29.17,10.49,1
1000,19.33,19.48,27.19,1
1001,19.35,12.23,20.78,1
1002,19.36,-0.32,-6.83,1
1003,19.37,9.91,-4.07,1
1004,19.39,14.08,21.17,1
1005,19.4,4.34,12.49,1
1006,19.41,1.44,-9.17,1
1007,19.43,13.98,0.09,1
1008,19.44,4.26,2.13,1
1009,19.45,4.27,-2.44,1
1010,19.47,4.09,-10.31,1
1011,19.48,-5.9,13.79,1
1012,19.49,-2.56,6.39,1
1013,19.51,-5.43,-6.21,1
1014,19.52,-21.39,-10.51,1
1015,19.53,12.35,-5.27,1
1016,19.55,-3.22,-5.51,1
1017,19.56,5.64,5.04,1
1018,19.57,-8.84,1.37,1
1019,19.59,-12.83,14.23,1
1020,19.6,-5.0,5.91,1
1021,19.61,-13.76,5.52,1
1022,19.62,-1.85,-2.22,1
1023,19.64,0.96,16.23,1
1024,19.65,-22.93,-12.45,1
1025,19.67,-0.55,4.45,1
1026,19.68,-4.57,4.32,1
1027,19.69,5.03,0.23,1
1028,19.71,-8.78,-4.35,1
1029,19.72,-16.59,1.28,1
1030,19.73,-9.73,-7.55,1
1031,19.75,-17.42,-9.76,1
1032,19.76,-6.26,-27.22,1
1033,19.77,-11.8,-18.78,1
1034,19.79,-1.49,-10.77,1
1035,19.8,-4.48,-5.84,1
1036,19.81,-10.53,-4.94,1
1037,19.83,-6.47,4.93,1
1038,19.84,-15.3,7.83,1
1039,19.85,-3.95,-15.84,1
1040,19.87,-1.47,6.89,1
1041,19.88,1.08,8.58,1
1042,19.89,-10.94,4.61,1
1043,19.91,-10.45,-2.99,1
1044,19.92,-9.64,0.61,1
1045,19.93,-17.12,10.45,1
1046,19.95,4.98,-4.38,1
1047,19.96,-3.7,3.22,1
1048,19.97,1.23,11.62,1
1049,19.99,-0.82,10.25,1
1050,20.0,4.35,7.06,1
1051,20.01,5.98,6.64,1
1052,20.03,16.94,15.26,1
1053,20.04,-4.02,3.4,1
1054,20.05,-16.43,1.8,1
1055,20.07,2.01,2.13,1
1056,20.08,8.43,-2.37,1
1057,20.09,3.72,-7.68,1
1058,20.11,-11.08,-6.59,1
1059,20.12,4.33,-8.17,1
1060,20.13,7.72,-0.56,1
1061,20.15,16.36,-5.49,1
1062,20.16,3.04,-11.15,0
1063,20.17,-3.8,0.32,0
1064,20.19,15.0,10.36,0
1065,20.2,2.67,-16.89,0
1066,20.21,-56.37,5.74,0
1067,20.23,-78.2,2.65,0
1068,20.24,-112.3,-12.43,0
1069,20.25,-121.33,7.61,0
1070,20.26,-106.32,21.72,0
1071,20.28,-68.99,15.12,0
1072,20.29,-23.05,4.63,0
1073,20.3,29.58,-24.42,0
1074,20.32,53.14,2.86,0
1075,20.33,80.63,-17.92,0
1076,20.35,97.31,-22.23,0
1077,20.36,98.22,-9.45,0
1078,20.37,103.81,-9.36,0
1079,20.39,109.86,-27.28,0
1080,20.4,100.28,-6.56,0
1081,20.41,96.32,0.24,0
1082,20.43,103.98,14.24,0
1083,20.44,81.67,3.28,0
1084,20.45,61.84,17.03,0
1085,20.47,51.5,6.01,0
1086,20.48,42.56,-9.34,0
1087,20.49,26.54,6.35,0
1088,20.51,35.29,1.1,0
1089,20.52,1.44,-11.4,0
1090,20.53,-4.41,-6.01,0
1091,20.55,-11.5,-7.82,1
1092,20.56,-14.84,-11.1,1
1093,20.57,-14.62,8.13,1
1094,20.59,-7.48,-8.55,1
1095,20.6,-20.77,1.49,1
1096,20.61,-25.03,5.28,1
1097,20.63,-37.9,12.7,1
1098,20.64,-26.88,3.24,1
1099,20.65,-51.55,19.45,1
1100,20.67,-50.63,28.37,1
1101,20.68,-50.64,0.14,1
1102,20.69,-56.02,36.02,1
1103,20.71,-45.16,16.62,1
1104,20.72,-54.36,23.91,1
1105,20.73,-59.91,14.45,1
1106,20.75,-75.71,6.16,1
1107,20.76,-60.56,10.6,1
1108,20.77,-48.23,-1.57,1
1109,20.79,-39.42,-8.98,1
1110,20.8,-36.78,-15.82,1
1111,20.81,-42.81,8.01,1
1112,20.83,-23.58,-13.81,1
1113,20.84,-32.44,-2.86,1
1114,20.85,-31.16,-27.4,1
1115,20.87,-3.1,-13.29,1
1116,20.88,-9.38,1.5,1
1117,20.89,-6.23,-23.1,1
1118,20.9,-10.07,2.14,1
1119,20.92,-7.62,-5.54,1
1120,20.93,-1.56,-20.04,1
1121,20.94,4.82,-7.52,1
1122,20.96,-2.36,-7.28,1
1123,20.97,5.38,-13.26,1
1124,20.99,4.14,-4.76,1
1125,21.0,4.79,-18.42,1
1126,21.01,5.43,-17.61,1
1127,21.03,14.12,1.09,1
1128,21.04,17.96,-1.41,1
1129,21.05,25.53,-27.98,1
1130,21.07,6.88,-7.49,1
1131,21.08,30.23,25.38,1
1132,21.09,23.09,-3.66,1
1133,21.11,15.11,11.56,1
1134,21.12,8.86,15.23,1
1135,21.13,21.86,9.67,1
1136,21.15,13.35,0.3,1
1137,21.16,18.29,10.54,1
1138,21.17,25.17,18.36,1
1139,21.19,26.48,9.88,1
1140,21.2,37.19,24.84,1
1141,21.21,9.1,21.55,1
1142,21.23,17.61,-10.79,1
1143,21.24,27.59,8.19,1
1144,21.25,15.53,10.35,1
1145,21.27,7.57,18.51,1
1146,21.28,19.41,14.87,1
1147,21.29,14.46,1.47,1
1148,21.31,25.64,-0.46,1
1149,21.32,18.6,9.93,1
1150,21.33,4.13,1.04,1
1151,21.35,11.32,2.83,1
1152,21.36,12.02,-3.04,1
1153,21.37,2.49,-19.65,1
1154,21.39,3.92,-5.52,1
1155,21.4,1.82,-13.8,1
1156,21.41,4.75,-4.54,1
1157,21.43,-5.13,14.53,1
1158,21.44,-4.5,-7.82,1
1159,21.45,-1.38,2.47,1
1160,21.47,-6.85,-1.93,1
1161,21.48,4.15,-14.27,1
1162,21.49,-1.32,-7.17,1
1163,21.51,1.75,-3.7,1
1164,21.52,-6.61,-9.89,1
1165,21.53,-12.3,16.07,1
1166,21.54,-11.45,7.8,1
1167,21.56,-7.03,-2.61,1
1168,21.57,2.47,-19.07,1
1169,21.58,7.4,-3.79,1
1170,21.6,-6.57,-21.68,1
1171,21.61,-7.0,-1.75,1
1172,21.63,-2.43,-0.92,1
1173,21.64,-4.91,-3.59,1
1174,21.65,-8.33,-13.02,1
1175,21.67,-8.8,4.92,1
1176,21.68,-11.17,4.47,1
1177,21.69,4.65,-6.13,1
1178,21.71,-16.08,-13.98,1
1179,21.72,-18.82,6.91,1
1180,21.73,7.92,-1.66,1
1181,21.75,5.39,1.16,1
1182,21.76,-4.05,15.43,1
1183,21.77,-4.51,3.06,1
1184,21.79,-6.77,-2.99,1
1185,21.8,-8.1,-2.43,1
1186,21.81,-12.98,-0.23,1
1187,21.83,-3.1,-19.91,1
1188,21.84,-14.7,-2.6,1
1189,21.85,6.34,-5.21,1
1190,21.87,-3.75,13.76,1
1191,21.88,-8.33,22.16,1
1192,21.89,-10.22,8.61,1
1193,21.91,-7.65,-6.33,1
1194,21.92,-3.24,-15.19,1
1195,21.93,8.74,23.03,1
1196,21.95,-5.6,15.47,1
1197,21.96,2.86,8.46,1
1198,21.97,-13.57,-0.44,1
1199,21.99,-1.87,5.32,1
1200,22.0,-1.18,1.19,1
1201,22.01,12.38,-9.35,1
1202,22.03,10.07,-19.51,1
1203,22.04,-6.24,-7.96,1
1204,22.05,5.28,-2.42,1
1205,22.07,16.55,0.42,1
1206,22.08,-2.06,-3.74,1
1207,22.09,17.4,-0.5,1
1208,22.11,7.59,4.52,1
1209,22.12,4.36,9.56,1
1210,22.13,5.27,-0.97,1
1211,22.15,-14.74,6.6,1
1212,22.16,9.17,8.0,2
1213,22.17,2.55,-4.56,2
1214,22.18,2.7,-2.5,2
1215,22.2,-0.9,8.48,2
1216,22.21,2.6,1.04,2
1217,22.22,-26.12,-7.25,2
1218,22.24,106.98,-21.67,2
1219,22.25,108.35,-18.78,2
1220,22.26,148.49,-14.91,2
1221,22.28,145.65,6.6,2
1222,22.29,126.01,14.61,2
1223,22.31,110.92,-8.56,2
1224,22.32,73.4,-3.22,2
1225,22.33,37.49,-3.8,2
1226,22.35,14.44,9.05,2
1227,22.36,-55.42,8.57,2
1228,22.37,-97.93,4.67,2
1229,22.39,-180.27,5.21,2
1230,22.4,-218.04,4.02,2
1231,22.41,-229.72,24.73,2
1232,22.43,-216.42,31.04,2
1233,22.44,-204.97,27.35,2
1234,22.45,-186.54,8.17,2
1235,22.47,-145.61,23.94,2
1236,22.48,-113.39,20.71,2
1237,22.49,-96.59,-6.28,2
1238,22.51,-73.28,-7.37,2
1239,22.52,-39.14,-8.29,2
1240,22.53,-20.85,-6.04,2
1241,22.55,-0.46,-9.49,1
1242,22.56,11.27,-22.98,1
1243,22.57,37.83,-32.48,1
1244,22.59,34.07,-41.97,1
1245,22.6,37.4,-37.03,1
1246,22.61,70.52,-9.95,1
1247,22.63,68.21,6.19,1
1248,22.64,73.71,-5.64,1
1249,22.65,80.8,12.3,1
1250,22.67,94.46,15.14,1
1251,22.68,96.87,1.35,1
1252,22.69,78.29,9.36,1
1253,22.71,83.51,3.11,1
1254,22.72,88.51,13.26,1
1255,22.73,77.44,15.57,1
1256,22.75,59.87,27.44,1
1257,22.76,62.77,22.73,1
1258,22.77,34.8,14.88,1
1259,22.79,40.97,-7.31,1
1260,22.8,56.22,0.45,1
1261,22.81,58.81,-0.17,1
1262,22.82,64.53,-2.33,1
1263,22.84,56.18,-7.08,1
1264,22.85,52.02,-18.42,1
1265,22.86,35.93,-1.05,1
1266,22.88,39.36,-3.63,1
1267,22.89,21.1,-10.16,1
1268,22.9,40.13,0.79,1
1269,22.92,21.9,-22.37,1
1270,22.93,33.58,-13.13,1
1271,22.95,-6.17,-21.54,1
1272,22.96,0.78,-13.0,1
1273,22.97,-5.8,-5.63,1
1274,22.99,-23.52,15.14,1
1275,23.0,-9.6,-6.31,1
1276,23.01,-21.36,-14.85,1
1277,23.03,-17.0,-12.94,1
1278,23.04,-20.47,-14.81,1
1279,23.05,-18.07,0.86,1
1280,23.07,-36.64,-1.76,1
1281,23.08,-8.27,-3.32,1
1282,23.09,-38.0,-4.94,1
1283,23.11,-32.43,0.77,1
1284,23.12,-21.69,14.78,1
1285,23.13,-24.42,1.76,1
1286,23.15,-45.85,0.95,1
1287,23.16,-48.27,-1.11,1
1288,23.17,-42.43,27.75,1
1289,23.19,-37.03,31.91,1
1290,23.2,-37.03,-13.72,1
1291,23.21,-38.78,-7.83,1
1292,23.23,-38.81,13.06,1
1293,23.24,-36.3,12.4,1
1294,23.25,-39.26,-2.65,1
1295,23.27,-25.19,5.6,1
1296,23.28,-29.57,-5.22,1
1297,23.29,-9.77,-8.19,1
1298,23.31,-15.6,-6.94,1
1299,23.32,-14.86,10.39,1
1300,23.33,-17.42,23.83,1
1301,23.35,-24.25,12.7,1
1302,23.36,-11.87,6.78,1
1303,23.37,2.79,12.76,1
1304,23.39,-4.55,15.24,1
1305,23.4,4.58,-0.68,1
1306,23.41,-4.75,4.59,1
1307,23.43,-13.07,-0.58,1
1308,23.44,-4.63,-15.54,1
1309,23.45,-9.87,-6.27,1
1310,23.46,4.41,-14.59,1
1311,23.48,4.67,10.36,1
1312,23.49,20.82,3.21,1
1313,23.5,9.78,-4.51,1
1314,23.52,0.12,5.23,1
1315,23.53,-15.06,32.14,1
1316,23.54,9.42,14.02,1
1317,23.56,7.2,27.84,1
1318,23.57,10.8,10.55,1
1319,23.59,8.69,6.14,1
1320,23.6,25.36,-3.2,1
1321,23.61,9.68,-12.44,1
1322,23.63,8.52,-12.64,1
1323,23.64,16.95,-8.14,1
1324,23.65,-9.89,-31.12,1
1325,23.67,18.33,-11.77,1
1326,23.68,3.12,-5.35,1
1327,23.69,13.68,-12.82,1
1328,23.71,18.02,-6.08,1
1329,23.72,2.64,-8.24,1
1330,23.73,12.96,-15.04,1
1331,23.75,16.23,-8.37,1
1332,23.76,14.19,-9.85,1
1333,23.77,8.31,-10.35,1
1334,23.79,9.27,-16.15,1
1335,23.8,11.67,-14.65,1
1336,23.81,-0.08,-10.22,1
1337,23.83,1.18,0.53,1
1338,23.84,10.43,-16.77,1
1339,23.85,5.12,1.18,1
1340,23.87,8.17,-5.43,1
1341,23.88,5.0,-2.46,1
1342,23.89,7.21,-6.7,1
1343,23.91,4.2,4.86,1
1344,23.92,10.48,-5.14,1
1345,23.93,-11.34,3.0,1
1346,23.95,10.15,1.34,1
1347,23.96,4.35,17.07,1
1348,23.97,19.02,12.12,1
1349,23.99,-3.74,6.81,1
1350,24.0,-4.12,-11.24,1
1351,24.01,12.01,14.75,1
1352,24.03,-1.83,1.9,1
1353,24.04,-22.49,11.93,1
1354,24.05,-10.68,29.48,1
1355,24.07,-6.32,-3.2,1
1356,24.08,-5.81,8.44,1
1357,24.09,3.92,3.31,1
1358,24.1,-16.66,15.37,1
1359,24.12,4.99,49.23,1
1360,24.13,22.97,92.36,1
1361,24.14,20.87,227.82,1
1362,24.16,61.27,395.5,1
1363,24.17,61.59,98.49,1
1364,24.18,-88.47,-203.68,1
1365,24.2,187.57,-110.0,1
1366,24.21,11.83,-18.5,1
1367,24.22,318.39,52.3,1
1368,24.24,153.71,175.78,1
1369,24.25,-2.26,166.44,1
1370,24.27,94.34,102.78,1
1371,24.28,-130.15,58.07,1
1372,24.29,-220.92,-10.69,1
1373,24.31,35.57,-180.66,1
1374,24.32,-179.52,-202.64,1
1375,24.33,-214.16,-194.27,1
1376,24.35,-180.53,-475.81,1
1377,24.36,-278.99,26.57,1
1378,24.37,-39.38,-345.4,1
1379,24.39,-99.24,-327.67,1
1380,24.4,-9.15,-68.27,1
1381,24.41,-236.51,-204.41,1
1382,24.43,20.73,-383.99,1
1383,24.44,63.75,-114.47,1
1384,24.45,-227.24,29.32,1
1385,24.47,145.64,-96.81,1
1386,24.48,-163.29,50.85,1
1387,24.49,64.11,-89.64,1
1388,24.51,4.31,21.63,1
1389,24.52,64.91,58.96,1
1390,24.53,69.87,-171.31,1
1391,24.55,92.85,317.35,1
1392,24.56,-28.09,180.45,1
1393,24.57,104.71,-208.12,1
1394,24.59,23.37,-127.27,1
1395,24.6,102.26,110.31,1
1396,24.61,11.38,364.13,1
1397,24.63,-35.83,450.27,1
1398,24.64,-31.99,490.36,1
1399,24.65,218.04,93.3,1
1400,24.67,194.08,-312.54,1
1401,24.68,92.87,40.65,1
1402,24.69,-104.6,-146.41,1
1403,24.71,128.66,205.0,1
1404,24.72,101.14,38.48,1
1405,24.73,20.37,252.7,1
1406,24.75,-7.65,160.62,1
1407,24.76,-13.62,172.23,1
1408,24.77,-105.38,130.53,1
1409,24.78,62.95,-225.11,1
1410,24.8,-19.01,134.84,1
1411,24.81,191.11,543.48,1
1412,24.82,-206.14,60.12,1
1413,24.84,35.17,-255.41,1
1414,24.85,61.87,217.68,1
1415,24.86,344.44,114.56,1
1416,24.88,-5.95,-203.66,1
1417,24.89,71.68,74.1,1
1418,24.91,-201.79,124.81,1
1419,24.92,-155.34,-147.05,1
1420,24.93,-102.42,-432.47,1
1421,24.95,-189.23,7.58,1
1422,24.96,66.44,-16.34,1
1423,24.97,-25.32,-356.98,1
1424,24.99,100.32,1.88,1
1425,25.0,-81.43,-64.2,1
1426,25.01,-2.25,-62.59,1
1427,25.03,-43.83,-120.5,1
1428,25.04,-51.38,-196.55,1
1429,25.05,-60.79,-115.99,1
1430,25.07,-71.46,-59.84,1
1431,25.08,-148.45,-106.31,1
1432,25.09,-105.57,-116.45,1
1433,25.11,-89.04,-97.17,1
1434,25.12,-22.01,-46.78,1
1435,25.13,35.78,-22.27,1
1436,25.15,68.6,52.35,1
1437,25.16,65.83,85.82,1
1438,25.17,85.18,126.59,1
1439,25.19,102.53,143.91,1
1440,25.2,109.83,179.02,1
1441,25.21,93.42,171.66,1
1442,25.23,87.46,177.07,1
1443,25.24,112.62,154.19,1
1444,25.25,98.97,138.66,1
1445,25.27,68.87,159.55,1
1446,25.28,76.23,110.48,1
1447,25.29,50.09,91.3,1
1448,25.31,41.76,44.21,1
1449,25.32,22.68,42.91,1
1450,25.33,25.23,22.52,1
1451,25.35,7.8,-10.55,1
1452,25.36,28.65,-12.14,1
1453,25.37,-35.1,-16.85,1
1454,25.38,-21.49,-30.95,1
1455,25.4,-51.26,-49.82,1
1456,25.41,-30.27,-73.76,1
1457,25.42,-54.13,-88.49,1
1458,25.44,-26.79,-52.91,1
1459,25.45,-14.56,-78.33,1
1460,25.46,-23.34,-76.91,1
1461,25.48,-37.69,-69.18,1
1462,25.49,-59.74,-70.14,1
1463,25.5,-68.74,-114.84,1
1464,25.52,-69.21,-60.79,1
1465,25.53,-70.93,-59.94,1
1466,25.55,-64.56,-99.94,1
1467,25.56,-71.33,-108.41,1
1468,25.57,-52.81,-95.18,1
1469,25.59,-24.5,-82.76,1
1470,25.6,-53.38,-69.02,1
1471,25.61,-55.86,-42.66,1
1472,25.63,-41.05,-51.5,1
1473,25.64,-44.47,-83.54,1
1474,25.65,-17.21,-63.32,1
1475,25.67,-24.11,-65.55,1
1476,25.68,-20.01,-30.22,1
1477,25.69,-28.16,-44.14,1
1478,25.71,-18.42,-19.91,1
1479,25.72,7.29,2.45,1
1480,25.73,-12.99,-29.95,1
1481,25.75,-17.49,-0.55,1
1482,25.76,-15.59,6.64,1
1483,25.77,11.29,15.45,1
1484,25.79,13.75,24.93,1
1485,25.8,23.99,35.44,1
1486,25.81,16.3,45.12,1
1487,25.83,9.36,47.27,1
1488,25.84,10.85,43.58,1
1489,25.85,29.01,33.45,1
1490,25.87,28.73,30.5,1
1491,25.88,29.23,30.66,1
1492,25.89,30.05,24.95,1
1493,25.91,34.26,29.59,1
1494,25.92,24.89,48.59,1
1495,25.93,37.59,46.78,1
1496,25.95,6.59,42.67,1
1497,25.96,20.22,36.11,1
1498,25.97,19.63,53.79,1
1499,25.99,-1.47,53.19,1
1500,26.0,19.27,48.12,1
1501,26.01,21.12,28.74,1
1502,26.02,17.27,38.4,1
1503,26.04,15.01,49.25,1
1504,26.05,8.55,42.33,1
1505,26.06,0.35,30.15,1
1506,26.08,32.68,21.15,1
1507,26.09,13.69,37.05,1
1508,26.1,17.9,41.41,1
1509,26.12,26.78,7.66,1
1510,26.13,3.77,4.12,1
1511,26.14,9.61,48.41,1
1512,26.16,23.64,24.0,2
1513,26.17,29.13,10.28,2
1514,26.19,18.52,14.18,2
1515,26.2,6.86,10.4,2
1516,26.21,5.75,27.11,2
1517,26.23,67.01,-2.65,2
1518,26.24,113.25,-17.8,2
1519,26.25,147.46,-37.1,2
1520,26.27,119.83,-27.76,2
1521,26.28,91.91,-44.82,2
1522,26.29,23.51,-52.75,2
1523,26.31,6.47,-25.0,2
1524,26.32,-36.13,-14.12,2
1525,26.33,-70.56,28.1,2
1526,26.35,-98.57,2.11,2
1527,26.36,-107.55,0.35,2
1528,26.37,-95.45,17.96,2
1529,26.39,-107.63,10.94,2
1530,26.4,-93.49,15.42,2
1531,26.41,-92.74,10.55,2
1532,26.43,-83.43,9.56,2
1533,26.44,-88.8,9.79,2
1534,26.45,-87.54,6.82,2
1535,26.47,-64.99,19.34,2
1536,26.48,-67.0,18.13,2
1537,26.49,-31.5,16.44,2
1538,26.51,-60.65,14.58,2
1539,26.52,-34.67,19.28,2
1540,26.53,-30.45,1.79,2
1541,26.55,-24.47,-15.19,1
1542,26.56,-15.98,-34.37,1
1543,26.57,0.2,-32.4,1
1544,26.59,12.17,-34.18,1
1545,26.6,25.46,-33.05,1
1546,26.61,13.92,-37.84,1
1547,26.63,30.85,-36.42,1
1548,26.64,37.32,-57.78,1
1549,26.65,38.73,-49.27,1
1550,26.67,39.42,-39.27,1
1551,26.68,42.34,-38.69,1
1552,26.69,33.26,-22.71,1
1553,26.7,42.03,-26.85,1
1554,26.72,42.52,-26.66,1
1555,26.73,45.69,2.38,1
1556,26.75,37.28,-8.17,1
1557,26.76,29.56,-7.2,1
1558,26.77,40.48,-20.05,1
1559,26.78,71.5,-3.71,1
1560,26.8,52.47,0.74,1
1561,26.81,40.68,2.78,1
1562,26.825,38.98,-15.22,1
1563,26.84,26.81,-14.8,1
1564,26.85,25.72,-9.89,1
1565,26.87,27.84,0.36,1
1566,26.88,13.66,-9.05,1
1567,26.89,16.47,-15.21,1
1568,26.91,9.34,-0.58,1
1569,26.92,7.12,6.93,1
1570,26.93,6.0,9.16,1
1571,26.95,-0.16,-0.33,1
1572,26.96,-6.23,7.58,1
1573,26.97,6.83,17.49,1
1574,26.99,-2.23,10.55,1
1575,27.0,8.65,29.51,1
1576,27.01,-4.98,17.16,1
1577,27.03,-5.94,1.59,1
1578,27.04,2.13,13.21,1
1579,27.05,-5.39,9.57,1
1580,27.07,-9.12,18.56,1
1581,27.08,-5.18,26.04,1
1582,27.09,-9.38,28.52,1
1583,27.11,-12.46,27.28,1
1584,27.12,-19.55,28.83,1
1585,27.13,-21.7,26.56,1
1586,27.15,-14.32,24.22,1
1587,27.16,-27.41,17.42,1
1588,27.17,-8.56,24.05,1
1589,27.19,-6.22,12.33,1
1590,27.2,-12.58,15.13,1
1591,27.21,-23.4,12.07,1
1592,27.23,-20.12,16.19,1
1593,27.24,-28.2,6.03,1
1594,27.25,-19.32,-0.1,1
1595,27.27,-25.07,-18.36,1
1596,27.28,-20.7,-0.77,1
1597,27.29,-3.67,9.74,1
1598,27.3,-18.8,6.77,1
1599,27.32,2.92,-16.82,1
1600,27.33,-4.2,-6.87,1
1601,27.34,-7.38,-12.9,1
1602,27.36,-18.27,-10.15,1
1603,27.37,-5.32,-8.84,1
1604,27.38,-8.22,14.64,1
1605,27.4,3.64,3.1,1
1606,27.41,-9.25,-13.64,1
1607,27.42,-9.14,-2.22,1
1608,27.44,-19.51,-7.85,1
1609,27.45,-7.48,-6.56,1
1610,27.46,1.22,-10.6,1
1611,27.48,4.86,0.69,1
1612,27.49,-9.3,-8.16,1
1613,27.51,-6.91,-14.69,1
1614,27.52,1.44,-15.66,1
1615,27.53,12.85,-3.99,1
1616,27.55,-7.94,-7.74,1
1617,27.56,-7.21,-7.52,1
1618,27.57,-0.35,-0.96,1
1619,27.59,8.09,-8.63,1
1620,27.6,6.84,-5.44,1
1621,27.61,2.18,-4.05,1
1622,27.63,5.64,0.1,1
1623,27.64,10.61,-5.59,1
1624,27.65,1.98,-3.65,1
1625,27.67,7.52,4.21,1
1626,27.68,7.53,-7.17,1
1627,27.69,13.01,-5.84,1
1628,27.71,2.37,-9.79,1
1629,27.72,16.21,-9.08,1
1630,27.73,-0.6,-2.5,1
1631,27.75,13.29,-17.73,1
1632,27.76,-0.97,5.01,1
1633,27.77,5.75,5.46,1
1634,27.79,13.72,-0.67,1
1635,27.8,5.1,1.2,1
1636,27.81,6.92,5.61,1
1637,27.83,1.77,10.68,1
1638,27.84,2.03,-4.56,1
1639,27.85,-0.1,-2.92,1
1640,27.87,-3.43,12.59,1
1641,27.88,-9.19,3.21,1
1642,27.89,3.7,7.63,1
1643,27.91,11.9,2.16,1
1644,27.92,8.54,7.52,1
1645,27.93,14.53,9.47,1
1646,27.94,-4.25,-0.09,1
1647,27.96,3.62,-12.85,1
1648,27.97,-2.9,5.94,1
1649,27.98,-1.64,7.57,1
1650,28.0,2.95,-8.54,1
1651,28.01,1.72,3.0,1
1652,28.02,-4.04,12.19,1
1653,28.04,-1.34,0.45,1
1654,28.05,-16.41,-8.95,1
1655,28.06,0.45,16.54,1
1656,28.08,-8.53,8.19,1
1657,28.09,-7.95,1.8,1
1658,28.1,18.9,21.45,1
1659,28.12,8.08,-7.47,1
1660,28.13,-7.11,10.22,1
1661,28.15,-1.03,2.77,1
1662,28.16,-1.38,-6.27,0
1663,28.17,-1.63,5.38,0
1664,28.19,31.28,-2.2,0
1665,28.2,0.5,4.73,0
1666,28.21,11.46,1.52,0
1667,28.23,-5.91,-15.64,0
1668,28.24,12.03,-26.48,0
1669,28.25,8.18,-12.0,0
1670,28.27,-9.75,-10.51,0
1671,28.28,1.83,-16.28,0
1672,28.29,-8.86,-7.61,0
1673,28.31,-6.42,-2.45,0
1674,28.32,-22.06,-10.76,0
1675,28.33,-4.69,-15.02,0
1676,28.35,1.04,-6.02,0
1677,28.36,-3.93,5.37,0
1678,28.37,-19.47,8.99,0
1679,28.39,-0.28,16.33,0
1680,28.4,-2.1,-7.79,0
1681,28.41,-61.83,21.36,0
1682,28.43,-78.09,28.6,0
1683,28.44,-102.04,8.1,0
1684,28.45,-117.12,22.88,0
1685,28.47,-122.79,13.47,0
1686,28.48,-119.89,8.35,0
1687,28.49,-105.73,2.1,0
1688,28.51,-62.74,-13.91,0
1689,28.52,-16.21,-23.46,0
1690,28.53,-9.7,18.16,0
1691,28.55,68.1,2.97,1
1692,28.56,115.16,5.41,1
1693,28.57,176.03,2.22,1
1694,28.58,199.35,10.5,1
1695,28.6,194.21,5.94,1
1696,28.61,184.53,-1.84,1
1697,28.62,176.28,8.68,1
1698,28.64,154.0,0.98,1
1699,28.65,122.0,-12.61,1
1700,28.67,104.15,-40.09,1
1701,28.68,80.08,-22.72,1
1702,28.69,52.95,-3.29,1
1703,28.7,35.85,-20.56,1
1704,28.72,26.27,-18.01,1
1705,28.73,-2.95,-13.81,1
1706,28.75,6.08,0.41,1
1707,28.76,-22.64,-1.14,1
1708,28.77,-19.46,-10.98,1
1709,28.79,-44.25,7.41,1
1710,28.8,-67.49,15.51,1
1711,28.81,-68.56,-6.63,1
1712,28.83,-67.97,24.22,1
1713,28.84,-67.94,28.36,1
1714,28.85,-58.21,4.84,1
1715,28.87,-62.31,-1.43,1
1716,28.88,-73.64,-8.78,1
1717,28.89,-66.66,14.54,1
1718,28.91,-70.3,-1.6,1
1719,28.92,-61.7,3.39,1
1720,28.93,-60.74,12.57,1
1721,28.95,-61.02,1.7,1
1722,28.96,-76.61,2.17,1
1723,28.97,-60.93,-19.06,1
1724,28.99,-52.12,-9.88,1
1725,29.0,-52.52,0.74,1
1726,29.01,-40.41,6.65,1
1727,29.03,-40.31,-12.12,1
1728,29.04,-34.04,11.79,1
1729,29.05,-38.8,5.71,1
1730,29.07,-25.58,3.02,1
1731,29.08,-25.66,12.41,1
1732,29.09,-22.58,14.44,1
1733,29.11,-23.31,15.82,1
1734,29.12,3.68,-3.72,1
1735,29.13,1.02,-10.76,1
1736,29.15,10.26,-6.83,1
1737,29.16,10.32,-16.86,1
1738,29.17,8.6,-3.6,1
1739,29.19,8.75,-1.16,1
1740,29.2,13.32,-7.92,1
1741,29.21,11.39,-15.44,1
1742,29.22,24.46,-5.1,1
1743,29.24,9.53,-16.87,1
1744,29.25,8.42,0.14,1
1745,29.26,17.61,-7.55,1
1746,29.28,27.72,-2.49,1
1747,29.29,16.28,-16.93,1
1748,29.3,24.86,-4.53,1
1749,29.32,29.05,-13.01,1
1750,29.33,29.52,-5.33,1
1751,29.34,33.04,16.9,1
1752,29.36,20.85,10.48,1
1753,29.37,29.02,4.31,1
1754,29.38,27.24,-1.63,1
1755,29.4,19.6,14.12,1
1756,29.41,24.03,6.1,1
1757,29.42,44.29,-4.54,1
1758,29.44,21.69,11.91,1
1759,29.45,24.14,-14.56,1
1760,29.47,10.29,3.66,1
1761,29.48,12.51,2.1,1
1762,29.49,14.92,5.92,1
1763,29.51,16.26,6.31,1
1764,29.52,19.19,6.85,1
1765,29.53,8.95,-4.51,1
1766,29.55,0.51,17.63,1
1767,29.56,14.42,11.72,1
1768,29.57,19.58,17.74,1
1769,29.59,4.24,6.22,1
1770,29.6,-1.53,-2.55,1
1771,29.61,-0.04,10.05,1
1772,29.63,9.1,2.35,1
1773,29.64,8.47,-5.95,1
1774,29.65,-4.5,15.8,1
1775,29.67,3.51,11.08,1
1776,29.68,-0.45,-15.78,1
1777,29.69,3.76,0.09,1
1778,29.71,3.29,20.04,1
1779,29.72,2.61,2.26,1
1780,29.73,9.79,7.95,1
1781,29.75,-0.39,-5.55,1
1782,29.76,1.9,-12.18,1
1783,29.77,1.69,-8.47,1
1784,29.79,-21.45,-6.88,1
1785,29.8,-2.18,-20.82,1
1786,29.81,-22.14,4.96,1
1787,29.83,-4.15,-3.7,1
1788,29.84,-19.57,-6.86,1
1789,29.85,-6.54,9.7,1
1790,29.86,-10.38,6.77,1
1791,29.88,-7.97,5.72,1
1792,29.89,-7.26,1.77,1
1793,29.9,-3.8,7.69,1
1794,29.92,-9.79,13.85,1
1795,29.93,-23.52,-22.39,1
1796,29.94,4.63,-15.34,1
1797,29.96,-6.93,16.64,1
1798,29.97,-11.9,7.93,1
1799,29.98,-17.67,-15.93,1
1800,30.0,-4.18,3.42,1
1801,30.01,3.73,-9.63,1
1802,30.02,-6.07,-10.84,1
1803,30.04,-4.34,-8.93,1
1804,30.05,-16.84,-5.77,1
1805,30.06,-0.35,9.44,1
1806,30.08,-14.88,-10.64,1
1807,30.09,7.29,-23.61,1
1808,30.11,-0.76,15.15,1
1809,30.12,-6.13,-5.91,1
1810,30.13,5.35,-7.6,1
1811,30.15,-8.1,5.09,1
1812,30.16,-3.11,-14.0,0
1813,30.17,5.55,-15.08,0
1814,30.19,-4.11,-13.72,0
1815,30.2,-2.45,-24.41,0
1816,30.21,11.14,-4.79,0
1817,30.23,-8.36,23.33,0
1818,30.24,-72.8,0.98,0
1819,30.25,-108.52,10.49,0
1820,30.27,-136.59,19.33,0
1821,30.28,-120.76,14.49,0
1822,30.29,-82.15,-6.97,0
1823,30.31,-48.25,-17.73,0
1824,30.32,-4.48,-9.95,0
1825,30.33,21.46,-26.84,0
1826,30.35,64.05,-10.48,0
1827,30.36,68.22,5.95,0
1828,30.37,99.67,-12.41,0
1829,30.39,113.75,9.96,0
1830,30.4,114.85,-10.1,0
1831,30.41,113.42,2.73,0
1832,30.43,102.64,10.61,0
1833,30.44,112.98,7.26,0
1834,30.45,103.3,-3.24,0
1835,30.47,80.96,22.27,0
1836,30.48,63.31,26.65,0
1837,30.49,64.38,4.94,0
1838,30.5,33.3,22.02,0
1839,30.52,32.07,13.85,0
1840,30.53,31.8,21.54,0
1841,30.54,16.65,9.59,0
1842,30.56,-2.75,10.49,1
1843,30.57,-15.11,2.87,1
1844,30.58,-12.99,6.53,1
1845,30.6,-17.7,6.54,1
1846,30.61,-23.06,0.66,1
1847,30.62,-31.64,-5.02,1
1848,30.64,-46.05,-11.0,1
1849,30.65,-36.67,13.01,1
1850,30.67,-41.12,38.56,1
1851,30.68,-50.07,1.68,1
1852,30.69,-64.69,15.23,1
1853,30.7,-58.38,15.37,1
1854,30.72,-60.72,4.35,1
1855,30.73,-36.89,-20.98,1
1856,30.75,-71.54,-22.51,1
1857,30.76,-31.89,-10.21,1
1858,30.77,-44.41,-2.17,1
1859,30.79,-35.47,-4.54,1
1860,30.8,-37.12,-27.74,1
1861,30.81,-49.43,6.94,1
1862,30.83,-19.22,-6.52,1
1863,30.84,-37.28,-14.56,1
1864,30.85,-28.18,-8.4,1
1865,30.87,-20.14,-5.44,1
1866,30.88,-12.46,-5.4,1
1867,30.89,-22.34,-1.52,1
1868,30.91,-17.33,-12.45,1
1869,30.92,-22.29,-1.89,1
1870,30.93,-32.06,-3.2,1
1871,30.95,-28.28,-17.35,1
1872,30.96,-15.09,-15.21,1
1873,30.97,1.76,-15.12,1
1874,30.99,14.59,-14.21,1
1875,31.0,9.76,-25.97,1
1876,31.01,14.86,-18.79,1
1877,31.03,12.14,3.34,1
1878,31.04,15.63,9.83,1
1879,31.05,7.44,-7.46,1
1880,31.07,37.69,19.14,1
1881,31.08,30.54,-9.2,1
1882,31.09,19.7,10.57,1
1883,31.11,25.78,7.49,1
1884,31.12,10.64,-2.34,1
1885,31.13,19.17,8.39,1
1886,31.14,20.32,7.67,1
1887,31.16,28.68,-15.4,1
1888,31.17,7.64,2.18,1
1889,31.18,24.62,3.89,1
1890,31.2,17.85,14.98,1
1891,31.21,9.31,15.81,1
1892,31.22,19.47,2.61,1
1893,31.24,2.31,-0.03,1
1894,31.25,27.91,14.99,1
1895,31.26,16.25,4.25,1
1896,31.28,11.97,12.74,1
1897,31.29,9.91,8.71,1
1898,31.3,13.05,-5.57,1
1899,31.32,18.58,8.59,1
1900,31.33,18.75,12.29,1
1901,31.34,10.37,17.71,1
1902,31.36,13.27,4.28,1
1903,31.37,22.85,1.27,1
1904,31.39,-4.29,-4.15,1
1905,31.4,-7.26,-14.81,1
1906,31.41,4.69,-0.6,1
1907,31.43,18.79,-13.58,1
1908,31.44,-1.67,7.72,1
1909,31.45,7.2,-3.95,1
1910,31.47,-3.78,-12.13,1
1911,31.48,-9.44,-7.18,1
1912,31.49,0.48,5.0,1
1913,31.51,-0.41,-4.85,1
1914,31.52,-12.95,10.34,1
1915,31.53,5.81,1.51,1
1916,31.55,-4.3,20.24,1
1917,31.56,6.83,-10.3,1
1918,31.57,15.74,-10.04,1
1919,31.59,-3.67,-1.46,1
1920,31.6,-3.67,16.3,1
1921,31.61,-19.77,-2.72,1
1922,31.63,0.89,21.57,1
1923,31.64,-2.92,-7.1,1
1924,31.65,-11.96,7.74,1
1925,31.67,-3.71,14.56,1
1926,31.68,-13.21,16.13,1
1927,31.69,-14.12,2.76,1
1928,31.71,-17.78,-11.93,1
1929,31.72,-11.25,-9.89,1
1930,31.73,11.7,-18.04,1
1931,31.75,8.23,9.74,1
1932,31.76,-8.88,-20.58,1
1933,31.77,-6.51,-17.72,1
1934,31.78,-4.92,-8.18,1
1935,31.8,-4.14,12.66,1
1936,31.81,-13.36,1.99,1
1937,31.82,-6.29,-10.11,1
1938,31.84,-4.56,-3.06,1
1939,31.85,-10.74,6.09,1
1940,31.86,-4.32,8.53,1
1941,31.88,-1.1,3.3,1
1942,31.89,-7.23,8.37,1
1943,31.9,2.08,-10.07,1
1944,31.92,9.12,-13.67,1
1945,31.93,-8.19,-1.1,1
1946,31.94,-7.33,-2.7,1
1947,31.96,6.37,-2.41,1
1948,31.97,-15.68,3.79,1
1949,31.98,-7.46,-0.55,1
1950,32.0,-2.1,-10.76,1
1951,32.01,-2.15,2.62,1
1952,32.03,-1.7,-14.71,1
1953,32.04,0.96,-0.06,1
1954,32.05,-11.24,-4.63,1
1955,32.07,-10.96,15.94,1
1956,32.08,10.31,-6.52,1
1957,32.09,10.94,-16.16,1
1958,32.11,17.86,-7.94,1
1959,32.12,3.84,-0.46,1
1960,32.13,1.8,11.73,1
1961,32.15,8.68,17.91,1
1962,32.16,12.72,3.68,2
1963,32.17,-4.4,0.55,2
1964,32.19,-2.62,1.21,2
1965,32.2,5.38,6.06,2
1966,32.21,-4.99,19.04,2
1967,32.23,11.32,-34.47,2
1968,32.24,62.43,-30.25,2
1969,32.25,108.26,-5.55,2
1970,32.27,127.66,-2.91,2
1971,32.28,131.28,19.96,2
1972,32.29,144.09,14.2,2
1973,32.31,128.81,4.68,2
1974,32.32,84.93,-11.21,2
1975,32.33,56.07,-9.45,2
1976,32.35,19.41,2.25,2
1977,32.36,-37.08,-1.7,2
1978,32.37,-74.6,8.53,2
1979,32.39,-146.42,13.08,2
1980,32.4,-200.56,21.77,2
1981,32.41,-206.07,23.53,2
1982,32.43,-204.28,9.72,2
1983,32.44,-194.06,21.06,2
1984,32.45,-190.85,21.69,2
1985,32.47,-171.05,8.85,2
1986,32.48,-149.44,7.8,2
1987,32.49,-114.7,7.34,2
1988,32.51,-83.14,-8.46,2
1989,32.52,-64.02,-12.95,2
1990,32.53,-46.88,-16.96,2
1991,32.54,-16.03,-24.24,2
1992,32.56,2.5,-14.29,1
1993,32.57,14.2,-8.17,1
1994,32.59,33.38,-15.9,1
1995,32.6,41.97,-23.42,1
1996,32.61,52.76,-27.76,1
1997,32.63,68.43,-31.47,1
1998,32.64,74.27,-42.5,1
1999,32.65,93.43,-14.83,1
2000,32.67,91.84,-10.59,1
2001,32.68,82.63,7.05,1
2002,32.69,95.9,25.3,1
2003,32.71,81.03,46.47,1
2004,32.72,85.44,28.44,1
2005,32.73,91.66,14.9,1
2006,32.75,83.33,2.85,1
2007,32.76,73.67,-3.05,1
2008,32.77,79.95,5.23,1
2009,32.79,60.46,19.06,1
2010,32.8,61.23,9.29,1
2011,32.81,52.37,17.53,1
2012,32.83,49.08,8.97,1
2013,32.84,61.39,-2.52,1
2014,32.85,43.52,14.6,1
2015,32.87,31.22,-14.54,1
2016,32.88,27.62,-8.32,1
2017,32.89,24.57,-13.13,1
2018,32.91,-1.18,8.6,1
2019,32.92,22.44,5.96,1
2020,32.93,5.28,10.47,1
2021,32.95,7.39,6.71,1
2022,32.96,0.28,-14.69,1
2023,32.97,-5.49,-12.81,1
2024,32.99,-19.67,-1.99,1
2025,33.0,-15.77,4.69,1
2026,33.01,-26.73,4.11,1
2027,33.03,-4.51,-2.36,1
2028,33.04,-21.71,-6.44,1
2029,33.05,-16.43,-12.32,1
2030,33.06,-32.88,3.06,1
2031,33.08,-38.59,4.45,1
2032,33.09,-30.07,-6.36,1
2033,33.11,-34.43,-8.01,1
2034,33.12,-29.97,2.07,1
2035,33.13,-34.29,12.39,1
2036,33.15,-30.39,-1.93,1
2037,33.16,-41.82,12.31,1
2038,33.17,-33.21,2.33,1
2039,33.19,-22.6,3.7,1
2040,33.2,-22.33,-11.98,1
2041,33.21,-23.99,-16.0,1
2042,33.22,-14.49,-2.3,1
2043,33.24,-25.95,-3.29,1
2044,33.25,-32.43,-2.7,1
2045,33.27,-30.87,12.68,1
2046,33.28,-23.21,5.68,1
2047,33.29,-26.98,-8.59,1
2048,33.31,-7.27,5.93,1
2049,33.32,-26.92,6.36,1
2050,33.33,-15.6,4.34,1
2051,33.35,-14.69,4.38,1
2052,33.36,-22.86,8.64,1
2053,33.37,-2.95,16.37,1
2054,33.39,-6.39,-22.49,1
2055,33.4,-3.44,-11.31,1
2056,33.41,1.67,-10.91,1
2057,33.43,-3.11,-7.4,1
2058,33.44,5.67,-3.51,1
2059,33.45,-9.13,-2.07,1
2060,33.47,-0.25,-14.73,1
2061,33.48,8.08,5.61,1
2062,33.49,13.75,-10.22,1
2063,33.51,-6.39,0.75,1
2064,33.52,-6.86,10.05,1
2065,33.53,5.15,3.64,1
2066,33.55,-3.33,-4.21,1
2067,33.56,13.95,5.31,1
2068,33.57,11.67,6.52,1
2069,33.59,2.0,1.66,1
2070,33.6,9.7,10.09,1
2071,33.61,14.49,-7.51,1
2072,33.63,0.24,1.98,1
2073,33.64,10.64,-8.74,1
2074,33.65,-0.1,4.82,1
2075,33.67,14.09,5.95,1
2076,33.68,12.63,-3.71,1
2077,33.69,19.35,4.17,1
2078,33.71,11.33,4.6,1
2079,33.72,3.14,-10.4,1
2080,33.73,-6.26,-1.98,1
2081,33.75,6.75,-2.84,1
2082,33.76,9.25,-7.29,1
2083,33.77,4.27,-1.12,1
2084,33.79,5.17,9.34,1
2085,33.8,1.96,14.13,1
2086,33.81,7.31,8.43,1
2087,33.83,23.93,-17.13,1
2088,33.84,9.54,-5.97,1
2089,33.85,11.34,-3.58,1
2090,33.87,1.49,-11.0,1
2091,33.88,1.97,6.48,1
2092,33.89,9.98,7.98,1
2093,33.9,16.9,16.84,1
2094,33.92,-2.13,1.93,1
2095,33.93,13.12,-21.84,1
2096,33.95,4.83,-3.89,1
2097,33.96,7.01,9.74,1
2098,33.97,-18.63,9.27,1
2099,33.99,-12.84,11.1,1
2100,34.0,6.32,0.95,1
2101,34.01,14.71,0.3,1
2102,34.03,4.66,-4.56,1
2103,34.04,5.21,16.9,1
2104,34.05,-16.54,-6.67,1
2105,34.07,-17.49,-6.47,1
2106,34.08,-4.46,-0.68,1
2107,34.09,5.51,9.43,1
2108,34.11,12.36,28.4,1
2109,34.12,-5.17,61.81,1
2110,34.13,7.58,52.64,1
2111,34.15,11.82,146.41,1
2112,34.16,49.07,354.81,1
2113,34.17,45.7,111.04,1
2114,34.19,-191.53,-85.85,1
2115,34.2,-82.14,202.79,1
2116,34.21,-179.24,161.1,1
2117,34.23,81.19,119.87,1
2118,34.24,248.74,60.81,1
2119,34.25,175.32,14.29,1
2120,34.27,270.98,-28.21,1
2121,34.28,97.5,-63.86,1
2122,34.29,93.8,-93.09,1
2123,34.31,99.25,-116.96,1
2124,34.32,36.17,-236.4,1
2125,34.33,-64.31,-479.32,1
2126,34.35,-336.08,-391.57,1
2127,34.36,29.16,-312.75,1
2128,34.37,-44.87,-178.21,1
2129,34.38,34.7,-121.89,1
2130,34.4,-220.88,-335.98,1
2131,34.41,-109.16,-265.65,1
2132,34.43,-315.47,-566.68,1
2133,34.44,-78.94,-0.34,1
2134,34.45,-254.64,-258.14,1
2135,34.47,11.1,-19.04,1
2136,34.48,-78.88,-43.13,1
2137,34.49,85.46,-51.34,1
2138,34.51,-119.23,96.52,1
2139,34.52,-9.99,454.84,1
2140,34.53,-114.86,219.01,1
2141,34.54,-128.62,-38.56,1
2142,34.56,209.31,78.82,1
2143,34.57,197.35,306.89,1
2144,34.59,-80.74,296.08,1
2145,34.6,84.25,56.32,1
2146,34.61,-44.95,104.93,1
2147,34.63,193.1,199.73,1
2148,34.64,-205.53,234.82,1
2149,34.65,-11.27,440.16,1
2150,34.67,40.91,5.38,1
2151,34.68,-38.21,398.56,1
2152,34.69,-10.88,19.9,1
2153,34.71,-40.74,161.46,1
2154,34.72,192.39,-87.94,1
2155,34.73,75.49,-59.82,1
2156,34.75,311.19,-17.5,1
2157,34.76,99.75,208.16,1
2158,34.77,103.84,15.55,1
2159,34.79,48.99,-268.34,1
2160,34.8,-30.9,215.71,1
2161,34.81,121.3,193.49,1
2162,34.83,-46.62,-91.37,1
2163,34.84,58.0,-140.31,1
2164,34.85,229.6,37.77,1
2165,34.87,53.07,-85.58,1
2166,34.88,-133.35,187.37,1
2167,34.89,-14.47,149.12,1
2168,34.91,65.05,87.87,1
2169,34.92,-90.52,109.87,1
2170,34.93,39.56,-115.35,1
2171,34.95,-9.03,-171.78,1
2172,34.96,87.92,-211.64,1
2173,34.97,-98.19,-146.34,1
2174,34.99,114.82,-101.79,1
2175,35.0,51.85,112.71,1
2176,35.01,73.29,-38.09,1
2177,35.03,-84.47,88.43,1
2178,35.04,-137.35,163.25,1
2179,35.05,-60.73,-280.34,1
2180,35.06,-351.5,-98.47,1
2181,35.08,63.2,-268.56,1
2182,35.09,-47.8,-290.15,1
2183,35.11,-51.55,-128.43,1
2184,35.12,-162.28,-48.07,1
2185,35.13,-146.73,35.46,1
2186,35.15,-79.49,-6.16,1
2187,35.16,-109.67,-28.12,1
2188,35.17,-29.05,1.22,1
2189,35.19,-15.39,21.81,1
2190,35.2,57.26,53.14,1
2191,35.21,49.42,38.25,1
2192,35.22,83.79,41.93,1
2193,35.24,64.6,99.87,1
2194,35.25,91.82,125.74,1
2195,35.27,79.27,92.48,1
2196,35.28,71.23,114.89,1
2197,35.29,84.38,117.42,1
2198,35.31,55.07,112.22,1
2199,35.32,68.31,81.95,1
2200,35.33,74.18,44.2,1
2201,35.35,59.83,31.4,1
2202,35.36,51.68,40.24,1
2203,35.37,24.91,4.64,1
2204,35.39,32.81,-21.22,1
2205,35.4,30.02,-31.0,1
2206,35.41,-8.76,-35.27,1
2207,35.43,-7.0,-60.62,1
2208,35.44,-25.73,-24.21,1
2209,35.45,8.09,-53.22,1
2210,35.47,-15.07,-69.64,1
2211,35.48,-40.14,-67.75,1
2212,35.49,-29.36,-72.8,1
2213,35.51,-39.76,-87.48,1
2214,35.52,-61.03,-77.6,1
2215,35.53,-48.53,-72.21,1
2216,35.55,-56.06,-87.02,1
2217,35.56,-49.75,-93.52,1
2218,35.57,-62.27,-74.0,1
2219,35.59,-46.67,-78.11,1
2220,35.6,-47.18,-67.54,1
2221,35.61,-36.7,-49.79,1
2222,35.63,-38.94,-34.52,1
2223,35.64,-32.81,-36.29,1
2224,35.65,-13.36,-24.24,1
2225,35.67,-21.47,-13.17,1
2226,35.68,-29.95,-15.92,1
2227,35.69,-20.92,-28.87,1
2228,35.71,-11.48,-21.54,1
2229,35.72,-11.1,-16.65,1
2230,35.73,-22.63,1.76,1
2231,35.75,-18.81,-5.9,1
2232,35.76,-9.85,1.4,1
2233,35.77,-4.66,15.86,1
2234,35.79,2.91,2.98,1
2235,35.8,8.86,0.89,1
2236,35.81,5.47,12.31,1
2237,35.83,12.06,-0.19,1
2238,35.84,21.15,24.72,1
2239,35.85,7.04,48.72,1
2240,35.87,16.04,41.19,1
2241,35.88,12.33,44.92,1
2242,35.89,24.64,36.38,1
2243,35.9,17.43,65.12,1
2244,35.92,31.6,65.2,1
2245,35.93,10.41,44.05,1
2246,35.95,20.01,56.53,1
2247,35.96,27.32,38.46,1
2248,35.97,11.94,27.67,1
2249,35.99,12.49,13.96,1
2250,36.0,7.13,38.68,1
2251,36.01,25.06,23.88,1
2252,36.03,6.81,48.54,1
2253,36.04,29.03,38.89,1
2254,36.05,3.53,28.55,1
2255,36.07,16.28,39.42,1
2256,36.08,3.18,20.87,1
2257,36.09,18.24,23.1,1
2258,36.11,14.83,32.66,1
2259,36.12,9.26,24.47,1
2260,36.13,22.89,30.94,1
2261,36.15,2.21,6.72,1
2262,36.16,9.95,14.03,2
2263,36.17,24.72,25.39,2
2264,36.19,8.33,8.06,2
2265,36.2,13.03,-2.52,2
2266,36.21,25.09,-21.71,2
2267,36.23,22.07,-26.58,2
2268,36.24,104.0,-2.65,2
2269,36.25,134.34,-8.49,2
2270,36.27,129.97,-11.11,2
2271,36.28,104.58,-34.3,2
2272,36.29,60.17,-20.14,2
2273,36.31,8.86,-20.47,2
2274,36.32,-30.84,8.48,2
2275,36.33,-60.2,5.18,2
2276,36.35,-89.89,-3.07,2
2277,36.36,-94.91,18.0,2
2278,36.37,-117.93,19.04,2
2279,36.38,-102.9,30.17,2
2280,36.4,-106.98,27.31,2
2281,36.41,-108.78,29.03,2
2282,36.43,-90.04,23.32,2
2283,36.44,-85.44,21.61,2
2284,36.45,-70.19,31.32,2
2285,36.47,-57.83,12.79,2
2286,36.48,-53.17,-6.94,2
2287,36.49,-44.25,-22.63,2
2288,36.51,-32.76,-50.17,2
2289,36.52,-39.68,-42.1,2
2290,36.53,-14.2,-35.06,2
2291,36.54,-12.13,-31.58,2
2292,36.56,-17.55,-32.52,1
2293,36.57,-6.33,-28.93,1
2294,36.59,-4.58,-46.6,1
2295,36.6,11.32,-26.24,1
2296,36.61,34.49,-27.42,1
2297,36.63,23.57,-33.02,1
2298,36.64,34.27,-32.38,1
2299,36.65,35.72,-18.73,1
2300,36.67,40.92,-20.67,1
2301,36.68,50.54,-4.79,1
2302,36.69,44.95,-13.34,1
2303,36.71,48.65,-20.02,1
2304,36.72,42.56,-22.64,1
2305,36.73,48.99,-7.96,1
2306,36.75,41.71,1.62,1
2307,36.76,46.48,-12.88,1
2308,36.77,35.81,-2.83,1
2309,36.79,29.91,8.75,1
2310,36.8,43.05,-2.99,1
2311,36.81,33.1,-19.46,1
2312,36.83,47.71,1.66,1
2313,36.84,40.8,0.13,1
2314,36.85,8.0,-25.83,1
2315,36.87,40.52,-8.33,1
2316,36.88,33.58,-1.31,1
2317,36.89,18.19,9.61,1
2318,36.9,7.42,8.62,1
2319,36.92,14.38,24.72,1
2320,36.93,15.89,7.67,1
2321,36.95,-4.59,16.18,1
2322,36.96,-6.96,2.07,1
2323,36.97,-3.95,23.88,1
2324,36.99,-8.72,42.64,1
2325,37.0,-14.07,14.2,1
2326,37.01,-14.38,-4.62,1
2327,37.03,-16.92,4.49,1
2328,37.04,-9.68,18.87,1
2329,37.05,1.98,8.17,1
2330,37.06,-8.49,22.18,1
2331,37.08,-14.86,18.28,1
2332,37.09,-10.2,19.23,1
2333,37.11,-21.26,0.21,1
2334,37.12,-23.3,10.68,1
2335,37.13,-25.64,8.21,1
2336,37.15,3.75,-6.62,1
2337,37.16,-15.74,5.21,1
2338,37.17,-12.86,27.22,1
2339,37.19,-23.17,2.53,1
2340,37.2,-4.84,5.71,1
2341,37.21,-8.47,7.67,1
2342,37.22,-23.9,5.02,1
2343,37.24,-19.97,-5.87,1
2344,37.25,-8.81,-10.3,1
2345,37.27,-25.73,4.77,1
2346,37.28,-18.15,14.5,1
2347,37.29,-15.82,13.94,1
2348,37.31,-16.2,7.69,1
2349,37.32,-13.44,6.36,1
2350,37.33,-20.18,-13.63,1
2351,37.35,0.71,-6.92,1
2352,37.36,-12.78,-7.24,1
2353,37.37,-0.57,-6.6,1
2354,37.39,0.06,-11.74,1
2355,37.4,-5.99,-3.81,1
2356,37.41,-1.29,-5.66,1
2357,37.43,-11.65,-8.34,1
2358,37.44,-0.24,-11.25,1
2359,37.45,1.6,4.3,1
2360,37.47,-1.43,-12.6,1
2361,37.48,10.3,-8.09,1
2362,37.49,5.13,-14.64,1
2363,37.51,2.04,-7.39,1
2364,37.52,-3.97,9.16,1
2365,37.53,10.52,-2.51,1
2366,37.54,9.81,-14.57,1
2367,37.56,1.82,-13.92,1
2368,37.57,0.91,2.39,1
2369,37.59,3.15,-3.72,1
2370,37.6,-2.06,-6.18,1
2371,37.61,3.83,-2.55,1
2372,37.63,-8.58,10.69,1
2373,37.64,-7.27,1.37,1
2374,37.65,-1.83,-5.56,1
2375,37.67,3.06,8.72,1
2376,37.68,-0.25,5.83,1
2377,37.69,9.96,1.27,1
2378,37.71,8.84,2.27,1
2379,37.72,10.39,5.34,1
2380,37.73,14.84,-6.11,1
2381,37.75,0.33,2.82,1
2382,37.76,6.08,-1.39,1
2383,37.77,4.88,-9.28,1
2384,37.79,19.3,-5.92,1
2385,37.8,-0.06,-1.35,1
2386,37.81,9.89,-1.5,1
2387,37.83,-4.71,-9.75,1
2388,37.84,-10.67,-5.91,1
2389,37.85,10.77,-2.34,1
2390,37.87,-4.57,2.76,1
2391,37.88,5.97,-13.82,1
2392,37.89,-0.88,-7.27,1
2393,37.91,-10.73,11.18,1
2394,37.92,20.36,-2.95,1
2395,37.93,1.09,8.93,1
2396,37.95,-3.2,7.85,1
2397,37.96,-4.47,9.29,1
2398,37.97,5.05,15.61,1
2399,37.99,2.36,9.79,1
2400,38.0,3.88,3.83,1
2401,38.01,4.55,-4.57,1
2402,38.03,3.21,10.3,1
2403,38.04,1.93,14.58,1
2404,38.05,-3.08,-0.98,1
2405,38.07,-8.8,-1.51,1
2406,38.08,1.36,4.97,1
2407,38.09,-25.18,5.62,1
2408,38.11,6.7,9.03,1
2409,38.12,13.74,2.62,1
2410,38.13,-4.67,0.26,1
2411,38.15,9.45,1.31,1
2412,38.16,-1.65,2.45,0
2413,38.17,4.3,0.61,0
2414,38.19,3.04,9.63,0
2415,38.2,-1.67,-10.46,0
2416,38.21,21.23,-7.23,0
2417,38.22,-60.04,-3.43,0
2418,38.24,-94.92,-7.56,0
2419,38.25,-124.53,2.88,0
2420,38.27,-134.16,-11.35,0
2421,38.28,-134.56,-14.7,0
2422,38.29,-97.33,-13.84,0
2423,38.31,-76.31,-16.56,0
2424,38.32,-54.04,-18.92,0
2425,38.33,-1.18,-14.31,0
2426,38.35,25.05,-17.82,0
2427,38.36,71.79,18.87,0
2428,38.37,140.38,15.68,0
2429,38.38,171.46,29.57,0
2430,38.4,185.47,52.38,0
2431,38.41,199.65,6.27,0
2432,38.43,172.79,26.65,0
2433,38.44,169.48,3.91,0
2434,38.45,147.62,14.25,0
2435,38.47,116.62,12.11,0
2436,38.48,85.12,-11.4,0
2437,38.49,71.24,-13.67,0
2438,38.51,46.34,-9.73,0
2439,38.52,34.92,-24.3,0
2440,38.53,15.68,-32.99,0
2441,38.55,-6.53,-23.12,0
2442,38.56,-22.55,-11.7,1
2443,38.57,-35.86,-32.22,1
2444,38.59,-52.8,-17.63,1
2445,38.6,-48.3,-6.48,1
2446,38.61,-61.05,1.88,1
2447,38.63,-76.34,-2.14,1
2448,38.64,-72.5,3.15,1
2449,38.65,-73.39,9.54,1
2450,38.67,-68.29,13.74,1
2451,38.68,-84.49,-2.01,1
2452,38.69,-67.1,7.91,1
2453,38.71,-70.0,7.92,1
2454,38.72,-69.75,7.93,1
2455,38.73,-61.31,14.34,1
2456,38.75,-55.25,31.75,1
2457,38.76,-64.99,1.88,1
2458,38.77,-71.9,-4.17,1
2459,38.79,-52.51,-6.67,1
2460,38.8,-51.58,-8.3,1
2461,38.81,-50.39,-8.4,1
2462,38.83,-49.04,23.29,1
2463,38.84,-46.06,17.51,1
2464,38.85,-29.39,24.17,1
2465,38.87,-21.66,15.13,1
2466,38.88,-8.29,-16.89,1
2467,38.89,-12.73,-13.55,1
2468,38.9,-7.93,-7.16,1
2469,38.92,-10.12,-18.76,1
2470,38.93,10.75,-23.94,1
2471,38.95,14.46,-3.78,1
2472,38.96,4.22,-4.51,1
2473,38.97,6.61,-5.92,1
2474,38.99,22.66,-7.44,1
2475,39.0,14.18,0.67,1
2476,39.01,17.7,-2.69,1
2477,39.03,17.92,-6.03,1
2478,39.04,3.78,1.26,1
2479,39.05,13.44,-1.53,1
2480,39.06,20.55,0.4,1
2481,39.08,19.46,-4.67,1
2482,39.09,21.72,-1.81,1
2483,39.11,33.23,-5.58,1
2484,39.12,34.29,0.86,1
2485,39.13,30.64,-0.43,1
2486,39.15,19.07,-7.65,1
2487,39.16,28.71,7.73,1
2488,39.17,34.75,28.68,1
2489,39.19,23.73,35.23,1
2490,39.2,24.17,0.23,1
2491,39.21,12.14,1.65,1
2492,39.23,24.03,8.14,1
2493,39.24,21.76,-6.25,1
2494,39.25,26.94,-6.17,1
2495,39.27,21.45,12.14,1
2496,39.28,30.9,24.36,1
2497,39.29,30.39,20.3,1
2498,39.31,21.63,17.62,1
2499,39.32,18.08,-0.5,1
2500,39.33,5.78,-12.1,1
2501,39.35,-2.66,-2.5,1
2502,39.36,3.78,-8.81,1
2503,39.37,25.9,-9.51,1
2504,39.39,2.75,1.37,1
2505,39.4,11.13,-8.88,1
2506,39.41,6.07,-12.58,1
2507,39.43,-0.84,9.79,1
2508,39.44,-10.25,11.16,1
2509,39.45,-3.59,0.93,1
2510,39.47,-0.52,-9.84,1
2511,39.48,7.68,-8.88,1
2512,39.49,-11.66,13.86,1
2513,39.51,-9.63,-6.53,1
2514,39.52,-15.41,-12.57,1
2515,39.53,-9.07,-4.83,1
2516,39.54,-4.64,14.69,1
2517,39.56,2.64,1.34,1
2518,39.57,1.6,-6.9,1
2519,39.59,9.33,-20.65,1
2520,39.6,-12.42,-2.93,1
2521,39.61,-20.63,-4.21,1
2522,39.63,-22.42,-16.91,1
2523,39.64,-15.27,-8.5,1
2524,39.65,-9.53,2.54,1
2525,39.67,-9.39,-19.38,1
2526,39.68,-13.37,-15.26,1
2527,39.69,-4.66,-9.33,1
2528,39.71,-5.76,0.87,1
2529,39.72,-7.94,2.63,1
2530,39.73,8.66,5.84,1
2531,39.75,3.15,-3.98,1
2532,39.76,6.94,-4.09,1
2533,39.77,-7.7,-7.11,1
2534,39.79,-8.38,-15.24,1
2535,39.8,-3.83,6.21,1
2536,39.81,-0.73,1.99,1
2537,39.83,-19.03,14.12,1
2538,39.84,-12.87,13.61,1
2539,39.85,-13.59,2.04,1
2540,39.87,8.01,-5.85,1
2541,39.88,-5.33,7.05,1
2542,39.89,5.48,3.69,1
2543,39.91,-0.98,20.58,1
2544,39.92,-4.8,18.71,1
2545,39.93,-11.24,14.08,1
2546,39.95,-6.01,12.59,1
2547,39.96,-1.72,13.53,1
2548,39.97,-5.57,13.19,1
2549,39.99,-0.67,0.31,1
2550,40.0,-4.95,4.59,1
2551,40.01,6.55,-1.75,1
2552,40.03,-13.44,19.48,1
2553,40.04,-3.63,10.26,1
2554,40.05,9.8,0.28,1
2555,40.07,-2.15,8.5,1
2556,40.08,-2.48,-6.76,1
2557,40.09,-19.56,-13.6,1
2558,40.11,14.97,-9.28,1
2559,40.12,8.93,-10.02,1
2560,40.13,-12.7,14.57,1
2561,40.15,21.06,-7.54,1
2562,40.16,-2.65,-9.19,0
2563,40.17,10.35,-28.89,0
2564,40.19,3.66,-9.96,0
2565,40.2,12.83,-11.29,0
2566,40.21,-1.32,6.76,0
2567,40.22,-5.19,-15.33,0
2568,40.24,-43.81,37.49,0
2569,40.25,-77.64,-32.93,0
2570,40.27,-121.71,4.57,0
2571,40.28,-131.1,-27.95,0
2572,40.29,-112.91,-22.31,0
2573,40.31,-57.04,-19.66,0
2574,40.32,-31.21,-26.32,0
2575,40.33,14.03,-17.45,0
2576,40.35,41.11,8.44,0
2577,40.36,56.93,-8.89,0
2578,40.37,100.15,31.47,0
2579,40.38,117.13,0.18,0
2580,40.4,125.59,9.39,0
2581,40.41,119.15,25.99,0
2582,40.43,82.73,6.4,0
2583,40.44,97.59,6.3,0
2584,40.45,100.37,-5.16,0
2585,40.47,100.94,27.52,0
2586,40.48,87.51,16.57,0
2587,40.49,57.97,-19.77,0
2588,40.51,65.49,-11.31,0
2589,40.52,30.77,16.3,0
2590,40.53,41.06,-3.19,0
2591,40.55,23.19,0.09,0
2592,40.56,13.26,-2.36,1
2593,40.57,18.92,21.5,1
2594,40.59,-0.67,-5.75,1
2595,40.6,-25.21,6.16,1
2596,40.61,-24.15,8.7,1
2597,40.63,-42.79,13.35,1
2598,40.64,-45.83,15.35,1
2599,40.65,-57.25,6.46,1
2600,40.67,-50.42,19.94,1
2601,40.68,-75.53,35.52,1
2602,40.69,-59.3,7.35,1
2603,40.71,-46.01,6.01,1
2604,40.72,-52.77,7.87,1
2605,40.73,-62.88,-4.99,1
2606,40.75,-54.79,-11.72,1
2607,40.76,-46.94,-21.36,1
2608,40.77,-43.87,3.7,1
2609,40.79,-45.89,-8.67,1
2610,40.8,-43.25,-16.57,1
2611,40.81,-36.53,-18.34,1
2612,40.83,-50.92,-11.11,1
2613,40.84,-54.45,-29.11,1
2614,40.85,-46.0,-37.66,1
2615,40.87,-24.53,-12.42,1
2616,40.88,-23.48,-0.08,1
2617,40.89,-18.65,1.04,1
2618,40.9,-9.34,-9.33,1
2619,40.92,-5.1,-10.56,1
2620,40.93,-2.9,-12.94,1
2621,40.95,-4.55,-14.17,1
2622,40.96,-1.77,-13.71,1
2623,40.97,5.4,-11.0,1
2624,40.99,4.11,-6.46,1
2625,41.0,-6.55,3.69,1
2626,41.01,14.32,-8.3,1
2627,41.03,13.19,3.56,1
2628,41.04,21.48,-2.0,1
2629,41.05,4.71,-15.17,1
2630,41.06,16.34,5.11,1
2631,41.08,17.53,11.17,1
2632,41.09,11.09,14.32,1
2633,41.11,19.34,18.84,1
2634,41.12,27.58,26.55,1
2635,41.13,11.17,15.52,1
2636,41.15,12.59,13.68,1
2637,41.16,18.2,7.39,1
2638,41.17,31.03,1.77,1
2639,41.19,27.07,43.1,1
2640,41.2,26.36,12.4,1
2641,41.21,10.62,27.51,1
2642,41.23,17.46,14.19,1
2643,41.24,20.97,-0.61,1
2644,41.25,19.25,4.59,1
2645,41.27,14.91,7.55,1
2646,41.28,13.59,10.42,1
2647,41.29,7.57,1.06,1
2648,41.31,3.0,4.05,1
2649,41.32,14.21,0.18,1
2650,41.33,19.96,21.19,1
2651,41.35,21.04,0.24,1
2652,41.36,4.97,1.0,1
2653,41.37,8.76,-11.01,1
2654,41.38,11.48,-16.01,1
2655,41.4,14.38,-9.26,1
2656,41.41,5.6,-18.75,1
2657,41.43,1.04,-2.52,1
2658,41.44,8.8,-13.25,1
2659,41.45,3.95,5.7,1
2660,41.47,-0.23,1.05,1
2661,41.48,4.98,-14.6,1
2662,41.49,-10.12,-29.26,1
2663,41.51,-7.78,-6.55,1
2664,41.52,6.04,-0.15,1
2665,41.53,-6.09,-8.77,1
2666,41.54,-16.95,1.47,1
2667,41.56,-7.38,-3.39,1
2668,41.57,-8.93,-10.1,1
2669,41.59,12.93,-2.23,1
2670,41.6,4.46,-1.01,1
2671,41.61,-9.02,2.13,1
2672,41.63,-3.98,-5.58,1
2673,41.64,-5.44,-6.83,1
2674,41.65,5.81,-0.81,1
2675,41.67,-17.32,-19.19,1
2676,41.68,-1.26,-16.05,1
2677,41.69,-12.06,6.75,1
2678,41.71,-9.15,20.45,1
2679,41.72,-13.29,-17.45,1
2680,41.73,-8.63,0.49,1
2681,41.75,-18.49,-15.16,1
2682,41.76,-18.13,-3.29,1
2683,41.77,-5.3,-1.04,1
2684,41.79,0.89,-5.89,1
2685,41.8,1.45,10.48,1
2686,41.81,1.07,13.33,1
2687,41.83,7.04,2.88,1
2688,41.84,-5.75,-4.22,1
2689,41.85,4.37,9.16,1
2690,41.87,0.84,-11.22,1
2691,41.88,-0.73,-15.34,1
2692,41.89,-9.84,13.15,1
2693,41.91,6.93,4.21,1
2694,41.92,7.01,9.77,1
2695,41.93,-14.08,17.53,1
2696,41.95,-1.69,11.05,1
2697,41.96,5.7,18.93,1
2698,41.97,-4.37,4.19,1
2699,41.99,-1.71,26.85,1
2700,42.0,3.3,17.24,1
2701,42.01,4.34,4.81,1
2702,42.03,-12.77,0.16,1
2703,42.04,-6.3,-21.51,1
2704,42.05,5.91,-7.67,1
2705,42.06,-5.32,-4.98,1
2706,42.08,-11.1,-12.27,1
2707,42.09,-7.73,1.96,1
2708,42.11,-3.15,6.73,1
2709,42.12,-5.91,-9.89,1
2710,42.13,1.74,7.64,1
2711,42.15,2.17,4.22,1
2712,42.16,12.26,-13.48,2
2713,42.17,7.41,-5.14,2
2714,42.19,22.64,-24.62,2
2715,42.2,7.74,-6.14,2
2716,42.21,11.37,1.13,2
2717,42.22,8.4,15.12,2
2718,42.24,-7.85,-22.56,2
2719,42.25,12.83,-9.88,2
2720,42.27,11.68,-14.86,2
2721,42.28,-3.41,-8.49,2
2722,42.29,12.84,-9.4,2
2723,42.31,18.17,8.23,2
2724,42.32,88.31,-12.14,2
2725,42.33,88.9,-5.37,2
2726,42.35,112.27,14.85,2
2727,42.36,135.96,2.81,2
2728,42.37,113.75,17.08,2
2729,42.38,91.62,21.7,2
2730,42.4,53.87,12.61,2
2731,42.41,29.85,22.89,2
2732,42.43,-4.78,35.77,2
2733,42.44,-26.65,31.79,2
2734,42.45,-113.96,29.73,2
2735,42.47,-170.18,49.54,2
2736,42.48,-212.15,31.28,2
2737,42.49,-205.84,8.4,2
2738,42.51,-190.86,22.33,2
2739,42.52,-180.63,-0.11,2
2740,42.53,-154.42,-8.25,2
2741,42.55,-130.82,-43.06,2
2742,42.56,-107.54,-15.54,1
2743,42.57,-90.99,-32.17,1
2744,42.59,-59.25,-22.65,1
2745,42.6,-49.16,-28.95,1
2746,42.61,-11.23,-5.43,1
2747,42.63,0.43,-22.71,1
2748,42.64,12.57,-54.74,1
2749,42.65,22.76,-35.25,1
2750,42.67,31.36,-23.21,1
2751,42.68,40.38,-2.93,1
2752,42.69,50.98,-15.12,1
2753,42.71,50.44,-3.57,1
2754,42.72,58.65,14.52,1
2755,42.73,60.41,18.01,1
2756,42.75,77.59,-12.3,1
2757,42.76,77.4,12.62,1
2758,42.77,77.48,8.73,1
2759,42.79,83.27,3.62,1
2760,42.8,73.15,-2.38,1
2761,42.81,61.49,21.97,1
2762,42.83,76.38,3.46,1
2763,42.84,68.67,16.8,1
2764,42.85,63.82,5.36,1
2765,42.87,62.68,-3.88,1
2766,42.88,59.22,-7.52,1
2767,42.89,46.68,-4.71,1
2768,42.9,49.91,-8.5,1
2769,42.92,62.02,17.91,1
2770,42.93,37.71,-13.81,1
2771,42.95,27.5,-7.26,1
2772,42.96,24.49,-2.16,1
2773,42.97,32.89,3.28,1
2774,42.99,21.48,2.26,1
2775,43.0,21.42,8.87,1
2776,43.01,12.53,-1.51,1
2777,43.03,9.2,15.08,1
2778,43.04,-3.82,-14.56,1
2779,43.05,-4.62,4.37,1
2780,43.06,-16.73,15.22,1
2781,43.08,-3.81,-4.89,1
2782,43.09,-10.67,-7.84,1
2783,43.11,-19.97,-4.58,1
2784,43.12,-15.64,-5.89,1
2785,43.13,-23.56,-2.83,1
2786,43.15,-28.35,0.86,1
2787,43.16,-22.28,-0.78,1
2788,43.17,-21.43,16.4,1
2789,43.19,-27.03,-1.73,1
2790,43.2,-28.16,-6.25,1
2791,43.21,-29.67,23.08,1
2792,43.23,-32.7,16.06,1
2793,43.24,-14.95,-1.79,1
2794,43.25,-24.95,-9.77,1
2795,43.27,-25.05,-3.8,1
2796,43.28,-16.74,13.21,1
2797,43.29,-28.16,-4.85,1
2798,43.31,-33.21,-17.88,1
2799,43.32,-36.0,-2.6,1
2800,43.33,-30.67,1.44,1
2801,43.35,-39.84,-1.77,1
2802,43.36,-22.93,4.11,1
2803,43.37,-26.53,7.77,1
2804,43.38,-16.14,7.92,1
2805,43.4,-9.41,4.18,1
2806,43.41,-23.03,1.91,1
2807,43.43,-16.79,0.51,1
2808,43.44,-6.44,0.2,1
2809,43.45,-32.84,-4.49,1
2810,43.47,-14.53,-6.21,1
2811,43.48,-11.24,10.36,1
2812,43.49,-10.91,-18.46,1
2813,43.51,-11.51,-5.38,1
2814,43.52,4.23,8.86,1
2815,43.53,3.18,0.33,1
2816,43.54,-1.83,1.2,1
2817,43.56,-7.17,-2.55,1
2818,43.57,3.3,14.04,1
2819,43.59,19.25,8.1,1
2820,43.6,19.25,-1.91,1
2821,43.61,18.54,-10.47,1
2822,43.63,4.61,-7.2,1
2823,43.64,-6.08,6.87,1
2824,43.65,1.03,4.78,1
2825,43.67,2.61,-14.25,1
2826,43.68,-14.09,0.86,1
2827,43.69,21.45,14.1,1
2828,43.71,15.02,-5.13,1
2829,43.72,15.29,-4.61,1
2830,43.73,3.96,5.01,1
2831,43.75,7.41,2.46,1
2832,43.76,16.46,24.98,1
2833,43.77,6.68,5.7,1
2834,43.79,20.68,-10.45,1
2835,43.8,32.3,-10.49,1
2836,43.81,13.07,2.69,1
2837,43.83,5.86,10.34,1
2838,43.84,17.24,-1.82,1
2839,43.85,-3.01,9.57,1
2840,43.87,3.31,-2.48,1
2841,43.88,-12.35,19.08,1
2842,43.89,9.78,-3.23,1
2843,43.91,-6.35,-12.01,1
2844,43.92,-5.32,-12.6,1
2845,43.93,-10.45,1.85,1
2846,43.95,-3.42,-0.05,1
2847,43.96,9.73,-18.95,1
2848,43.97,8.03,14.28,1
2849,43.99,5.49,-16.93,1
2850,44.0,18.76,1.33,1
2851,44.01,19.47,-20.51,1
2852,44.03,-3.2,11.6,1
2853,44.04,1.53,22.21,1
2854,44.05,-5.89,-2.19,1
2855,44.06,-9.7,-12.55,1
2856,44.08,-16.05,-13.77,1
2857,44.09,0.08,-10.51,1
2858,44.11,9.17,7.75,1
2859,44.12,4.51,-20.09,1
2860,44.13,5.18,14.21,1
2861,44.15,-13.5,7.66,1
2862,44.16,16.97,76.25,1
2863,44.17,-0.89,123.41,1
2864,44.19,9.51,-22.87,1
2865,44.2,9.88,8.96,1
2866,44.21,33.79,169.74,1
2867,44.22,-58.45,-44.9,1
2868,44.24,-38.94,70.48,1
2869,44.25,-51.4,63.86,1
2870,44.27,68.26,-81.71,1
2871,44.28,280.15,364.23,1
2872,44.29,207.6,83.35,1
2873,44.31,53.75,70.75,1
2874,44.32,158.88,-13.86,1
2875,44.33,170.04,-164.11,1
2876,44.35,61.12,152.12,1
2877,44.36,-194.56,-31.67,1
2878,44.37,69.97,-137.13,1
2879,44.385000000000005,22.89,-465.54,1
2880,44.4,-143.99,-253.75,1
2881,44.41,-163.71,16.99,1
2882,44.43,-220.9,-410.47,1
2883,44.44,-236.6,-70.79,1
2884,44.45,-342.03,55.3,1
2885,44.47,-92.6,-204.32,1
2886,44.48,0.05,-220.95,1
2887,44.49,-123.77,-333.78,1
2888,44.51,64.57,-172.52,1
2889,44.52,-143.83,-139.68,1
2890,44.53,37.76,-399.23,1
2891,44.55,-116.88,185.64,1
2892,44.56,28.33,223.72,1
2893,44.57,-185.16,5.29,1
2894,44.59,129.02,55.68,1
2895,44.6,-102.44,286.72,1
2896,44.61,113.23,11.4,1
2897,44.63,-78.71,46.49,1
2898,44.64,-234.98,172.64,1
2899,44.65,-84.28,548.26,1
2900,44.67,114.16,78.65,1
2901,44.68,196.74,-24.48,1
2902,44.69,157.33,-16.18,1
2903,44.71,172.04,99.59,1
2904,44.72,36.22,20.49,1
2905,44.73,220.46,333.47,1
2906,44.75,168.35,96.06,1
2907,44.76,29.64,126.79,1
2908,44.77,-12.95,322.2,1
2909,44.79,158.81,-213.91,1
2910,44.8,-244.29,38.23,1
2911,44.81,19.87,151.62,1
2912,44.83,-63.65,266.18,1
2913,44.84,-45.27,41.2,1
2914,44.85,150.99,117.92,1
2915,44.87,-116.69,-50.66,1
2916,44.88,0.88,9.31,1
2917,44.89,24.39,-65.0,1
2918,44.9,39.87,115.62,1
2919,44.92,-13.78,25.7,1
2920,44.93,86.7,-158.67,1
2921,44.95,-109.73,-647.98,1
2922,44.96,-28.11,-342.21,1
2923,44.97,273.79,41.7,1
2924,44.99,84.84,122.31,1
2925,45.0,198.65,-119.95,1
2926,45.01,-15.42,-181.32,1
2927,45.03,163.13,-10.45,1
2928,45.04,130.06,-146.66,1
2929,45.05,-21.47,-80.97,1
2930,45.07,1.04,-59.93,1
2931,45.08,-65.85,-129.72,1
2932,45.09,47.02,-133.43,1
2933,45.11,-45.62,-73.06,1
2934,45.12,-65.61,-25.15,1
2935,45.13,-153.39,-6.62,1
2936,45.15,-199.96,104.4,1
2937,45.16,-181.49,107.63,1
2938,45.17,-150.16,125.92,1
2939,45.19,-73.55,159.78,1
2940,45.2,-23.54,141.48,1
2941,45.21,11.82,153.3,1
2942,45.22,59.56,161.11,1
2943,45.24,57.33,162.1,1
2944,45.25,44.59,169.54,1
2945,45.27,69.14,153.78,1
2946,45.28,61.66,151.41,1
2947,45.29,48.72,124.48,1
2948,45.31,75.2,132.27,1
2949,45.32,78.93,99.88,1
2950,45.33,60.57,90.52,1
2951,45.35,34.6,65.24,1
2952,45.36,12.29,41.32,1
2953,45.37,15.09,31.55,1
2954,45.38,17.79,-16.08,1
2955,45.4,10.74,-16.38,1
2956,45.41,9.95,-5.56,1
2957,45.43,8.27,-51.18,1
2958,45.44,-3.42,-82.66,1
2959,45.45,-34.68,-91.52,1
2960,45.47,-45.47,-100.84,1
2961,45.48,-32.95,-114.43,1
2962,45.49,-27.55,-137.66,1
2963,45.51,-48.44,-144.96,1
2964,45.52,-21.53,-140.22,1
2965,45.53,-35.1,-127.34,1
2966,45.54,-33.61,-120.46,1
2967,45.56,-52.75,-119.73,1
2968,45.57,-46.72,-127.34,1
2969,45.59,-60.16,-119.77,1
2970,45.6,-54.82,-93.18,1
2971,45.61,-46.25,-72.93,1
2972,45.63,-41.08,-68.3,1
2973,45.64,-43.11,-64.68,1
2974,45.65,-32.29,-67.1,1
2975,45.67,-27.44,-75.78,1
2976,45.68,-37.27,-70.32,1
2977,45.69,-19.77,-45.25,1
2978,45.71,-13.49,-45.74,1
2979,45.72,-27.06,-25.33,1
2980,45.73,-17.08,-24.51,1
2981,45.75,-19.38,-22.29,1
2982,45.76,-18.48,-21.58,1
2983,45.77,-11.92,-2.83,1
2984,45.79,-7.31,6.69,1
2985,45.8,14.28,16.93,1
2986,45.81,6.96,38.08,1
2987,45.83,6.23,26.03,1
2988,45.84,2.3,23.14,1
2989,45.85,6.02,32.07,1
2990,45.87,-4.35,22.55,1
2991,45.88,18.98,51.01,1
2992,45.89,29.94,56.58,1
2993,45.9,26.05,53.21,1
2994,45.92,21.99,65.24,1
2995,45.93,29.05,52.62,1
2996,45.95,13.71,48.04,1
2997,45.96,37.79,44.6,1
2998,45.97,31.34,57.65,1
2999,45.99,28.72,70.15,1
3000,46.0,22.9,57.11,1
3001,46.01,26.22,48.82,1
3002,46.03,22.1,55.78,1
3003,46.04,16.72,53.82,1
3004,46.05,19.36,56.18,1
3005,46.06,1.7,35.92,1
3006,46.08,13.6,38.08,1
3007,46.09,9.76,25.61,1
3008,46.11,20.98,18.2,1
3009,46.12,21.36,29.12,1
3010,46.13,-2.11,20.54,1
3011,46.15,16.12,21.51,1
3012,46.16,11.62,34.55,2
3013,46.17,10.96,16.23,2
3014,46.19,7.55,22.82,2
3015,46.2,-2.11,-3.17,2
3016,46.21,44.23,-8.19,2
3017,46.22,108.22,-18.88,2
3018,46.24,141.35,-14.68,2
3019,46.25,139.44,-18.07,2
3020,46.27,122.89,-17.64,2
3021,46.28,82.31,-36.22,2
3022,46.29,16.22,-12.56,2
3023,46.31,-29.43,-6.92,2
3024,46.32,-77.39,12.16,2
3025,46.33,-76.28,1.99,2
3026,46.35,-97.32,24.35,2
3027,46.36,-111.11,18.56,2
3028,46.37,-94.01,30.01,2
3029,46.39,-107.45,36.09,2
3030,46.4,-109.48,29.41,2
3031,46.41,-94.45,26.18,2
3032,46.43,-87.01,17.27,2
3033,46.44,-72.4,15.05,2
3034,46.45,-87.87,28.13,2
3035,46.47,-55.83,5.54,2
3036,46.48,-58.63,-22.06,2
3037,46.49,-36.17,-36.35,2
3038,46.51,-45.97,-43.41,2
3039,46.52,-32.43,-44.54,2
3040,46.53,-29.12,-26.43,2
3041,46.54,-10.8,-39.48,2
3042,46.56,3.19,-39.19,1
3043,46.57,2.31,-34.08,1
3044,46.59,13.99,-42.52,1
3045,46.6,26.63,-45.36,1
3046,46.61,43.18,-36.01,1
3047,46.63,42.86,-31.54,1
3048,46.64,43.48,-30.0,1
3049,46.65,37.54,-34.04,1
3050,46.67,48.76,-15.13,1
3051,46.68,46.27,-12.79,1
3052,46.69,47.65,-25.87,1
3053,46.71,45.9,-19.31,1
3054,46.72,45.56,-15.76,1
3055,46.73,46.21,-16.15,1
3056,46.75,40.94,-4.34,1
3057,46.76,37.89,-11.66,1
3058,46.77,45.28,-28.46,1
3059,46.79,33.41,4.97,1
3060,46.8,38.53,-7.26,1
3061,46.81,27.33,5.66,1
3062,46.83,26.21,9.53,1
3063,46.84,30.01,17.39,1
3064,46.85,29.84,8.96,1
3065,46.87,18.77,8.97,1
3066,46.88,33.28,-20.37,1
3067,46.89,20.54,31.44,1
3068,46.9,21.51,8.1,1
3069,46.92,8.36,-11.18,1
3070,46.93,9.55,17.34,1
3071,46.95,10.66,35.96,1
3072,46.96,8.02,34.77,1
3073,46.97,-6.01,14.55,1
3074,46.99,-7.65,24.06,1
3075,47.0,-10.46,14.67,1
3076,47.01,-14.66,7.85,1
3077,47.03,-24.17,10.43,1
3078,47.04,-5.15,24.01,1
3079,47.05,3.33,16.88,1
3080,47.07,-29.67,-1.49,1
3081,47.08,-25.33,4.18,1
3082,47.09,-15.83,-0.59,1
3083,47.11,-28.05,12.31,1
3084,47.12,-22.25,-2.6,1
3085,47.13,-4.9,-7.15,1
3086,47.15,-5.05,-2.92,1
3087,47.16,-16.47,-0.16,1
3088,47.17,-17.22,9.16,1
3089,47.19,-25.34,13.59,1
3090,47.2,-11.03,21.65,1
3091,47.21,-17.18,23.22,1
3092,47.22,-20.25,15.87,1
3093,47.24,-34.47,1.85,1
3094,47.25,-15.63,4.74,1
3095,47.27,-39.44,13.97,1
3096,47.28,-10.99,6.44,1
3097,47.29,-28.38,3.7,1
3098,47.31,-17.17,-6.59,1
3099,47.32,-14.36,-4.09,1
3100,47.33,-0.98,2.05,1
3101,47.35,-17.18,-7.36,1
3102,47.36,-11.16,-3.92,1
3103,47.37,12.59,-17.35,1
3104,47.38,7.08,-14.65,1
3105,47.4,2.95,1.53,1
3106,47.41,-7.18,-6.94,1
3107,47.43,-12.84,-17.89,1
3108,47.44,-8.58,-13.32,1
3109,47.45,-6.48,-6.14,1
3110,47.47,10.7,13.21,1
3111,47.48,15.11,9.38,1
3112,47.49,2.84,-3.69,1
3113,47.51,-0.95,-13.37,1
3114,47.52,-10.4,-17.73,1
3115,47.53,-9.34,-14.28,1
3116,47.54,1.97,18.42,1
3117,47.56,8.03,-4.31,1
3118,47.57,27.51,-6.25,1
3119,47.59,14.69,-14.79,1
3120,47.6,10.53,-5.94,1
3121,47.61,22.82,-3.04,1
3122,47.63,0.19,0.0,1
3123,47.64,-14.61,4.26,1
3124,47.65,12.11,-12.38,1
3125,47.67,20.5,6.0,1
3126,47.68,20.82,-18.24,1
3127,47.69,22.34,-7.01,1
3128,47.71,4.36,0.58,1
3129,47.72,-9.06,-1.62,1
3130,47.73,-20.01,10.91,1
3131,47.75,-17.67,-11.37,1
3132,47.76,-8.42,7.51,1
3133,47.77,7.53,6.66,1
3134,47.79,19.89,-3.1,1
3135,47.8,-0.2,-26.81,1
3136,47.81,12.25,-5.83,1
3137,47.83,-4.04,11.89,1
3138,47.84,-7.31,-2.99,1
3139,47.85,-4.34,-1.36,1
3140,47.87,5.36,-12.41,1
3141,47.88,6.2,-16.98,1
3142,47.89,1.82,0.32,1
3143,47.9,10.09,-6.98,1
3144,47.92,27.25,4.39,1
3145,47.93,24.08,7.91,1
3146,47.95,5.44,-1.22,1
3147,47.96,-3.81,21.45,1
3148,47.97,-5.45,18.52,1
3149,47.99,4.52,17.92,1
3150,48.0,-9.12,-2.69,1
3151,48.01,-1.31,1.77,1
3152,48.03,12.21,20.95,1
3153,48.04,-13.07,-3.64,1
3154,48.05,-10.17,1.3,1
3155,48.06,-10.15,3.58,1
3156,48.08,-12.08,-7.63,1
3157,48.09,0.7,14.75,1
3158,48.11,11.95,7.51,1
3159,48.12,18.61,6.77,1
3160,48.13,3.68,-14.01,1
3161,48.15,-9.2,-6.13,1
3162,48.16,-15.18,-13.48,0
3163,48.17,5.62,2.76,0
3164,48.19,-4.06,2.11,0
3165,48.2,-5.38,7.13,0
3166,48.21,-0.66,21.07,0
3167,48.22,-3.08,-3.69,0
3168,48.24,20.24,16.92,0
3169,48.25,28.11,33.59,0
3170,48.27,-28.47,31.52,0
3171,48.28,-76.87,11.81,0
3172,48.29,-124.8,-9.99,0
3173,48.31,-138.89,-30.41,0
3174,48.32,-129.24,-39.68,0
3175,48.33,-116.93,-20.81,0
3176,48.35,-94.1,-9.15,0
3177,48.36,-65.91,-24.25,0
3178,48.37,-39.94,-15.77,0
3179,48.39,13.71,-11.63,0
3180,48.4,78.96,4.76,0
3181,48.41,141.44,14.39,0
3182,48.43,170.58,23.08,0
3183,48.44,195.48,22.75,0
3184,48.45,170.28,36.06,0
3185,48.47,172.06,16.53,0
3186,48.48,157.76,-5.69,0
3187,48.49,132.38,-0.41,0
3188,48.51,99.33,-7.33,0
3189,48.52,85.87,-9.67,0
3190,48.53,62.21,-1.37,0
3191,48.54,36.15,-4.48,0
3192,48.56,16.75,-3.98,1
3193,48.57,-0.47,-22.41,1
3194,48.59,6.08,-35.99,1
3195,48.6,-16.85,-2.95,1
3196,48.61,-33.41,-19.6,1
3197,48.63,-42.52,-18.68,1
3198,48.64,-30.87,-14.24,1
3199,48.65,-58.76,-9.67,1
3200,48.67,-58.56,9.3,1
3201,48.68,-65.35,12.24,1
3202,48.69,-52.0,19.68,1
3203,48.71,-54.16,23.98,1
3204,48.72,-68.75,13.96,1
3205,48.73,-55.38,12.31,1
3206,48.75,-56.52,11.11,1
3207,48.76,-65.02,7.19,1
3208,48.77,-49.33,7.21,1
3209,48.79,-59.21,7.68,1
3210,48.8,-58.68,18.38,1
3211,48.81,-49.62,23.82,1
3212,48.83,-66.66,14.88,1
3213,48.84,-59.31,-6.98,1
3214,48.85,-56.95,10.39,1
3215,48.87,-42.47,-1.8,1
3216,48.88,-25.36,-3.9,1
3217,48.89,-23.67,-11.39,1
3218,48.9,-12.94,-27.44,1
3219,48.92,-16.65,-20.5,1
3220,48.93,-5.34,-20.91,1
3221,48.95,-9.48,-18.56,1
3222,48.96,-11.33,-5.01,1
3223,48.97,-14.7,-2.21,1
3224,48.99,15.4,-14.88,1
3225,49.0,-1.35,-2.42,1
3226,49.01,11.05,-23.59,1
3227,49.03,-2.37,-16.75,1
3228,49.04,10.58,-9.91,1
3229,49.05,23.33,-14.31,1
3230,49.06,16.06,-13.98,1
3231,49.08,21.91,-6.42,1
3232,49.09,19.94,11.95,1
3233,49.11,10.58,-1.74,1
3234,49.12,11.6,-1.09,1
3235,49.13,19.93,7.55,1
3236,49.15,30.61,15.22,1
3237,49.16,16.45,24.14,1
3238,49.17,24.9,15.51,1
3239,49.19,20.98,19.7,1
3240,49.2,23.66,12.74,1
3241,49.21,22.66,2.1,1
3242,49.22,24.93,13.88,1
3243,49.24,26.52,-3.86,1
3244,49.25,25.54,7.8,1
3245,49.27,24.81,19.28,1
3246,49.28,17.6,6.54,1
3247,49.29,20.93,4.31,1
3248,49.31,20.25,4.93,1
3249,49.32,23.11,0.58,1
3250,49.33,26.52,-3.31,1
3251,49.35,9.27,-6.02,1
3252,49.36,22.42,5.51,1
3253,49.37,31.09,3.3,1
3254,49.38,25.54,1.46,1
3255,49.4,27.76,0.07,1
3256,49.41,9.35,-15.3,1
3257,49.43,1.85,3.0,1
3258,49.44,-0.82,-6.99,1
3259,49.45,-7.95,8.56,1
3260,49.47,11.93,-8.5,1
3261,49.48,-9.11,7.41,1
3262,49.49,-4.11,-18.21,1
3263,49.51,-13.72,-8.12,1
3264,49.52,-10.6,-13.37,1
3265,49.53,-3.61,9.11,1
3266,49.54,-5.21,-3.34,1
3267,49.56,-10.14,2.83,1
3268,49.57,-10.1,12.38,1
3269,49.59,-10.11,3.05,1
3270,49.6,-6.92,6.67,1
3271,49.61,-4.43,12.05,1
3272,49.63,-1.31,23.93,1
3273,49.64,9.17,0.85,1
3274,49.65,-0.3,-1.38,1
3275,49.67,-3.96,3.44,1
3276,49.68,-24.15,-7.75,1
3277,49.69,-28.99,-1.16,1
3278,49.71,-17.73,-16.87,1
3279,49.72,-14.91,-20.85,1
3280,49.73,-4.66,-31.93,1
3281,49.75,-1.83,-10.58,1
3282,49.76,-6.92,-3.05,1
3283,49.77,-13.45,-24.49,1
3284,49.79,-4.46,-5.05,1
3285,49.8,0.45,4.98,1
3286,49.81,-9.86,-4.86,1
3287,49.83,-4.19,6.7,1
3288,49.84,-13.21,9.27,1
3289,49.85,-6.45,3.72,1
3290,49.87,0.62,3.83,1
3291,49.88,5.52,-4.83,1
3292,49.89,3.41,10.82,1
3293,49.9,1.79,12.82,1
3294,49.92,-0.54,0.12,1
3295,49.93,-4.44,-6.6,1
3296,49.95,-15.96,1.21,1
3297,49.96,14.97,24.15,1
3298,49.97,-6.07,0.08,1
3299,49.99,4.84,0.9,1
3300,50.0,-15.94,-0.97,1
3301,50.01,-10.57,-5.23,1
3302,50.03,-3.85,11.14,1
3303,50.04,0.65,17.55,1
3304,50.05,-3.63,4.66,1
3305,50.06,-7.7,3.74,1
3306,50.08,-12.87,-3.06,1
3307,50.09,-0.06,-7.91,1
3308,50.11,7.1,-10.02,1
3309,50.12,21.63,-4.28,1
3310,50.13,13.08,5.73,1
3311,50.15,5.15,5.94,1
3312,50.16,2.69,2.42,0
3313,50.17,-1.3,2.55,0
3314,50.19,-1.94,-6.61,0
3315,50.2,16.03,-0.5,0
3316,50.21,-5.08,-18.64,0
3317,50.22,-57.35,-7.82,0
3318,50.24,-88.25,-21.32,0
3319,50.25,-122.89,-40.07,0
3320,50.27,-120.93,-3.18,0
3321,50.28,-103.49,-22.27,0
3322,50.29,-81.22,-9.01,0
3323,50.31,-23.49,-14.73,0
3324,50.32,-3.05,13.02,0
3325,50.33,48.4,20.7,0
3326,50.35,56.68,11.86,0
3327,50.36,106.9,27.37,0
3328,50.37,105.95,33.89,0
3329,50.38,127.89,24.75,0
3330,50.4,119.82,19.41,0
3331,50.41,127.59,24.28,0
3332,50.43,120.46,27.52,0
3333,50.44,105.05,9.45,0
3334,50.45,100.5,-15.89,0
3335,50.47,94.03,-8.24,0
3336,50.48,71.41,2.56,0
3337,50.49,62.49,-1.67,0
3338,50.51,56.85,-11.75,0
3339,50.52,35.24,-9.08,0
3340,50.53,12.57,14.36,0
3341,50.54,13.37,1.4,0
3342,50.56,-8.6,3.42,1
3343,50.57,-18.65,-10.5,1
3344,50.59,-19.22,-8.49,1
3345,50.6,-33.23,-21.82,1
3346,50.61,-47.11,-3.78,1
3347,50.63,-41.46,6.94,1
3348,50.64,-33.95,20.67,1
3349,50.65,-48.88,18.02,1
3350,50.67,-44.15,13.44,1
3351,50.68,-66.21,3.8,1
3352,50.69,-52.22,9.96,1
3353,50.71,-69.76,14.1,1
3354,50.72,-58.26,16.3,1
3355,50.73,-59.87,2.48,1
3356,50.75,-73.09,-22.79,1
3357,50.76,-62.76,-40.3,1
3358,50.77,-71.74,-32.54,1
3359,50.79,-45.7,-38.88,1
3360,50.8,-42.54,-28.5,1
3361,50.81,-35.86,-18.02,1
3362,50.83,-35.57,-11.72,1
3363,50.84,-25.79,-2.96,1
3364,50.85,-21.33,-12.5,1
3365,50.87,-18.02,-6.19,1
3366,50.88,-22.7,-13.85,1
3367,50.89,-24.35,2.0,1
3368,50.91,-5.7,-1.14,1
3369,50.92,-26.38,-11.83,1
3370,50.93,-23.27,0.28,1
3371,50.95,-24.6,4.91,1
3372,50.96,-1.47,2.43,1
3373,50.97,-7.58,10.91,1
3374,50.99,18.34,0.39,1
3375,51.0,8.6,-12.27,1
3376,51.01,4.7,4.57,1
3377,51.03,3.21,12.63,1
3378,51.04,18.95,-3.74,1
3379,51.05,12.65,23.16,1
3380,51.06,19.79,-8.52,1
3381,51.08,6.82,16.89,1
3382,51.09,14.83,7.07,1
3383,51.11,12.5,-15.1,1
3384,51.12,28.53,-9.58,1
3385,51.13,22.74,7.08,1
3386,51.15,39.1,13.1,1
3387,51.16,37.78,3.93,1
3388,51.17,30.62,17.13,1
3389,51.19,25.84,19.13,1
3390,51.2,31.21,5.17,1
3391,51.21,9.21,19.45,1
3392,51.22,20.59,7.89,1
3393,51.24,27.11,8.23,1
3394,51.25,27.66,9.97,1
3395,51.27,28.79,11.79,1
3396,51.28,-4.1,0.64,1
3397,51.29,3.4,4.22,1
3398,51.31,21.44,4.74,1
3399,51.32,10.15,13.39,1
3400,51.33,27.97,-9.44,1
3401,51.35,11.04,2.44,1
3402,51.36,21.81,18.27,1
3403,51.37,8.95,6.47,1
3404,51.38,18.85,17.04,1
3405,51.4,19.25,-12.12,1
3406,51.41,-1.98,-2.61,1
3407,51.43,-4.71,-14.71,1
3408,51.44,3.23,4.89,1
3409,51.45,-5.48,-0.01,1
3410,51.47,4.02,-8.27,1
3411,51.48,4.12,3.21,1
3412,51.49,-9.46,-0.09,1
3413,51.51,10.77,-5.26,1
3414,51.52,-8.23,-6.38,1
3415,51.53,-12.4,3.37,1
3416,51.55,-3.88,-11.04,1
3417,51.56,-9.73,-13.3,1
3418,51.57,-3.59,-5.32,1
3419,51.59,0.48,-2.77,1
3420,51.6,-0.38,-11.23,1
3421,51.61,-5.56,-1.71,1
3422,51.63,-9.94,-4.0,1
3423,51.64,-5.72,-7.22,1
3424,51.65,-7.63,-20.71,1
3425,51.67,0.91,-0.99,1
3426,51.68,-19.04,9.04,1
3427,51.69,-19.69,-10.6,1
3428,51.71,0.62,-6.51,1
3429,51.72,-11.24,-0.71,1
3430,51.73,-0.31,-12.78,1
3431,51.75,-2.25,0.21,1
3432,51.76,-6.24,0.54,1
3433,51.77,-3.66,0.68,1
3434,51.79,-12.5,-4.52,1
3435,51.8,8.17,1.23,1
3436,51.81,-10.21,-4.99,1
3437,51.83,2.73,-1.14,1
3438,51.84,4.1,6.71,1
3439,51.85,1.14,-6.97,1
3440,51.87,-14.85,-15.16,1
3441,51.88,-11.49,-4.39,1
3442,51.89,-1.72,10.12,1
3443,51.9,-7.44,-3.7,1
3444,51.92,-12.44,-2.42,1
3445,51.93,-3.62,-2.88,1
3446,51.95,6.59,8.37,1
3447,51.96,-4.11,-15.58,1
3448,51.97,-0.81,-1.28,1
3449,51.99,9.77,9.86,1
3450,52.0,-3.06,2.98,1
3451,52.01,3.96,20.2,1
3452,52.03,-13.05,11.32,1
3453,52.04,-1.29,-10.37,1
3454,52.05,-8.87,30.01,1
3455,52.06,-10.86,21.04,1
3456,52.08,5.18,17.62,1
3457,52.09,-10.07,-8.94,1
3458,52.11,-1.43,0.01,1
3459,52.12,10.85,-3.27,1
3460,52.13,3.46,1.76,1
3461,52.15,-2.58,9.43,1
3462,52.16,-4.98,-11.87,2
3463,52.17,5.48,-3.65,2
3464,52.19,17.96,-5.01,2
3465,52.2,3.76,-5.13,2
3466,52.21,9.03,1.86,2
3467,52.23,-0.89,7.97,2
3468,52.24,-6.67,10.01,2
3469,52.25,1.87,-29.58,2
3470,52.27,-4.17,-4.9,2
3471,52.28,-28.96,-13.81,2
3472,52.29,79.25,-5.2,2
3473,52.31,100.03,31.12,2
3474,52.32,145.43,27.82,2
3475,52.33,137.32,4.23,2
3476,52.35,116.66,11.95,2
3477,52.36,113.62,-2.36,2
3478,52.37,99.88,-12.66,2
3479,52.38,50.77,-14.68,2
3480,52.4,29.31,-23.65,2
3481,52.41,-31.05,-5.15,2
3482,52.43,-84.77,-12.82,2
3483,52.44,-154.0,-14.96,2
3484,52.45,-203.59,15.67,2
3485,52.47,-216.0,7.95,2
3486,52.48,-205.66,23.19,2
3487,52.49,-196.68,37.98,2
3488,52.51,-176.77,6.21,2
3489,52.52,-140.54,-1.79,2
3490,52.53,-130.72,3.44,2
3491,52.54,-98.27,-10.52,2
3492,52.56,-74.7,-1.97,1
3493,52.57,-39.35,-18.79,1
3494,52.59,-21.14,-15.0,1
3495,52.6,-9.72,-0.96,1
3496,52.61,16.5,-12.68,1
3497,52.63,32.84,-33.06,1
3498,52.64,38.65,-32.4,1
3499,52.65,57.13,-43.07,1
3500,52.67,56.71,-20.48,1
3501,52.68,74.26,-12.81,1
3502,52.69,57.97,4.1,1
3503,52.71,76.26,22.26,1
3504,52.72,83.9,37.27,1
3505,52.73,81.91,10.09,1
3506,52.75,72.65,19.49,1
3507,52.76,70.89,26.41,1
3508,52.77,63.9,24.53,1
3509,52.79,69.31,29.46,1
3510,52.8,60.97,18.07,1
3511,52.81,60.14,24.99,1
3512,52.83,56.16,17.13,1
3513,52.84,60.11,9.79,1
3514,52.85,52.94,25.92,1
3515,52.87,56.09,7.83,1
3516,52.88,46.07,-0.41,1
3517,52.89,60.12,6.32,1
3518,52.9,35.71,-14.9,1
3519,52.92,29.46,-17.91,1
3520,52.93,30.12,-22.6,1
3521,52.95,13.21,-7.06,1
3522,52.96,13.46,-32.88,1
3523,52.97,13.88,-4.45,1
3524,52.99,10.33,-15.24,1
3525,53.0,2.39,-12.99,1
3526,53.01,-1.3,-20.02,1
3527,53.03,0.58,11.12,1
3528,53.04,0.68,-1.92,1
3529,53.05,-9.44,-8.49,1
3530,53.06,-14.66,-3.14,1
3531,53.08,-16.47,-9.16,1
3532,53.09,-16.37,-0.23,1
3533,53.11,-27.17,-1.73,1
3534,53.12,-35.58,-11.31,1
3535,53.13,-24.68,14.4,1
3536,53.15,-23.8,9.71,1
3537,53.16,-18.91,-17.51,1
3538,53.17,-11.86,-7.05,1
3539,53.19,-19.62,0.55,1
3540,53.2,-28.29,9.31,1
3541,53.21,-32.55,4.04,1
3542,53.22,-29.88,19.0,1
3543,53.24,-41.2,-10.89,1
3544,53.25,-16.72,4.55,1
3545,53.27,-48.11,-17.66,1
3546,53.28,-18.39,-2.38,1
3547,53.29,-21.95,-4.28,1
3548,53.31,-23.17,-7.07,1
3549,53.32,-37.88,-23.89,1
3550,53.33,-31.61,3.52,1
3551,53.35,-20.72,3.47,1
3552,53.36,-18.26,13.28,1
3553,53.37,-12.36,-6.82,1
3554,53.38,-4.51,3.46,1
3555,53.4,-10.65,-3.74,1
3556,53.41,-16.17,11.67,1
3557,53.43,0.88,24.71,1
3558,53.44,-14.99,23.48,1
3559,53.45,-22.5,21.19,1
3560,53.47,-13.51,-3.22,1
3561,53.48,-5.29,-0.36,1
3562,53.49,10.71,14.58,1
3563,53.51,-2.44,-3.87,1
3564,53.52,4.4,-3.56,1
3565,53.53,6.25,4.76,1
3566,53.54,-1.43,1.2,1
3567,53.56,-7.62,-0.26,1
3568,53.57,-6.86,-8.33,1
3569,53.59,-0.01,2.86,1
3570,53.6,1.11,1.73,1
3571,53.61,0.81,-14.63,1
3572,53.63,13.84,-9.04,1
3573,53.64,9.39,-3.97,1
3574,53.65,18.56,-10.99,1
3575,53.67,1.67,2.44,1
3576,53.68,0.83,14.56,1
3577,53.69,23.76,2.69,1
3578,53.71,18.66,-10.16,1
3579,53.72,19.34,-19.85,1
3580,53.73,1.39,-4.74,1
3581,53.75,1.9,-14.74,1
3582,53.76,13.77,10.47,1
3583,53.77,6.5,-3.91,1
3584,53.79,7.68,13.39,1
3585,53.8,23.09,11.97,1
3586,53.81,9.67,7.1,1
3587,53.83,-3.79,-13.83,1
3588,53.84,3.31,12.87,1
3589,53.85,2.61,6.72,1
3590,53.87,20.99,-4.1,1
3591,53.88,10.03,-17.94,1
3592,53.89,15.44,23.81,1
3593,53.9,9.06,1.26,1
3594,53.92,8.91,-16.46,1
3595,53.93,0.48,-17.33,1
3596,53.95,-0.52,7.82,1
3597,53.96,1.97,-5.46,1
3598,53.97,-0.03,2.15,1
3599,53.99,-3.78,17.11,1
3600,54.0,1.79,9.44,1
3601,54.01,-1.18,0.27,1
3602,54.03,-9.4,-3.81,1
3603,54.04,-0.67,13.41,1
3604,54.05,13.31,3.74,1
3605,54.06,7.29,-2.34,1
3606,54.08,-9.18,-10.44,1
3607,54.09,-11.37,13.82,1
3608,54.11,-10.42,0.56,1
3609,54.12,-9.57,-15.75,1
3610,54.13,-6.07,-10.71,1
3611,54.15,3.77,28.91,1
3612,54.16,-5.78,62.34,1
3613,54.17,13.01,67.79,1
3614,54.19,-9.77,100.87,1
3615,54.2,15.11,142.27,1
3616,54.21,25.07,130.87,1
3617,54.22,16.06,289.92,1
3618,54.24,1.59,40.51,1
3619,54.25,-32.95,-14.12,1
3620,54.27,243.61,174.95,1
3621,54.28,132.88,-91.95,1
3622,54.29,15.96,4.55,1
3623,54.31,74.84,90.04,1
3624,54.32,220.01,11.15,1
3625,54.33,91.28,-96.46,1
3626,54.35,146.74,-227.21,1
3627,54.36,34.53,-77.78,1
3628,54.37,-24.32,-347.57,1
3629,54.38,20.65,-434.18,1
3630,54.4,-19.67,-275.6,1
3631,54.41,-130.37,-13.38,1
3632,54.43,-361.11,-56.95,1
3633,54.44,-311.14,-367.55,1
3634,54.45,-219.89,-460.03,1
3635,54.47,-204.91,-319.75,1
3636,54.48,-270.02,-83.89,1
3637,54.49,-187.73,182.37,1
3638,54.51,-89.06,-372.43,1
3639,54.52,-200.07,-33.47,1
3640,54.53,36.23,158.67,1
3641,54.54,-215.98,120.84,1
3642,54.56,41.61,381.46,1
3643,54.57,118.56,-153.07,1
3644,54.59,-0.15,415.64,1
3645,54.6,48.21,240.98,1
3646,54.61,-73.42,-38.21,1
3647,54.63,71.18,-43.98,1
3648,54.64,-93.48,108.39,1
3649,54.65,-37.62,326.91,1
3650,54.67,122.35,157.4,1
3651,54.68,105.12,501.35,1
3652,54.69,-17.07,140.2,1
3653,54.71,119.41,280.2,1
3654,54.72,69.26,289.71,1
3655,54.73,216.31,-29.48,1
3656,54.75,133.88,-212.41,1
3657,54.76,10.73,-25.21,1
3658,54.77,154.4,-134.15,1
3659,54.79,-179.81,-342.38,1
3660,54.8,86.86,-89.72,1
3661,54.81,204.25,-130.5,1
3662,54.83,198.79,31.94,1
3663,54.84,42.18,-230.14,1
3664,54.85,4.83,323.22,1
3665,54.87,163.41,-111.08,1
3666,54.88,-14.13,30.98,1
3667,54.89,-140.68,354.26,1
3668,54.9,-46.0,-101.81,1
3669,54.92,192.88,324.67,1
3670,54.93,-18.13,-198.52,1
3671,54.95,132.16,-113.5,1
3672,54.96,18.49,370.48,1
3673,54.97,49.39,90.61,1
3674,54.99,68.83,-304.48,1
3675,55.0,54.28,-22.89,1
3676,55.01,15.58,-188.46,1
3677,55.03,64.95,-58.76,1
3678,55.04,2.71,-310.4,1
3679,55.05,50.07,80.69,1
3680,55.06,-13.11,-64.85,1
3681,55.08,198.52,188.78,1
3682,55.09,-198.49,197.91,1
3683,55.11,-65.68,178.58,1
3684,55.12,-25.38,-132.53,1
3685,55.13,28.76,-88.19,1
3686,55.15,-53.71,-177.59,1
3687,55.16,-18.46,-127.3,1
3688,55.17,-104.5,-100.71,1
3689,55.19,-92.0,-33.9,1
3690,55.2,-197.87,-15.99,1
3691,55.21,-220.56,34.33,1
3692,55.22,-161.96,-9.63,1
3693,55.24,-106.55,11.23,1
3694,55.25,-1.41,23.42,1
3695,55.27,56.24,49.03,1
3696,55.28,50.18,50.88,1
3697,55.29,67.06,59.31,1
3698,55.31,56.49,97.57,1
3699,55.32,75.3,99.94,1
3700,55.33,29.19,113.38,1
3701,55.35,48.3,99.63,1
3702,55.36,30.2,117.63,1
3703,55.37,20.17,114.0,1
3704,55.38,-3.9,95.43,1
3705,55.4,11.71,64.84,1
3706,55.41,7.23,77.95,1
3707,55.43,24.85,50.57,1
3708,55.44,14.54,23.15,1
3709,55.45,-3.24,-0.1,1
3710,55.47,3.87,-38.69,1
3711,55.48,-16.58,16.18,1
3712,55.49,-9.07,4.36,1
3713,55.51,-14.55,-84.54,1
3714,55.52,-11.37,-32.94,1
3715,55.53,-36.67,-61.82,1
3716,55.54,-13.0,-29.13,1
3717,55.56,-35.67,-70.57,1
3718,55.57,-27.73,-66.65,1
3719,55.59,-42.14,-90.22,1
3720,55.6,-14.75,-101.24,1
3721,55.61,-31.88,-105.3,1
3722,55.63,-25.68,-115.79,1
3723,55.64,-42.07,-121.77,1
3724,55.65,-21.49,-132.36,1
3725,55.67,-34.41,-106.96,1
3726,55.68,-29.56,-101.92,1
3727,55.69,-16.8,-90.79,1
3728,55.71,-15.52,-96.29,1
3729,55.72,-20.08,-71.37,1
3730,55.73,-39.88,-61.53,1
3731,55.75,-34.77,-61.76,1
3732,55.76,-32.93,-50.86,1
3733,55.77,-21.61,-52.86,1
3734,55.79,-8.45,-27.44,1
3735,55.8,-6.2,-32.96,1
3736,55.81,10.78,-31.27,1
3737,55.83,14.72,-26.97,1
3738,55.84,15.48,-15.89,1
3739,55.85,15.33,10.6,1
3740,55.87,6.03,12.79,1
3741,55.88,18.05,28.39,1
3742,55.89,12.17,48.99,1
3743,55.9,16.85,34.01,1
3744,55.92,7.01,50.71,1
3745,55.93,4.08,35.85,1
3746,55.95,25.86,15.29,1
3747,55.96,28.66,28.66,1
3748,55.97,26.61,40.24,1
3749,55.99,29.57,44.03,1
3750,56.0,23.43,57.88,1
3751,56.01,22.36,65.38,1
3752,56.03,15.01,72.05,1
3753,56.04,5.42,47.8,1
3754,56.05,22.91,48.36,1
3755,56.06,15.31,34.06,1
3756,56.08,-0.01,63.35,1
3757,56.09,12.28,61.05,1
3758,56.11,18.79,58.03,1
3759,56.12,26.41,46.85,1
3760,56.13,24.06,65.35,1
3761,56.15,26.16,55.88,1
3762,56.16,40.98,37.31,2
3763,56.17,11.08,37.18,2
3764,56.19,10.31,45.16,2
3765,56.2,4.01,1.45,2
3766,56.21,-17.21,12.99,2
3767,56.22,2.59,3.77,2
3768,56.24,7.48,15.63,2
3769,56.25,12.08,-3.72,2
3770,56.27,7.13,8.48,2
3771,56.28,31.82,12.07,2
3772,56.29,19.56,-19.95,2
3773,56.31,-17.01,-13.16,2
3774,56.32,-18.92,-24.49,2
3775,56.33,60.29,-15.06,2
3776,56.35,87.77,-1.12,2
3777,56.36,110.76,16.44,2
3778,56.37,102.5,21.26,2
3779,56.38,71.71,19.23,2
3780,56.4,34.3,33.57,2
3781,56.41,-2.63,45.36,2
3782,56.43,-29.1,24.64,2
3783,56.44,-56.98,1.07,2
3784,56.45,-85.68,11.0,2
3785,56.47,-79.82,-8.73,2
3786,56.48,-99.81,-4.19,2
3787,56.49,-103.56,1.84,2
3788,56.51,-120.22,-9.48,2
3789,56.52,-81.51,-22.3,2
3790,56.53,-92.69,-6.45,2
3791,56.54,-89.17,2.11,2
3792,56.56,-85.67,11.55,1
3793,56.57,-66.49,-4.54,1
3794,56.59,-44.59,-9.37,1
3795,56.6,-61.78,-12.04,1
3796,56.61,-34.66,-24.74,1
3797,56.63,-35.91,-42.15,1
3798,56.64,-14.39,-19.23,1
3799,56.65,-16.44,-31.0,1
3800,56.67,-2.68,-37.5,1
3801,56.68,13.25,-23.16,1
3802,56.69,11.41,-19.23,1
3803,56.71,27.46,-31.54,1
3804,56.72,27.05,-61.02,1
3805,56.73,31.36,-26.19,1
3806,56.75,31.88,-30.96,1
3807,56.76,33.4,-38.7,1
3808,56.77,33.0,-31.55,1
3809,56.79,49.41,-22.64,1
3810,56.8,70.49,-16.6,1
3811,56.81,40.21,-21.7,1
3812,56.83,51.5,-48.08,1
3813,56.84,42.96,-12.71,1
3814,56.85,56.78,-12.53,1
3815,56.87,36.92,-8.55,1
3816,56.88,53.68,-13.01,1
3817,56.89,45.78,6.24,1
3818,56.9,35.26,7.55,1
3819,56.92,27.84,-8.09,1
3820,56.93,30.45,-0.38,1
3821,56.95,45.3,-3.7,1
3822,56.96,75.33,18.75,1
3823,56.97,31.08,-6.01,1
3824,56.99,14.6,1.6,1
3825,57.0,5.09,9.35,1
3826,57.01,-0.44,-3.19,1
3827,57.03,4.48,9.41,1
3828,57.04,-11.9,17.93,1
3829,57.05,-17.68,9.62,1
3830,57.06,-2.5,17.83,1
3831,57.08,-14.06,-6.01,1
3832,57.09,-3.12,3.11,1
3833,57.11,-15.19,2.43,1
3834,57.12,-2.99,-2.14,1
3835,57.13,2.78,17.07,1
3836,57.15,0.74,34.89,1
3837,57.16,-17.7,18.13,1
3838,57.17,-9.19,27.68,1
3839,57.19,-10.73,18.34,1
3840,57.2,-9.81,41.18,1
3841,57.21,-26.0,21.28,1
3842,57.22,-13.18,10.96,1
3843,57.24,-20.61,1.93,1
3844,57.25,-22.16,19.3,1
3845,57.27,-21.42,8.48,1
3846,57.28,-12.88,9.55,1
3847,57.29,-25.75,1.39,1
3848,57.31,-37.61,-1.84,1
3849,57.32,-17.76,-9.04,1
3850,57.33,-5.93,15.35,1
3851,57.35,-7.45,-5.45,1
3852,57.36,-10.43,13.74,1
3853,57.37,-10.49,10.63,1
3854,57.38,-17.75,9.34,1
3855,57.4,-8.59,31.01,1
3856,57.41,-5.21,17.53,1
3857,57.43,-12.59,29.14,1
3858,57.44,-11.0,9.99,1
3859,57.45,6.44,23.05,1
3860,57.47,-7.39,12.84,1
3861,57.48,-2.4,0.46,1
3862,57.49,6.5,-2.81,1
3863,57.51,-9.16,-1.35,1
3864,57.52,-5.29,-16.44,1
3865,57.53,-14.02,-12.22,1
3866,57.54,-5.8,-21.85,1
3867,57.56,-2.54,2.29,1
3868,57.57,4.77,4.43,1
3869,57.59,-5.31,-17.96,1
3870,57.6,1.51,-6.9,1
3871,57.61,0.41,-8.65,1
3872,57.63,-7.72,-11.01,1
3873,57.64,-4.04,-12.51,1
3874,57.65,-5.29,-19.98,1
3875,57.67,5.95,-26.48,1
3876,57.68,-2.39,-22.08,1
3877,57.69,7.95,-14.85,1
3878,57.71,20.94,-10.81,1
3879,57.72,-0.58,-16.54,1
3880,57.73,1.76,-7.6,1
3881,57.75,-2.54,-5.91,1
3882,57.76,8.85,-5.86,1
3883,57.77,5.8,-6.11,1
3884,57.79,0.06,7.05,1
3885,57.8,9.8,1.67,1
3886,57.81,0.59,-4.18,1
3887,57.83,-5.61,-6.83,1
3888,57.84,11.94,7.67,1
3889,57.85,3.28,-18.83,1
3890,57.87,4.92,-8.23,1
3891,57.88,-0.01,4.99,1
3892,57.89,2.26,0.67,1
3893,57.9,27.18,7.05,1
3894,57.92,10.34,-8.8,1
3895,57.93,-2.24,-14.81,1
3896,57.95,-1.12,0.62,1
3897,57.96,1.08,-5.92,1
3898,57.97,12.56,4.92,1
3899,57.99,-1.91,9.69,1
3900,58.0,5.89,-5.79,1
3901,58.01,7.31,-15.79,1
3902,58.03,6.58,10.46,1
3903,58.04,-7.56,-12.05,1
3904,58.05,-1.54,8.07,1
3905,58.06,1.63,16.15,1
3906,58.08,-7.3,-9.34,1
3907,58.09,-10.61,-3.45,1
3908,58.11,8.33,13.94,1
3909,58.12,1.7,-1.83,1
3910,58.13,-10.4,-5.28,1
3911,58.15,4.43,19.86,1
3912,58.16,-1.01,-3.14,0
3913,58.17,-2.32,32.92,0
3914,58.19,14.64,7.33,0
3915,58.2,5.87,27.83,0
3916,58.21,8.4,-5.16,0
3917,58.22,4.21,12.8,0
3918,58.24,1.83,-12.42,0
3919,58.25,15.82,3.47,0
3920,58.27,-68.24,-6.62,0
3921,58.28,-81.52,-6.5,0
3922,58.29,-108.9,-20.51,0
3923,58.31,-146.93,-19.56,0
3924,58.32,-138.6,-27.17,0
3925,58.33,-116.33,-31.06,0
3926,58.35,-90.1,-11.17,0
3927,58.36,-50.98,3.32,0
3928,58.37,-6.67,6.18,0
3929,58.38,33.73,32.19,0
3930,58.4,112.62,34.12,0
3931,58.41,152.36,56.22,0
3932,58.43,192.48,59.01,0
3933,58.44,195.71,55.88,0
3934,58.45,192.55,34.04,0
3935,58.47,174.11,10.11,0
3936,58.48,149.75,4.24,0
3937,58.49,119.69,2.81,0
3938,58.51,88.18,-15.55,0
3939,58.52,74.99,-31.6,0
3940,58.53,61.78,-32.67,0
3941,58.54,51.67,-24.34,0
3942,58.56,11.4,-24.7,1
3943,58.57,2.23,-39.37,1
3944,58.59,-19.0,-16.9,1
3945,58.6,-38.09,-25.2,1
3946,58.61,-44.05,-24.22,1
3947,58.63,-44.29,-26.98,1
3948,58.64,-54.3,7.12,1
3949,58.65,-54.07,-2.08,1
3950,58.66,-60.0,1.29,1
3951,58.68,-61.33,13.43,1
3952,58.69,-66.24,8.57,1
3953,58.71,-68.39,12.82,1
3954,58.72,-73.58,7.71,1
3955,58.73,-80.22,11.49,1
3956,58.75,-76.51,20.03,1
3957,58.76,-74.29,15.22,1
3958,58.77,-53.07,10.29,1
3959,58.79,-49.62,17.98,1
3960,58.8,-42.11,16.94,1
3961,58.81,-55.63,12.59,1
3962,58.83,-50.85,-8.07,1
3963,58.84,-38.43,-4.95,1
3964,58.85,-47.12,-9.34,1
3965,58.87,-35.41,-10.09,1
3966,58.88,-26.01,6.03,1
3967,58.89,-29.94,-15.12,1
3968,58.9,-15.91,-22.02,1
3969,58.92,-17.09,-19.9,1
3970,58.93,-7.69,-19.52,1
3971,58.95,-8.65,-5.84,1
3972,58.96,12.22,-16.94,1
3973,58.97,6.06,-17.46,1
3974,58.99,-7.94,-4.34,1
3975,59.0,-10.41,-21.85,1
3976,59.01,4.42,-12.01,1
3977,59.03,10.34,0.29,1
3978,59.04,3.23,-0.55,1
3979,59.05,13.61,3.41,1
3980,59.06,23.79,-6.52,1
3981,59.08,17.14,4.13,1
3982,59.09,22.36,7.89,1
3983,59.11,22.84,-6.41,1
3984,59.12,28.62,13.15,1
3985,59.13,20.54,14.66,1
3986,59.15,26.19,2.46,1
3987,59.16,28.51,19.7,1
3988,59.17,30.41,16.08,1
3989,59.19,26.35,3.77,1
3990,59.2,31.82,7.56,1
3991,59.21,22.75,15.7,1
3992,59.22,31.78,-4.72,1
3993,59.24,23.28,1.9,1
3994,59.25,8.73,12.91,1
3995,59.27,19.12,-1.1,1
3996,59.28,21.18,10.66,1
3997,59.29,18.48,3.39,1
3998,59.3,14.33,13.65,1
3999,59.32,8.11,1.44,1
4000,59.33,21.97,0.98,1
4001,59.35,25.33,9.66,1
4002,59.36,6.06,7.78,1
4003,59.37,29.5,7.04,1
4004,59.38,6.7,-14.89,1
4005,59.4,-0.42,17.34,1
4006,59.41,7.44,4.47,1
4007,59.43,10.29,-3.55,1
4008,59.44,11.8,-13.76,1
4009,59.45,0.07,-11.93,1
4010,59.47,1.49,-5.9,1
4011,59.48,3.75,-13.19,1
4012,59.49,2.36,4.58,1
4013,59.51,1.27,9.37,1
4014,59.52,-0.24,2.29,1
4015,59.53,-2.57,4.36,1
4016,59.54,1.04,-18.81,1
4017,59.56,-10.35,-10.57,1
4018,59.57,6.78,3.68,1
4019,59.59,-8.0,3.8,1
4020,59.6,-17.7,-13.62,1
4021,59.61,-13.74,5.69,1
4022,59.63,-7.34,-1.82,1
4023,59.64,-2.67,5.45,1
4024,59.65,-15.35,11.09,1
4025,59.67,7.27,-7.97,1
4026,59.68,-8.74,0.33,1
4027,59.69,-7.04,-16.04,1
4028,59.71,-8.98,0.16,1
4029,59.72,-10.46,-12.54,1
4030,59.73,-18.93,-9.98,1
4031,59.75,-27.37,-2.76,1
4032,59.76,-16.86,-0.81,1
4033,59.77,-6.67,2.72,1
4034,59.79,-8.1,-1.39,1
4035,59.8,-10.88,7.09,1
4036,59.81,0.42,-10.42,1
4037,59.83,-0.68,-3.17,1
4038,59.84,-4.72,4.0,1
4039,59.85,-7.97,16.69,1
4040,59.87,-4.03,2.06,1
4041,59.88,2.88,10.18,1
4042,59.89,1.67,8.6,1
4043,59.9,-10.52,4.58,1
4044,59.92,-5.94,-16.08,1
4045,59.93,-6.65,-5.11,1
4046,59.94,-9.61,8.91,1
4047,59.96,6.32,-1.92,1
4048,59.97,6.71,0.67,1
4049,59.99,0.74,3.91,1
4050,60.0,-4.95,-2.3,1
4051,60.01,1.29,-0.99,1
4052,60.03,7.45,-2.18,1
4053,60.04,-5.82,-16.77,1
4054,60.05,5.41,14.25,1
4055,60.06,-4.14,9.69,1
4056,60.08,-16.05,12.79,1
4057,60.09,8.7,-17.03,1
4058,60.11,-4.65,-8.52,1
4059,60.12,-3.04,-9.09,1
4060,60.13,13.83,-2.96,1
4061,60.15,9.15,-2.33,1
4062,60.16,3.05,-3.85,0
4063,60.17,6.19,7.76,0
4064,60.19,5.07,3.59,0
4065,60.2,-4.72,-25.39,0
4066,60.21,2.97,-37.41,0
4067,60.22,-25.12,-27.92,0
4068,60.24,-53.96,22.81,0
4069,60.25,-73.08,23.41,0
4070,60.27,-109.62,-14.12,0
4071,60.28,-94.85,12.15,0
4072,60.29,-99.19,-9.61,0
4073,60.31,-73.96,-0.44,0
4074,60.32,-39.53,-5.29,0
4075,60.33,-3.7,23.16,0
4076,60.35,42.68,21.44,0
4077,60.36,75.39,12.97,0
4078,60.37,83.59,9.34,0
4079,60.38,114.09,2.95,0
4080,60.4,102.5,25.58,0
4081,60.41,128.47,6.93,0
4082,60.43,120.49,12.11,0
4083,60.44,122.49,4.73,0
4084,60.45,106.62,15.93,0
4085,60.47,98.07,19.13,0
4086,60.48,70.16,-1.73,0
4087,60.49,67.41,-6.57,0
4088,60.51,58.61,-3.87,0
4089,60.52,42.93,7.39,0
4090,60.53,31.21,0.95,0
4091,60.54,17.38,1.79,0
4092,60.56,4.12,19.29,1
4093,60.57,-5.13,10.67,1
4094,60.58,-10.08,-2.11,1
4095,60.6,-24.52,-11.9,1
4096,60.61,-24.32,-1.04,1
4097,60.62,-32.66,-14.3,1
4098,60.64,-38.93,-4.86,1
4099,60.65,-49.42,-5.66,1
4100,60.67,-56.68,-19.96,1
4101,60.68,-59.4,-2.85,1
4102,60.69,-41.21,-11.73,1
4103,60.71,-53.31,-32.23,1
4104,60.72,-61.91,-7.33,1
4105,60.73,-68.9,-9.97,1
4106,60.75,-39.57,-2.27,1
4107,60.76,-46.71,-4.05,1
4108,60.77,-52.84,5.66,1
4109,60.79,-51.85,-9.08,1
4110,60.8,-48.15,-13.74,1
4111,60.81,-49.21,-1.84,1
4112,60.83,-58.08,-2.65,1
4113,60.84,-55.29,-0.5,1
4114,60.85,-53.49,3.83,1
4115,60.87,-30.2,-14.48,1
4116,60.88,-20.39,1.59,1
4117,60.89,-7.6,-8.45,1
4118,60.9,-24.13,-19.51,1
4119,60.92,-10.06,-3.54,1
4120,60.93,8.76,2.96,1
4121,60.95,4.02,0.16,1
4122,60.96,-10.96,-0.66,1
4123,60.97,-2.84,-3.33,1
4124,60.99,-2.0,2.36,1
4125,61.0,14.35,6.09,1
4126,61.01,15.89,14.56,1
4127,61.03,9.72,10.76,1
4128,61.04,14.92,-2.69,1
4129,61.05,-0.3,11.09,1
4130,61.06,7.32,13.34,1
4131,61.08,10.36,13.8,1
4132,61.09,14.72,13.95,1
4133,61.11,34.52,-12.81,1
4134,61.12,33.3,15.38,1
4135,61.13,31.52,-10.04,1
4136,61.15,23.58,6.38,1
4137,61.16,18.77,-9.26,1
4138,61.17,19.6,4.13,1
4139,61.19,-1.16,7.68,1
4140,61.2,10.94,-7.62,1
4141,61.21,33.23,-15.45,1
4142,61.22,19.7,0.91,1
4143,61.24,26.84,12.05,1
4144,61.25,4.82,22.75,1
4145,61.26,24.61,1.51,1
4146,61.28,6.02,8.13,1
4147,61.29,18.73,-3.52,1
4148,61.31,16.56,-1.37,1
4149,61.32,16.97,-1.52,1
4150,61.33,15.6,14.59,1
4151,61.35,8.47,11.14,1
4152,61.36,17.54,13.59,1
4153,61.37,9.94,3.95,1
4154,61.38,10.2,0.78,1
4155,61.4,1.11,5.07,1
4156,61.41,-1.06,-1.0,1
4157,61.43,16.56,2.76,1
4158,61.44,5.97,-15.86,1
4159,61.45,13.88,-7.28,1
4160,61.47,14.33,-2.77,1
4161,61.48,4.29,13.36,1
4162,61.49,-6.47,-11.76,1
4163,61.51,2.92,0.98,1
4164,61.52,-8.78,-1.06,1
4165,61.53,-4.88,-0.85,1
4166,61.54,8.44,-5.47,1
4167,61.56,9.2,1.84,1
4168,61.57,-1.7,-10.83,1
4169,61.59,-2.15,-8.55,1
4170,61.6,1.44,-0.25,1
4171,61.61,-8.19,-8.05,1
4172,61.63,-17.58,3.64,1
4173,61.64,-22.93,-10.85,1
4174,61.65,-7.11,0.6,1
4175,61.67,-6.1,-7.54,1
4176,61.68,11.27,-8.53,1
4177,61.69,-9.58,1.91,1
4178,61.71,-10.61,-0.2,1
4179,61.72,-9.97,9.24,1
4180,61.73,-5.39,0.42,1
4181,61.75,-12.85,-7.38,1
4182,61.76,-8.9,-13.03,1
4183,61.77,-10.67,6.08,1
4184,61.79,-1.73,-2.25,1
4185,61.8,-20.15,-11.47,1
4186,61.81,-2.08,-1.29,1
4187,61.83,-12.68,-0.02,1
4188,61.84,-16.73,-5.24,1
4189,61.85,-9.04,-1.77,1
4190,61.86,-9.01,-6.14,1
4191,61.88,-8.39,3.07,1
4192,61.89,-8.22,10.67,1
4193,61.9,-5.81,-4.98,1
4194,61.92,-5.85,2.29,1
4195,61.93,15.95,0.11,1
4196,61.95,11.03,1.63,1
4197,61.96,-5.07,-1.26,1
4198,61.97,-6.64,9.95,1
4199,61.99,4.65,7.35,1
4200,62.0,12.23,-5.07,1
4201,62.01,-0.05,5.64,1
4202,62.03,1.03,9.48,1
4203,62.04,-0.11,14.99,1
4204,62.05,2.42,1.84,1
4205,62.06,-1.01,3.92,1
4206,62.08,-15.85,-16.3,1
4207,62.09,0.31,-14.61,1
4208,62.11,-10.88,-21.22,1
4209,62.12,-2.25,-14.5,1
4210,62.13,8.49,1.41,1
4211,62.15,1.94,-15.65,1
4212,62.16,18.0,-11.67,2
4213,62.17,2.52,-20.64,2
4214,62.19,7.04,-8.5,2
4215,62.2,20.46,6.48,2
4216,62.21,-5.51,10.7,2
4217,62.22,55.95,14.27,2
4218,62.24,67.28,19.83,2
4219,62.25,98.91,30.16,2
4220,62.27,134.65,12.65,2
4221,62.28,152.17,9.22,2
4222,62.29,123.68,17.53,2
4223,62.31,84.1,12.28,2
4224,62.32,53.81,12.95,2
4225,62.33,28.35,6.24,2
4226,62.35,-18.78,20.68,2
4227,62.36,-51.44,15.4,2
4228,62.37,-99.17,10.2,2
4229,62.38,-152.11,21.14,2
4230,62.4,-195.58,16.42,2
4231,62.41,-209.05,23.98,2
4232,62.43,-195.72,27.11,2
4233,62.44,-176.15,26.72,2
4234,62.45,-155.96,3.7,2
4235,62.47,-145.98,-13.14,2
4236,62.48,-111.22,-17.52,2
4237,62.49,-80.37,-33.49,2
4238,62.5,-53.8,-27.4,2
4239,62.52,-47.46,-25.69,2
4240,62.53,-33.18,-27.31,2
4241,62.54,-14.87,-37.37,2
4242,62.56,6.23,-32.29,1
4243,62.57,30.07,-25.94,1
4244,62.58,29.51,-20.9,1
4245,62.6,52.29,1.9,1
4246,62.61,46.62,-0.38,1
4247,62.63,58.97,6.79,1
4248,62.64,88.69,-9.73,1
4249,62.65,86.55,-24.14,1
4250,62.67,76.38,-2.29,1
4251,62.68,81.12,0.51,1
4252,62.69,73.39,0.45,1
4253,62.71,82.2,1.08,1
4254,62.72,76.64,-1.28,1
4255,62.73,74.82,-6.43,1
4256,62.75,67.11,4.43,1
4257,62.76,68.38,15.56,1
4258,62.77,67.61,11.01,1
4259,62.79,56.44,-0.83,1
4260,62.8,48.18,-5.23,1
4261,62.81,45.38,-7.74,1
4262,62.83,44.52,14.81,1
4263,62.84,38.61,8.17,1
4264,62.85,21.24,10.95,1
4265,62.87,25.23,19.97,1
4266,62.88,25.99,7.65,1
4267,62.89,31.25,-4.02,1
4268,62.9,25.36,4.36,1
4269,62.92,7.64,0.01,1
4270,62.93,-6.77,-2.4,1
4271,62.95,-12.47,-6.84,1
4272,62.96,-4.55,-10.17,1
4273,62.97,13.69,-6.65,1
4274,62.99,-7.29,-26.83,1
4275,63.0,-0.56,1.77,1
4276,63.01,-14.72,-4.37,1
4277,63.03,-5.98,9.4,1
4278,63.04,-14.03,0.55,1
4279,63.05,-14.54,3.56,1
4280,63.06,-14.93,1.33,1
4281,63.08,-30.67,-7.53,1
4282,63.09,-34.18,3.85,1
4283,63.11,-36.48,2.49,1
4284,63.12,-27.31,-0.18,1
4285,63.13,-22.9,5.44,1
4286,63.14,-21.03,5.13,1
4287,63.16,-29.96,7.21,1
4288,63.17,-34.2,7.25,1
4289,63.18,-35.03,1.6,1
4290,63.2,-28.94,21.06,1
4291,63.21,-22.33,23.78,1
4292,63.22,-30.58,12.21,1
4293,63.24,-23.43,14.86,1
4294,63.25,-23.19,4.35,1
4295,63.27,-30.03,-16.51,1
4296,63.28,-20.79,17.29,1
4297,63.29,-18.95,2.57,1
4298,63.31,-28.46,12.92,1
4299,63.32,25.92,1.23,1
4300,63.33,6.34,15.9,1
4301,63.35,-23.35,-2.13,1
4302,63.36,-13.85,-8.91,1
4303,63.37,-27.12,-4.35,1
4304,63.38,-15.79,-11.76,1
4305,63.4,-20.94,-16.98,1
4306,63.41,-7.08,-10.91,1
4307,63.43,-13.57,-13.27,1
4308,63.44,-7.01,3.76,1
4309,63.45,-19.33,6.56,1
4310,63.47,-12.05,-11.55,1
4311,63.48,-11.74,-11.56,1
4312,63.49,-1.62,2.54,1
4313,63.51,10.44,-10.57,1
4314,63.52,3.08,-2.07,1
4315,63.53,-9.5,-3.05,1
4316,63.54,10.29,1.93,1
4317,63.56,-1.03,-8.88,1
4318,63.57,10.31,-7.65,1
4319,63.59,11.07,1.23,1
4320,63.6,19.08,-4.17,1
4321,63.61,9.13,-10.73,1
4322,63.63,11.15,-11.46,1
4323,63.64,1.82,12.36,1
4324,63.65,18.26,11.4,1
4325,63.67,19.8,8.97,1
4326,63.68,9.72,5.44,1
4327,63.69,19.4,-8.12,1
4328,63.71,24.16,12.15,1
4329,63.72,17.61,1.44,1
4330,63.73,15.02,1.25,1
4331,63.75,9.12,-3.08,1
4332,63.76,8.47,-13.2,1
4333,63.77,13.17,-2.88,1
4334,63.78,10.9,-4.03,1
4335,63.8,15.27,-2.46,1
4336,63.81,18.94,-1.33,1
4337,63.82,16.54,-2.97,1
4338,63.84,5.92,1.31,1
4339,63.85,0.43,11.61,1
4340,63.86,9.19,-4.11,1
4341,63.88,0.26,19.8,1
4342,63.89,6.84,14.78,1
4343,63.9,-4.58,0.63,1
4344,63.92,-11.44,1.54,1
4345,63.93,-10.57,-8.52,1
4346,63.95,7.16,-2.76,1
4347,63.96,5.71,-1.51,1
4348,63.97,5.92,0.16,1
4349,63.99,-0.39,0.86,1
4350,64.0,-14.59,2.48,1
4351,64.01,-9.9,-3.18,1
4352,64.02,-0.94,-1.74,1
4353,64.04,8.59,-7.14,1
4354,64.05,10.18,-3.66,1
4355,64.06,1.88,20.2,1
4356,64.08,-13.78,1.19,1
4357,64.09,-22.14,2.45,1
4358,64.11,-7.11,-4.88,1
4359,64.12,1.87,-8.5,1
4360,64.13,2.91,10.67,1
4361,64.14,7.54,32.52,1
4362,64.16,-9.36,32.69,1
4363,64.17,-5.82,112.0,1
4364,64.18,11.61,355.76,1
4365,64.2,2.98,40.88,1
4366,64.21,3.25,-332.96,1
4367,64.22,41.52,118.61,1
4368,64.24,-51.4,311.2,1
4369,64.25,-199.79,130.83,1
4370,64.26,-16.79,66.83,1
4371,64.28,150.63,94.65,1
4372,64.29,326.84,-242.96,1
4373,64.3,149.54,-123.45,1
4374,64.32,286.82,56.88,1
4375,64.33,136.0,-299.31,1
4376,64.34,40.97,-75.67,1
4377,64.36,-165.97,-151.62,1
4378,64.37,3.72,-319.11,1
4379,64.38,-156.74,-114.33,1
4380,64.4,-85.04,81.41,1
4381,64.41,-95.62,90.9,1
4382,64.42,-157.74,-189.08,1
4383,64.44,-10.09,-89.59,1
4384,64.45,-133.22,94.27,1
4385,64.46,-164.02,65.98,1
4386,64.48,-106.31,-173.44,1
4387,64.49,-262.0,-123.9,1
4388,64.5,53.28,-382.82,1
4389,64.52,-220.21,-352.94,1
4390,64.53,-33.24,15.86,1
4391,64.54,90.47,-173.97,1
4392,64.56,4.86,-344.62,1
4393,64.57,-177.52,73.65,1
4394,64.58,-133.14,126.07,1
4395,64.6,-37.81,145.15,1
4396,64.61,-84.47,171.04,1
4397,64.62,43.37,67.1,1
4398,64.64,101.18,192.78,1
4399,64.65,-9.48,235.51,1
4400,64.66,-209.15,123.91,1
4401,64.68,130.9,-19.25,1
4402,64.69,60.22,110.92,1
4403,64.7,-42.5,439.84,1
4404,64.72,60.05,61.68,1
4405,64.73,79.41,263.54,1
4406,64.75,27.43,230.91,1
4407,64.76,51.38,-350.57,1
4408,64.77,256.54,-132.09,1
4409,64.79,149.94,182.73,1
4410,64.8,189.7,190.6,1
4411,64.81,84.43,166.34,1
4412,64.82,128.31,-25.13,1
4413,64.84,73.54,-75.61,1
4414,64.85,65.36,-58.93,1
4415,64.86,84.5,377.53,1
4416,64.88,-59.61,20.97,1
4417,64.89,249.98,-29.9,1
4418,64.9,86.95,-0.69,1
4419,64.92,74.35,-9.09,1
4420,64.93,78.14,-175.3,1
4421,64.94,-0.51,129.84,1
4422,64.96,-13.04,337.28,1
4423,64.97,-56.8,239.45,1
4424,64.98,102.67,-42.28,1
4425,65.0,-217.02,-354.75,1
4426,65.01,-71.01,-54.7,1
4427,65.02,-37.82,-182.64,1
4428,65.04,199.82,-191.98,1
4429,65.05,212.82,-114.9,1
4430,65.06,-137.86,3.98,1
4431,65.08,-111.42,-33.27,1
4432,65.09,-3.59,-45.76,1
4433,65.1,-78.31,-42.47,1
4434,65.12,49.64,-90.57,1
4435,65.13,-46.83,-71.55,1
4436,65.14,-8.4,-56.04,1
4437,65.16,-77.85,-107.55,1
4438,65.17,-83.14,-154.14,1
4439,65.18,-84.74,-131.65,1
4440,65.2,-138.55,-141.13,1
4441,65.21,-224.75,-113.76,1
4442,65.22,-242.62,-17.14,1
4443,65.24,-215.07,59.95,1
4444,65.25,-118.76,81.47,1
4445,65.26,-90.36,97.37,1
4446,65.28,-23.58,104.76,1
4447,65.29,13.8,132.82,1
4448,65.3,39.43,157.1,1
4449,65.32,50.06,164.37,1
4450,65.33,58.25,171.0,1
4451,65.34,91.81,128.09,1
4452,65.36,94.83,130.72,1
4453,65.37,86.06,97.57,1
4454,65.38,88.15,67.53,1
4455,65.4,69.72,72.62,1
4456,65.41,100.95,42.57,1
4457,65.43,64.11,86.25,1
4458,65.44,85.49,-0.9,1
4459,65.45,55.11,14.11,1
4460,65.46,39.04,-51.56,1
4461,65.48,16.27,-30.02,1
4462,65.49,18.56,-47.82,1
4463,65.5,10.56,-79.88,1
4464,65.52,36.24,-87.18,1
4465,65.53,14.59,-69.72,1
4466,65.54,-1.83,-102.04,1
4467,65.56,-24.19,-102.04,1
4468,65.57,-17.47,-102.28,1
4469,65.58,-13.38,-86.2,1
4470,65.6,13.92,-94.72,1
4471,65.61,-21.49,-105.61,1
4472,65.62,-13.94,-78.19,1
4473,65.64,-36.67,-65.41,1
4474,65.65,-42.91,-77.59,1
4475,65.66,-36.32,-77.16,1
4476,65.68,-41.7,-51.07,1
4477,65.69,-33.83,-48.02,1
4478,65.7,-38.4,-45.9,1
4479,65.72,-26.67,-37.85,1
4480,65.73,-25.11,-26.36,1
4481,65.74,-17.97,-30.01,1
4482,65.76,-22.0,-19.72,1
4483,65.77,-29.67,-6.13,1
4484,65.78,-32.8,-19.49,1
4485,65.8,-24.5,-8.6,1
4486,65.81,-20.05,-0.02,1
4487,65.82,-13.58,12.51,1
4488,65.84,-4.5,8.38,1
4489,65.85,-1.42,11.73,1
4490,65.86,-19.79,18.14,1
4491,65.88,-1.9,19.42,1
4492,65.89,5.6,28.86,1
4493,65.9,14.18,34.15,1
4494,65.92,0.79,12.29,1
4495,65.93,2.71,39.5,1
4496,65.94,4.28,39.89,1
4497,65.96,-16.21,34.53,1
4498,65.97,12.61,32.62,1
4499,65.98,9.87,54.16,1
4500,66.0,9.14,37.19,1
4501,66.01,9.53,41.96,1
4502,66.02,26.76,48.77,1
4503,66.04,13.15,58.86,1
4504,66.05,18.11,42.41,1
4505,66.06,22.28,19.58,1
4506,66.08,21.52,12.14,1
4507,66.09,-2.25,39.54,1
4508,66.11,21.04,52.92,1
4509,66.12,4.93,13.36,1
4510,66.13,7.25,23.53,1
4511,66.14,30.09,12.83,1
4512,66.16,23.7,7.25,2
4513,66.17,23.1,-14.35,2
4514,66.18,8.33,25.27,2
4515,66.2,13.43,30.49,2
4516,66.21,7.4,16.35,2
4517,66.22,6.49,29.27,2
4518,66.24,4.02,5.81,2
4519,66.25,1.72,12.53,2
4520,66.26,59.45,-4.04,2
4521,66.28,143.46,-29.61,2
4522,66.29,154.97,-13.59,2
4523,66.3,124.47,-16.2,2
4524,66.32,75.82,-22.97,2
4525,66.33,52.06,-6.26,2
4526,66.34,3.71,-0.93,2
4527,66.36,-39.04,1.03,2
4528,66.37,-57.69,-8.53,2
4529,66.38,-96.72,31.58,2
4530,66.4,-112.74,37.47,2
4531,66.41,-120.77,20.78,2
4532,66.42,-93.92,29.61,2
4533,66.44,-103.68,62.27,2
4534,66.45,-101.24,61.48,2
4535,66.46,-93.11,59.2,2
4536,66.48,-81.54,40.97,2
4537,66.49,-73.55,9.77,2
4538,66.5,-60.78,-10.44,2
4539,66.52,-34.83,-35.27,2
4540,66.53,-40.01,-49.72,2
4541,66.54,-30.88,-35.91,2
4542,66.56,-28.3,-27.37,1
4543,66.57,-19.51,-47.11,1
4544,66.58,-0.1,-58.21,1
4545,66.6,-4.69,-49.23,1
4546,66.61,14.26,-37.03,1
4547,66.62,9.48,-49.26,1
4548,66.64,-7.53,-40.21,1
4549,66.65,11.55,-44.26,1
4550,66.66,25.07,-17.82,1
4551,66.68,24.44,-24.86,1
4552,66.69,32.29,-29.33,1
4553,66.7,42.99,-8.13,1
4554,66.72,43.04,-7.68,1
4555,66.73,30.22,-15.9,1
4556,66.75,39.83,-19.26,1
4557,66.76,46.99,-19.46,1
4558,66.77,62.07,-18.1,1
4559,66.79,63.8,-15.35,1
4560,66.8,55.23,-0.3,1
4561,66.81,50.87,-6.1,1
4562,66.82,36.98,-19.26,1
4563,66.84,35.81,-8.1,1
4564,66.85,57.21,5.6,1
4565,66.86,26.25,2.46,1
4566,66.88,39.94,2.5,1
4567,66.89,30.12,0.29,1
4568,66.9,28.76,-5.93,1
4569,66.92,7.14,17.39,1
4570,66.93,14.22,8.4,1
4571,66.94,8.54,15.6,1
4572,66.96,9.4,6.76,1
4573,66.97,4.2,13.82,1
4574,66.98,1.07,24.5,1
4575,67.0,-3.93,12.85,1
4576,67.01,1.82,12.95,1
4577,67.02,-1.4,39.84,1
4578,67.04,3.8,12.29,1
4579,67.05,14.51,23.48,1
4580,67.06,2.07,20.56,1
4581,67.08,-4.66,6.82,1
4582,67.09,4.85,24.1,1
4583,67.1,-25.64,23.12,1
4584,67.12,-16.97,17.69,1
4585,67.13,-18.61,0.96,1
4586,67.14,-37.81,-4.88,1
4587,67.16,-24.36,-4.39,1
4588,67.17,-28.61,11.84,1
4589,67.18,-23.43,3.39,1
4590,67.2,-15.48,7.5,1
4591,67.21,-25.39,13.4,1
4592,67.22,-16.62,7.84,1
4593,67.24,-27.32,5.94,1
4594,67.25,-19.06,-1.95,1
4595,67.26,-21.16,-1.3,1
4596,67.28,-28.67,-1.71,1
4597,67.29,-11.65,-1.43,1
4598,67.3,-11.27,14.23,1
4599,67.32,-30.05,2.29,1
4600,67.33,-16.07,-10.74,1
4601,67.34,-18.49,-26.79,1
4602,67.36,-7.96,4.18,1
4603,67.37,-22.96,-1.61,1
4604,67.38,-5.18,-14.91,1
4605,67.4,-13.33,-15.94,1
4606,67.41,-0.98,-14.57,1
4607,67.43,6.55,-10.64,1
4608,67.44,-4.97,-7.11,1
4609,67.45,-0.86,-18.67,1
4610,67.46,-7.79,-5.53,1
4611,67.48,8.43,0.78,1
4612,67.49,-2.46,1.01,1
4613,67.5,6.13,12.5,1
4614,67.52,16.37,6.88,1
4615,67.53,-0.27,14.26,1
4616,67.54,10.93,2.57,1
4617,67.56,-11.08,-5.84,1
4618,67.57,0.15,4.44,1
4619,67.58,-11.11,-20.83,1
4620,67.6,-0.3,-12.98,1
4621,67.61,2.12,4.85,1
4622,67.62,-3.88,2.43,1
4623,67.64,19.64,-7.82,1
4624,67.65,12.46,2.88,1
4625,67.66,6.42,9.16,1
4626,67.68,-10.88,6.98,1
4627,67.69,-12.46,4.13,1
4628,67.7,9.79,-22.32,1
4629,67.72,10.17,-10.1,1
4630,67.73,29.42,-1.2,1
4631,67.74,12.77,9.08,1
4632,67.76,2.48,-6.66,1
4633,67.77,21.18,-2.82,1
4634,67.785,0.88,3.43,1
4635,67.8,17.08,-7.37,1
4636,67.81,-5.64,6.68,1
4637,67.82,-5.24,-1.31,1
4638,67.84,-15.34,10.07,1
4639,67.85,16.23,-9.05,1
4640,67.86,-4.86,-5.78,1
4641,67.88,3.33,8.04,1
4642,67.89,2.94,6.74,1
4643,67.9,1.87,-3.56,1
4644,67.92,2.41,8.52,1
4645,67.93,0.41,6.6,1
4646,67.94,4.4,-2.11,1
4647,67.96,14.58,-12.93,1
4648,67.97,13.79,4.33,1
4649,67.98,9.0,-14.31,1
4650,68.0,3.82,3.09,1
4651,68.01,7.09,8.96,1
4652,68.02,-2.29,-6.3,1
4653,68.04,-11.11,11.53,1
4654,68.05,6.51,-3.12,1
4655,68.06,9.73,-5.75,1
4656,68.08,-10.84,5.39,1
4657,68.09,-21.76,-3.2,1
4658,68.11,-7.96,-4.2,1
4659,68.12,16.86,18.04,1
4660,68.13,15.95,8.22,1
4661,68.14,3.91,3.07,1
4662,68.16,10.1,-14.15,0
4663,68.17,-2.54,6.36,0
4664,68.18,-4.37,17.87,0
4665,68.2,-6.04,-1.42,0
4666,68.21,-3.28,-16.66,0
4667,68.22,-22.74,4.24,0
4668,68.24,3.87,-1.75,0
4669,68.25,-27.2,-6.5,0
4670,68.26,5.92,-1.71,0
4671,68.28,3.82,-7.7,0
4672,68.29,17.05,-3.28,0
4673,68.3,-0.41,4.31,0
4674,68.32,10.84,-1.58,0
4675,68.33,2.6,18.22,0
4676,68.34,-0.56,12.57,0
4677,68.36,-10.74,1.69,0
4678,68.37,6.18,8.61,0
4679,68.38,-68.57,16.8,0
4680,68.4,-85.92,-0.34,0
4681,68.41,-130.86,-2.51,0
4682,68.42,-123.54,-7.53,0
4683,68.44,-109.82,-2.55,0
4684,68.45,-109.19,-21.6,0
4685,68.46,-77.85,-14.42,0
4686,68.48,-63.59,2.49,0
4687,68.49,-22.36,3.49,0
4688,68.5,14.9,-5.68,0
4689,68.52,54.66,22.26,0
4690,68.53,114.7,26.72,0
4691,68.54,160.62,17.3,0
4692,68.56,187.73,13.02,1
4693,68.57,191.34,-12.59,1
4694,68.58,182.0,-5.45,1
4695,68.6,162.28,-4.48,1
4696,68.61,138.95,-19.49,1
4697,68.62,128.83,-20.82,1
4698,68.64,104.5,-27.73,1
4699,68.65,73.0,-9.86,1
4700,68.66,48.58,-21.7,1
4701,68.68,37.04,-6.73,1
4702,68.69,17.09,-11.23,1
4703,68.7,8.1,-28.13,1
4704,68.72,-22.53,-18.31,1
4705,68.73,-24.68,2.84,1
4706,68.75,-39.61,-4.7,1
4707,68.76,-36.53,7.62,1
4708,68.77,-70.72,5.4,1
4709,68.79,-61.27,19.58,1
4710,68.8,-55.82,20.31,1
4711,68.81,-74.08,-0.24,1
4712,68.82,-62.9,5.39,1
4713,68.84,-68.47,16.15,1
4714,68.85,-69.8,22.67,1
4715,68.86,-76.79,10.56,1
4716,68.88,-69.4,0.52,1
4717,68.89,-51.88,-0.41,1
4718,68.9,-63.35,4.9,1
4719,68.92,-72.49,7.44,1
4720,68.93,-59.6,14.92,1
4721,68.94,-48.78,13.1,1
4722,68.96,-39.79,2.51,1
4723,68.97,-46.3,3.57,1
4724,68.98,-40.71,1.79,1
4725,69.0,-43.17,10.38,1
4726,69.01,-35.08,17.85,1
4727,69.02,-12.28,8.89,1
4728,69.04,-0.69,12.33,1
4729,69.05,2.59,1.31,1
4730,69.06,-18.3,-16.97,1
4731,69.08,-9.02,-14.74,1
4732,69.09,6.75,-9.54,1
4733,69.11,-7.03,0.47,1
4734,69.12,-3.7,-4.58,1
4735,69.13,-0.84,2.47,1
4736,69.14,6.94,-9.72,1
4737,69.16,4.64,-11.05,1
4738,69.17,15.89,-17.59,1
4739,69.18,4.08,-6.38,1
4740,69.2,18.97,-4.51,1
4741,69.21,16.88,-7.56,1
4742,69.22,12.07,-1.41,1
4743,69.24,19.73,-4.18,1
4744,69.25,20.79,-17.88,1
4745,69.26,18.57,-9.99,1
4746,69.28,37.04,-3.12,1
4747,69.29,19.82,9.74,1
4748,69.3,18.54,-2.13,1
4749,69.32,21.0,2.76,1
4750,69.33,28.79,-17.51,1
4751,69.34,14.47,-0.55,1
4752,69.36,22.82,12.82,1
4753,69.37,26.27,-2.33,1
4754,69.38,26.45,11.67,1
4755,69.4,27.56,0.92,1
4756,69.41,30.99,7.38,1
4757,69.43,19.09,2.03,1
4758,69.44,18.73,9.72,1
4759,69.45,11.65,11.24,1
4760,69.46,8.79,10.19,1
4761,69.48,24.01,14.85,1
4762,69.49,16.16,-7.87,1
4763,69.5,22.21,-10.29,1
4764,69.52,14.84,2.23,1
4765,69.53,17.02,-3.91,1
4766,69.54,12.65,-3.77,1
4767,69.56,11.8,1.52,1
4768,69.57,0.26,-3.69,1
4769,69.58,-0.55,1.7,1
4770,69.6,3.69,7.42,1
4771,69.61,-4.6,-13.06,1
4772,69.62,5.23,-18.13,1
4773,69.64,-7.98,-4.58,1
4774,69.65,-7.12,-2.65,1
4775,69.66,-10.12,4.7,1
4776,69.68,-4.74,6.24,1
4777,69.69,-2.58,-6.82,1
4778,69.7,-7.48,9.87,1
4779,69.72,-8.41,4.01,1
4780,69.73,-9.12,5.44,1
4781,69.75,-17.82,7.74,1
4782,69.76,0.2,7.84,1
4783,69.77,13.11,-2.05,1
4784,69.79,-7.14,-4.85,1
4785,69.8,-12.04,-16.45,1
4786,69.81,-10.3,1.91,1
4787,69.82,-14.08,2.76,1
4788,69.84,-0.63,-4.96,1
4789,69.85,-1.77,3.15,1
4790,69.86,-3.28,5.61,1
4791,69.88,-9.47,7.92,1
4792,69.89,-12.64,4.36,1
4793,69.9,-5.81,10.58,1
4794,69.92,-12.63,-10.43,1
4795,69.93,-12.05,-14.55,1
4796,69.94,-13.71,-15.15,1
4797,69.96,-8.48,-13.65,1
4798,69.97,-23.83,-2.24,1
4799,69.98,-1.67,-3.95,1
4800,70.0,-17.06,9.49,1
4801,70.01,3.45,10.87,1
4802,70.02,-5.6,14.86,1
4803,70.04,-1.59,14.47,1
4804,70.05,-5.86,8.34,1
4805,70.06,4.48,16.65,1
4806,70.08,-6.28,8.6,1
4807,70.09,-6.54,-2.41,1
4808,70.11,0.21,-1.42,1
4809,70.12,4.37,5.32,1
4810,70.13,-10.61,1.62,1
4811,70.14,9.55,12.59,1
4812,70.16,14.31,8.71,0
4813,70.17,11.2,1.55,0
4814,70.18,13.61,8.62,0
4815,70.2,1.42,-11.57,0
4816,70.21,3.61,-13.29,0
4817,70.22,4.22,-2.64,0
4818,70.24,5.92,8.26,0
4819,70.25,-6.07,18.29,0
4820,70.26,-65.79,-0.86,0
4821,70.28,-106.92,-23.78,0
4822,70.29,-117.99,-20.78,0
4823,70.3,-127.21,-11.99,0
4824,70.32,-105.22,-35.97,0
4825,70.33,-60.74,-45.36,0
4826,70.34,-28.1,-55.44,0
4827,70.36,11.67,-23.67,0
4828,70.37,44.23,-10.94,0
4829,70.38,81.17,-31.26,0
4830,70.4,101.22,2.21,0
4831,70.41,109.99,9.9,0
4832,70.43,115.41,16.93,0
4833,70.44,130.34,34.54,0
4834,70.45,119.6,4.77,0
4835,70.46,96.71,2.78,0
4836,70.48,97.13,22.03,0
