,Timestamp,Data1,Data2,Label
0,6.0,-11.26,3.08,1
1,6.01,3.12,-22.29,1
2,6.03,-32.65,1.41,1
3,6.04,2.96,7.57,1
4,6.05,9.22,-12.29,1
5,6.07,-14.75,-4.78,1
6,6.08,0.94,-1.99,1
7,6.09,8.21,-4.74,1
8,6.11,-6.25,7.44,1
9,6.12,8.82,23.94,1
10,6.13,15.76,42.88,1
11,6.15,3.8,21.67,2
12,6.16,67.87,23.07,2
13,6.17,107.84,8.98,2
14,6.19,123.59,35.63,2
15,6.2,124.74,-23.83,2
16,6.21,117.47,-7.31,2
17,6.23,111.89,39.1,2
18,6.24,62.3,-2.37,2
19,6.25,-16.12,-23.47,2
20,6.27,-53.17,-68.49,2
21,6.28,-89.73,-80.84,2
22,6.29,-108.05,-77.88,2
23,6.31,-122.74,-73.08,2
24,6.32,-126.23,-44.81,2
25,6.33,-150.3,-21.52,2
26,6.35,-132.71,36.46,2
27,6.36,-116.09,42.48,2
28,6.37,-104.07,51.1,2
29,6.39,-109.41,39.91,2
30,6.4,-74.01,60.47,2
31,6.41,-52.33,55.67,2
32,6.43,-33.1,31.6,2
33,6.44,-26.84,38.29,2
34,6.45,-30.77,34.16,2
35,6.47,-29.68,53.68,2
36,6.48,-14.9,40.4,2
37,6.49,-6.6,34.11,2
38,6.51,4.13,13.95,2
39,6.52,20.13,27.91,2
40,6.53,28.78,23.86,2
41,6.55,38.8,18.41,2
42,6.56,42.46,-3.24,1
43,6.57,39.44,7.07,1
44,6.59,70.38,-3.32,1
45,6.6,39.65,17.76,1
46,6.61,71.74,-3.29,1
47,6.63,57.29,-28.01,1
48,6.64,71.24,-7.91,1
49,6.65,64.31,-33.89,1
50,6.67,46.47,-25.08,1
51,6.68,61.27,-22.04,1
52,6.69,49.27,-2.44,1
53,6.71,45.27,-10.06,1
54,6.72,50.08,-45.01,1
55,6.73,41.96,-22.91,1
56,6.75,54.58,-21.91,1
57,6.76,32.31,-5.65,1
58,6.77,32.91,-26.73,1
59,6.79,35.25,-28.29,1
60,6.8,14.97,-14.77,1
61,6.81,20.28,5.64,1
62,6.83,4.91,-6.98,1
63,6.84,19.56,-25.48,1
64,6.85,13.09,-11.42,1
65,6.87,15.4,-27.79,1
66,6.88,-4.1,-21.32,1
67,6.89,-9.2,-37.15,1
68,6.91,-14.74,-21.01,1
69,6.92,-17.57,-27.75,1
70,6.93,-18.47,-0.42,1
71,6.95,-13.01,-17.88,1
72,6.96,2.61,-19.11,1
73,6.97,-6.92,-23.71,1
74,6.99,-16.1,-11.38,1
75,7.0,-22.25,6.07,1
76,7.01,-18.41,0.71,1
77,7.03,-12.71,7.41,1
78,7.04,-6.7,5.21,1
79,7.05,-24.17,-8.35,1
80,7.07,-15.43,20.69,1
81,7.08,-34.04,24.58,1
82,7.09,-18.96,1.06,1
83,7.11,-28.85,-5.8,1
84,7.12,-22.03,23.72,1
85,7.13,-11.81,8.41,1
86,7.15,-11.98,11.99,1
87,7.16,-23.92,17.25,1
88,7.17,-26.93,1.76,1
89,7.19,-33.73,0.8,1
90,7.2,-16.49,31.73,1
91,7.21,-20.72,19.76,1
92,7.23,-12.51,1.74,1
93,7.24,-18.54,18.14,1
94,7.25,-5.46,19.53,1
95,7.27,-14.14,31.58,1
96,7.28,-17.84,21.66,1
97,7.29,-29.95,26.44,1
98,7.31,-1.72,-1.12,1
99,7.32,6.08,30.06,1
100,7.33,12.68,8.44,1
101,7.35,-6.89,4.82,1
102,7.36,4.03,-0.07,1
103,7.37,-1.94,9.67,1
104,7.39,-1.34,16.95,1
105,7.4,-22.5,5.5,1
106,7.41,-3.74,-13.58,1
107,7.43,9.19,8.6,1
108,7.44,16.03,-8.27,1
109,7.45,11.22,4.29,1
110,7.47,-2.35,11.0,1
111,7.48,-7.72,-27.35,1
112,7.49,8.5,3.91,1
113,7.51,7.18,0.08,1
114,7.52,23.29,2.92,1
115,7.53,5.53,-3.19,1
116,7.55,-7.88,4.33,1
117,7.56,9.29,-2.85,1
118,7.57,4.52,-32.26,1
119,7.59,-1.75,-34.9,1
120,7.6,8.86,-15.04,1
121,7.61,4.96,1.44,1
122,7.63,15.13,-0.85,1
123,7.64,6.91,-8.06,1
124,7.65,12.27,7.98,1
125,7.67,4.94,23.04,1
126,7.68,-1.32,35.23,1
127,7.69,17.29,1.48,1
128,7.71,5.75,-14.59,1
129,7.72,29.75,-30.76,1
130,7.73,1.9,-15.2,1
131,7.75,8.44,3.64,1
132,7.76,-3.18,-3.56,1
133,7.77,5.97,-13.17,1
134,7.79,8.73,-10.62,1
135,7.8,2.52,-9.12,1
136,7.81,8.55,11.85,1
137,7.83,4.66,18.82,1
138,7.84,4.86,-18.97,1
139,7.85,-2.03,-11.91,1
140,7.87,14.16,17.22,1
141,7.88,-3.45,-13.27,1
142,7.89,-3.53,-19.02,1
143,7.91,-2.71,13.18,1
144,7.92,-9.89,-16.94,1
145,7.93,-5.81,2.9,1
146,7.95,-1.7,-0.68,1
147,7.96,-5.99,9.44,1
148,7.97,-6.6,19.79,1
149,7.99,-1.2,-6.73,1
150,8.0,2.46,7.23,1
151,8.01,-12.28,-21.82,1
152,8.03,1.58,19.89,1
153,8.04,-16.88,27.4,1
154,8.05,-2.47,-1.21,1
155,8.07,-17.21,-11.33,1
156,8.08,1.11,-14.49,1
157,8.09,9.88,2.58,1
158,8.11,5.88,13.45,1
159,8.12,-0.17,5.33,1
160,8.13,9.57,11.21,1
161,8.15,-13.68,-34.75,0
162,8.16,7.3,-11.67,0
163,8.17,11.78,17.84,0
164,8.19,-1.84,-2.36,0
165,8.2,-62.38,-5.85,0
166,8.21,-55.88,-7.97,0
167,8.23,-106.09,16.38,0
168,8.24,-130.73,27.13,0
169,8.25,-125.65,-11.78,0
170,8.27,-111.36,34.97,0
171,8.28,-89.77,10.69,0
172,8.29,-57.97,1.89,0
173,8.31,-30.87,-34.05,0
174,8.32,8.42,-17.47,0
175,8.33,33.17,-26.35,0
176,8.35,92.12,-31.24,0
177,8.36,157.5,-34.52,0
178,8.37,187.23,-19.41,0
179,8.39,206.75,-2.36,0
180,8.4,206.75,-5.94,0
181,8.41,172.96,13.02,0
182,8.43,146.72,23.25,0
183,8.44,126.62,19.79,0
184,8.45,104.36,4.41,0
185,8.47,93.65,6.34,0
186,8.48,53.87,15.99,0
187,8.49,44.82,16.02,0
188,8.51,5.47,31.44,0
189,8.52,-2.44,19.59,0
190,8.53,-21.2,24.73,0
191,8.55,-37.69,-3.55,1
192,8.56,-41.8,-19.8,1
193,8.57,-38.4,-11.77,1
194,8.59,-53.34,-30.6,1
195,8.6,-61.08,-17.95,1
196,8.61,-75.81,-7.9,1
197,8.63,-64.09,-16.97,1
198,8.64,-71.91,-41.4,1
199,8.65,-70.41,-2.59,1
200,8.67,-73.91,22.74,1
201,8.68,-71.82,20.62,1
202,8.69,-57.28,2.71,1
203,8.71,-55.87,11.19,1
204,8.72,-46.64,25.82,1
205,8.73,-56.03,15.82,1
206,8.75,-48.89,11.98,1
207,8.76,-69.64,9.65,1
208,8.77,-57.01,12.02,1
209,8.79,-55.88,7.11,1
210,8.8,-38.81,-1.06,1
211,8.81,-35.84,11.09,1
212,8.83,-31.82,26.72,1
213,8.84,-30.36,10.33,1
214,8.85,-27.01,3.42,1
215,8.87,-29.27,-3.61,1
216,8.88,-16.04,-17.3,1
217,8.89,-14.66,-3.4,1
218,8.91,9.74,-7.49,1
219,8.92,-5.1,-3.69,1
220,8.93,0.22,1.84,1
221,8.95,6.33,-10.51,1
222,8.96,5.41,-15.94,1
223,8.97,-2.2,20.8,1
224,8.99,18.03,8.37,1
225,9.0,22.39,-5.55,1
226,9.01,5.22,-1.16,1
227,9.03,31.01,-14.25,1
228,9.04,23.5,1.97,1
229,9.05,28.52,-16.38,1
230,9.07,18.22,-9.18,1
231,9.08,25.94,-6.95,1
232,9.09,20.73,-32.86,1
233,9.11,15.44,-13.95,1
234,9.12,32.82,-1.41,1
235,9.13,23.47,-25.38,1
236,9.15,23.41,-17.45,1
237,9.16,20.85,1.08,1
238,9.17,25.12,-3.81,1
239,9.19,32.79,-2.32,1
240,9.2,34.53,-26.88,1
241,9.21,39.05,2.55,1
242,9.23,35.8,3.69,1
243,9.24,20.98,5.63,1
244,9.25,20.0,18.62,1
245,9.27,18.52,-0.67,1
246,9.28,8.71,15.61,1
247,9.29,19.57,15.11,1
248,9.31,31.36,10.96,1
249,9.32,19.14,-4.56,1
250,9.33,12.92,-4.57,1
251,9.35,11.37,-20.17,1
252,9.36,-1.04,3.6,1
253,9.37,-4.34,15.26,1
254,9.39,6.54,-12.55,1
255,9.4,2.13,4.99,1
256,9.41,5.24,-25.04,1
257,9.43,-8.52,4.97,1
258,9.44,-17.41,27.74,1
259,9.45,-5.86,19.17,1
260,9.47,-1.72,-18.34,1
261,9.48,-6.97,21.43,1
262,9.49,-1.28,7.8,1
263,9.51,0.3,0.38,1
264,9.52,-17.71,7.58,1
265,9.53,-1.16,-18.0,1
266,9.55,-4.19,11.5,1
267,9.56,-16.77,27.71,1
268,9.57,-0.36,18.54,1
269,9.59,9.4,27.51,1
270,9.6,-10.14,-9.21,1
271,9.61,-6.76,0.09,1
272,9.63,0.41,15.52,1
273,9.64,-14.94,-6.77,1
274,9.65,-5.86,-12.6,1
275,9.67,-14.29,-5.53,1
276,9.68,-16.97,-0.26,1
277,9.69,-3.06,6.15,1
278,9.71,-8.32,20.79,1
279,9.72,-9.37,-7.2,1
280,9.73,-4.67,-5.76,1
281,9.75,-6.12,-5.98,1
282,9.76,-13.48,-1.23,1
283,9.77,-12.35,-4.25,1
284,9.79,-7.95,-2.39,1
285,9.8,-1.48,9.09,1
286,9.81,8.01,-2.14,1
287,9.83,-7.06,-10.78,1
288,9.84,-6.3,-19.47,1
289,9.85,-14.99,-3.0,1
290,9.87,-11.91,-14.98,1
291,9.88,-3.18,-10.18,1
292,9.89,-12.0,44.14,1
293,9.91,-7.92,20.66,1
294,9.92,9.55,-11.89,1
295,9.93,5.04,-26.45,1
296,9.95,3.18,-18.81,1
297,9.96,1.48,-21.53,1
298,9.97,-7.76,29.33,1
299,9.99,-14.68,13.3,1
300,10.0,7.94,-42.68,1
301,10.01,-15.01,5.16,1
302,10.03,-3.24,11.91,1
303,10.04,5.61,7.88,1
304,10.05,9.14,16.12,1
305,10.07,18.76,-28.93,1
306,10.08,10.41,-12.16,1
307,10.09,17.27,17.44,1
308,10.11,-11.3,11.7,1
309,10.12,1.62,-2.74,1
310,10.13,18.18,-6.29,1
311,10.15,-7.68,0.18,0
312,10.16,-48.61,6.16,0
313,10.17,-84.28,-12.65,0
314,10.19,-133.48,-8.51,0
315,10.2,-126.08,21.32,0
316,10.21,-93.07,34.48,0
317,10.23,-66.92,57.91,0
318,10.24,-61.06,39.12,0
319,10.25,2.93,0.61,0
320,10.27,40.9,-69.02,0
321,10.28,88.06,-88.69,0
322,10.29,112.38,-85.03,0
323,10.31,133.05,-84.72,0
324,10.32,124.93,-65.26,0
325,10.33,146.23,-39.01,0
326,10.35,119.8,6.36,0
327,10.36,100.59,6.98,0
328,10.37,81.54,19.99,0
329,10.39,84.28,12.64,0
330,10.4,83.6,42.17,0
331,10.41,52.54,29.75,0
332,10.43,48.79,38.13,0
333,10.44,42.94,28.76,0
334,10.45,37.71,42.29,0
335,10.47,3.58,30.55,0
336,10.48,-1.84,31.05,0
337,10.49,-1.06,43.59,0
338,10.51,-34.31,26.48,0
339,10.52,-25.66,50.06,0
340,10.53,-40.77,-9.24,0
341,10.55,-36.75,37.74,1
342,10.56,-34.13,18.02,1
343,10.57,-28.49,20.96,1
344,10.59,-42.66,-1.76,1
345,10.6,-31.69,-7.35,1
346,10.61,-44.82,15.33,1
347,10.63,-46.5,6.49,1
348,10.64,-48.84,7.93,1
349,10.65,-74.83,-6.19,1
350,10.67,-85.64,-13.15,1
351,10.68,-88.12,-10.36,1
352,10.69,-64.19,-13.71,1
353,10.71,-55.64,-14.12,1
354,10.72,-52.62,26.35,1
355,10.73,-46.29,9.33,1
356,10.75,-35.1,-24.31,1
357,10.76,-10.27,-3.69,1
358,10.77,-9.11,-29.68,1
359,10.79,-21.76,-40.09,1
360,10.8,-2.58,-51.75,1
361,10.81,-3.76,-40.79,1
362,10.83,-7.3,-52.48,1
363,10.84,-1.7,4.3,1
364,10.85,-13.87,-17.92,1
365,10.87,-1.52,-8.89,1
366,10.88,0.1,-17.52,1
367,10.89,-7.06,-5.26,1
368,10.91,0.82,6.49,1
369,10.92,0.62,-3.69,1
370,10.93,3.4,-4.14,1
371,10.95,9.5,-7.39,1
372,10.96,8.7,-3.85,1
373,10.97,5.9,-29.45,1
374,10.99,-0.5,-17.38,1
375,11.0,3.55,23.0,1
376,11.01,3.02,19.36,1
377,11.03,7.77,29.06,1
378,11.04,19.11,11.19,1
379,11.05,21.17,2.83,1
380,11.07,27.91,-1.37,1
381,11.08,25.09,9.84,1
382,11.09,25.72,-23.13,1
383,11.11,15.79,-2.28,1
384,11.12,24.85,-5.45,1
385,11.13,30.78,4.56,1
386,11.15,22.71,11.31,1
387,11.16,28.15,9.2,1
388,11.17,28.05,-25.5,1
389,11.19,25.7,-0.64,1
390,11.2,9.65,17.0,1
391,11.21,14.71,11.5,1
392,11.23,27.87,14.7,1
393,11.24,4.79,44.6,1
394,11.25,6.81,-4.46,1
395,11.27,15.7,37.38,1
396,11.28,13.31,21.95,1
397,11.29,8.83,24.74,1
398,11.31,-4.21,27.34,1
399,11.32,4.46,1.46,1
400,11.33,5.08,8.29,1
401,11.35,-0.55,8.41,1
402,11.36,-0.67,7.99,1
403,11.37,8.45,18.21,1
404,11.39,-1.76,-1.76,1
405,11.4,-5.83,0.41,1
406,11.41,-1.3,-1.09,1
407,11.43,-5.18,0.85,1
408,11.44,-7.23,-15.48,1
409,11.45,5.2,-13.12,1
410,11.47,-4.65,-5.47,1
411,11.48,11.32,-2.15,1
412,11.49,3.96,-37.5,1
413,11.51,-12.68,-29.48,1
414,11.52,-6.0,14.53,1
415,11.53,1.35,17.9,1
416,11.55,3.25,24.62,1
417,11.56,-25.46,13.27,1
418,11.57,6.16,6.86,1
419,11.59,-7.9,-0.5,1
420,11.6,-11.1,-0.8,1
421,11.61,-3.1,-17.05,1
422,11.63,-13.05,-14.89,1
423,11.64,-7.76,-36.9,1
424,11.65,-0.6,-17.07,1
425,11.67,-4.03,-19.16,1
426,11.68,-9.33,2.15,1
427,11.69,-14.66,6.88,1
428,11.71,-2.71,-30.16,1
429,11.72,-5.09,-20.94,1
430,11.73,3.1,-20.11,1
431,11.75,-8.2,9.02,1
432,11.76,-5.91,-5.3,1
433,11.77,0.21,3.87,1
434,11.79,-6.46,-4.66,1
435,11.8,-2.59,-7.08,1
436,11.81,-11.34,-22.37,1
437,11.83,-12.36,3.71,1
438,11.84,2.8,-25.71,1
439,11.85,5.52,-18.68,1
440,11.87,-5.07,6.29,1
441,11.88,3.76,13.81,1
442,11.89,6.33,1.23,1
443,11.91,3.52,-9.05,1
444,11.92,3.12,-9.52,1
445,11.93,-7.69,-13.64,1
446,11.95,4.94,25.2,1
447,11.96,-0.66,2.37,1
448,11.97,8.67,32.73,1
449,11.99,17.1,1.1,1
450,12.0,-1.14,13.31,1
451,12.01,-12.8,13.39,1
452,12.03,-14.73,33.94,1
453,12.04,-0.78,6.9,1
454,12.05,3.2,1.68,1
455,12.07,7.89,19.27,1
456,12.08,2.84,0.3,1
457,12.09,0.04,-9.88,1
458,12.11,-8.89,-11.64,1
459,12.12,3.41,3.77,1
460,12.13,6.2,10.96,1
461,12.15,11.25,16.8,2
462,12.16,47.27,47.32,2
463,12.17,68.64,-13.87,2
464,12.19,108.66,2.83,2
465,12.2,129.92,-19.43,2
466,12.21,145.84,-14.5,2
467,12.23,134.2,-7.14,2
468,12.24,101.25,-14.42,2
469,12.25,83.45,-12.87,2
470,12.27,30.99,-23.35,2
471,12.28,-9.53,-25.08,2
472,12.29,-69.48,-23.16,2
473,12.31,-109.61,-7.97,2
474,12.32,-174.68,1.86,2
475,12.33,-217.35,9.7,2
476,12.35,-210.34,29.94,2
477,12.36,-209.65,23.24,2
478,12.37,-197.94,40.96,2
479,12.39,-185.12,12.39,2
480,12.4,-151.39,30.78,2
481,12.41,-122.87,43.46,2
482,12.43,-94.11,19.52,2
483,12.44,-76.86,30.52,2
484,12.45,-40.76,-1.62,2
485,12.47,-25.56,31.8,2
486,12.48,-1.5,17.79,2
487,12.49,19.89,6.83,2
488,12.51,46.18,12.07,2
489,12.52,8.95,-0.12,2
490,12.53,52.31,20.19,2
491,12.55,48.89,-17.79,1
492,12.56,66.94,-21.97,1
493,12.57,91.75,-39.15,1
494,12.59,92.11,-17.62,1
495,12.6,96.15,-14.63,1
496,12.61,113.41,-18.33,1
497,12.63,100.0,-30.78,1
498,12.64,92.28,-39.47,1
499,12.65,86.51,-24.14,1
500,12.67,85.81,-36.85,1
501,12.68,85.6,-56.14,1
502,12.69,64.92,-47.28,1
503,12.71,76.5,-34.94,1
504,12.72,64.33,-33.54,1
505,12.73,56.25,-12.94,1
506,12.75,44.22,6.65,1
507,12.76,43.03,2.59,1
508,12.77,26.96,-1.42,1
509,12.79,56.71,23.75,1
510,12.8,37.17,29.5,1
511,12.81,22.14,8.95,1
512,12.83,14.89,17.14,1
513,12.84,2.64,23.69,1
514,12.85,4.55,-2.35,1
515,12.87,1.19,-1.25,1
516,12.88,-0.54,14.22,1
517,12.89,-7.68,-9.98,1
518,12.91,-20.15,6.15,1
519,12.92,-27.35,17.27,1
520,12.93,-26.35,33.88,1
521,12.95,-37.16,21.6,1
522,12.96,-18.13,40.48,1
523,12.97,-24.47,31.95,1
524,12.99,-0.02,-8.13,1
525,13.0,-20.84,-6.3,1
526,13.01,-29.23,15.41,1
527,13.03,-22.08,-3.28,1
528,13.04,-33.47,4.55,1
529,13.05,-18.44,1.51,1
530,13.07,-36.17,-9.66,1
531,13.08,-22.31,8.49,1
532,13.09,-33.83,15.34,1
533,13.11,-48.36,-14.3,1
534,13.12,-15.16,-1.7,1
535,13.13,-20.36,-13.34,1
536,13.15,-12.76,-15.81,1
537,13.16,-27.72,1.48,1
538,13.17,-52.24,-9.47,1
539,13.19,-30.76,-9.6,1
540,13.2,-31.41,0.93,1
541,13.21,-24.95,-30.83,1
542,13.23,-15.64,-4.28,1
543,13.24,-8.14,2.95,1
544,13.25,-36.52,1.11,1
545,13.27,-13.26,4.36,1
546,13.28,-24.76,27.51,1
547,13.29,-5.63,-11.8,1
548,13.31,-6.99,18.46,1
549,13.32,-5.26,14.87,1
550,13.33,-9.6,-7.04,1
551,13.35,18.93,-9.26,1
552,13.36,17.83,-20.41,1
553,13.37,0.33,-8.43,1
554,13.39,-1.49,3.02,1
555,13.4,-1.2,-3.48,1
556,13.41,-3.99,-0.53,1
557,13.43,1.24,12.05,1
558,13.44,0.11,15.22,1
559,13.45,4.02,-9.36,1
560,13.47,-3.69,20.22,1
561,13.48,16.9,-16.59,1
562,13.49,9.6,-8.28,1
563,13.51,8.31,-23.92,1
564,13.52,3.86,-6.48,1
565,13.53,-0.57,-6.47,1
566,13.55,3.39,-9.23,1
567,13.56,9.15,-27.37,1
568,13.57,6.94,26.69,1
569,13.59,7.62,6.59,1
570,13.6,9.87,6.59,1
571,13.61,8.35,16.8,1
572,13.63,-2.94,5.96,1
573,13.64,19.84,3.92,1
574,13.65,4.59,12.22,1
575,13.67,6.58,-1.2,1
576,13.68,28.54,21.87,1
577,13.69,19.94,21.24,1
578,13.71,8.46,2.31,1
579,13.72,-3.62,4.96,1
580,13.73,5.92,9.25,1
581,13.75,17.02,16.12,1
582,13.76,15.42,7.93,1
583,13.77,14.21,-29.95,1
584,13.79,-6.73,-15.85,1
585,13.8,-8.13,-18.46,1
586,13.81,-0.67,-5.25,1
587,13.83,0.57,2.39,1
588,13.84,15.39,-11.53,1
589,13.85,7.34,-20.59,1
590,13.87,1.17,-10.51,1
591,13.88,8.51,3.6,1
592,13.89,6.5,-15.64,1
593,13.91,7.08,6.96,1
594,13.92,7.05,-5.52,1
595,13.93,5.0,-0.23,1
596,13.95,-11.92,16.1,1
597,13.96,-10.19,-5.69,1
598,13.97,-23.89,13.94,1
599,13.99,-1.4,0.2,1
600,14.0,10.95,-11.91,1
601,14.01,18.31,-12.21,1
602,14.03,-15.13,4.21,1
603,14.04,4.42,17.56,1
604,14.05,-7.3,7.39,1
605,14.07,0.03,5.98,1
606,14.08,2.41,-8.83,1
607,14.09,-18.14,16.16,1
608,14.11,8.37,-5.58,1
609,14.12,-7.21,8.74,1
610,14.13,53.22,67.29,1
611,14.15,221.25,265.91,1
612,14.16,215.96,331.18,1
613,14.17,-248.07,208.83,1
614,14.19,-142.24,9.12,1
615,14.2,-211.54,-238.23,1
616,14.21,35.4,35.56,1
617,14.23,-10.1,-314.17,1
618,14.24,220.78,17.84,1
619,14.25,69.79,-435.38,1
620,14.27,-5.15,226.55,1
621,14.28,-1.37,-75.01,1
622,14.29,256.09,317.03,1
623,14.31,84.02,97.46,1
624,14.32,-56.84,127.75,1
625,14.33,-65.63,-89.49,1
626,14.35,-112.27,-220.42,1
627,14.36,-180.25,24.22,1
628,14.37,-155.68,-299.62,1
629,14.39,-30.19,-118.59,1
630,14.4,-141.54,-35.86,1
631,14.41,-120.53,-270.42,1
632,14.43,-155.96,-476.41,1
633,14.44,-170.57,-155.78,1
634,14.45,-31.86,-135.55,1
635,14.47,131.6,356.2,1
636,14.48,-269.29,176.8,1
637,14.49,15.25,95.74,1
638,14.51,117.95,-146.56,1
639,14.52,112.39,94.93,1
640,14.53,-42.07,-55.71,1
641,14.55,65.78,-30.64,1
642,14.56,217.09,8.38,1
643,14.57,-76.94,-128.32,1
644,14.59,44.31,-188.91,1
645,14.6,-26.7,187.1,1
646,14.61,195.59,-162.97,1
647,14.63,36.88,-33.59,1
648,14.64,132.85,344.77,1
649,14.65,232.91,-12.9,1
650,14.67,-205.13,-225.35,1
651,14.68,-14.5,98.87,1
652,14.69,114.29,-71.73,1
653,14.71,-15.16,233.56,1
654,14.72,57.57,284.7,1
655,14.73,73.88,-29.59,1
656,14.75,-218.73,116.83,1
657,14.76,-66.92,-87.31,1
658,14.77,5.18,13.29,1
659,14.79,-25.84,29.17,1
660,14.8,-10.05,-55.62,1
661,14.81,-56.03,-250.99,1
662,14.83,-66.44,193.73,1
663,14.84,52.34,131.38,1
664,14.85,31.69,130.25,1
665,14.87,-15.36,76.73,1
666,14.88,-1.05,2.77,1
667,14.89,-48.7,-30.8,1
668,14.91,-81.7,-35.67,1
669,14.92,-131.12,-32.03,1
670,14.93,-68.97,-45.42,1
671,14.95,-8.76,-23.68,1
672,14.96,69.22,46.64,1
673,14.97,92.74,71.03,1
674,14.99,137.81,113.2,1
675,15.0,134.1,103.22,1
676,15.01,147.61,108.46,1
677,15.03,140.13,152.79,1
678,15.04,102.39,163.92,1
679,15.05,101.77,153.54,1
680,15.07,64.56,129.49,1
681,15.08,87.41,161.12,1
682,15.09,49.62,99.97,1
683,15.11,44.6,103.57,1
684,15.12,40.34,73.89,1
685,15.13,21.32,68.13,1
686,15.15,22.7,77.09,1
687,15.16,-2.8,48.95,1
688,15.17,-19.2,1.99,1
689,15.19,-33.94,9.65,1
690,15.2,-8.58,-32.88,1
691,15.21,-7.15,-48.39,1
692,15.23,-32.99,-34.16,1
693,15.24,-45.9,-75.71,1
694,15.25,-58.0,-84.84,1
695,15.27,-68.24,-87.29,1
696,15.28,-69.71,-117.55,1
697,15.29,-59.79,-92.82,1
698,15.31,-61.9,-133.38,1
699,15.32,-61.76,-128.35,1
700,15.33,-71.12,-139.03,1
701,15.35,-70.66,-136.86,1
702,15.36,-82.13,-140.07,1
703,15.37,-64.07,-111.19,1
704,15.39,-66.94,-103.54,1
705,15.4,-51.84,-126.25,1
706,15.41,-55.75,-131.58,1
707,15.43,-40.02,-93.45,1
708,15.44,-34.52,-85.21,1
709,15.45,-26.5,-81.59,1
710,15.47,-45.88,-91.18,1
711,15.48,-35.22,-61.06,1
712,15.49,-47.4,-63.7,1
713,15.51,-30.32,-34.7,1
714,15.52,-18.92,-32.67,1
715,15.53,-14.38,-44.32,1
716,15.55,-10.03,-9.24,1
717,15.56,-2.72,-26.34,1
718,15.57,15.11,-9.08,1
719,15.59,14.16,-18.3,1
720,15.6,24.09,-11.6,1
721,15.61,19.44,13.1,1
722,15.63,17.64,13.44,1
723,15.64,18.91,45.33,1
724,15.65,13.21,41.54,1
725,15.67,2.33,32.21,1
726,15.68,22.07,44.77,1
727,15.69,28.03,26.65,1
728,15.71,19.68,55.46,1
729,15.72,39.54,28.07,1
730,15.73,19.95,17.5,1
731,15.75,31.74,32.91,1
732,15.76,28.69,44.49,1
733,15.77,28.53,51.88,1
734,15.79,26.67,52.46,1
735,15.8,40.08,44.36,1
736,15.81,25.85,75.96,1
737,15.83,27.62,60.12,1
738,15.84,32.46,47.45,1
739,15.85,14.79,58.14,1
740,15.87,19.7,49.15,1
741,15.88,17.24,29.88,1
742,15.89,21.03,55.22,1
743,15.91,14.04,45.26,1
744,15.92,14.9,48.16,1
745,15.93,2.62,27.48,1
746,15.95,-0.33,51.07,1
747,15.96,16.0,27.75,1
748,15.97,6.48,39.04,1
749,15.99,10.58,21.63,1
750,16.0,-5.51,31.9,1
751,16.01,5.24,34.96,1
752,16.03,3.47,-6.35,1
753,16.04,4.5,4.81,1
754,16.05,1.5,-7.01,1
755,16.07,19.97,8.0,1
756,16.08,1.8,-2.22,1
757,16.09,3.13,-6.9,1
758,16.11,3.45,-7.94,1
759,16.12,-1.96,-3.06,1
760,16.13,-4.99,-29.6,1
761,16.15,-5.56,-26.97,1
762,16.16,2.26,18.87,2
763,16.17,8.63,-11.6,2
764,16.19,6.23,-24.11,2
765,16.2,49.48,-45.71,2
766,16.21,98.04,-37.71,2
767,16.23,128.15,-18.22,2
768,16.24,128.39,-80.76,2
769,16.25,101.72,-9.95,2
770,16.27,41.69,-54.67,2
771,16.28,17.46,-43.36,2
772,16.29,-43.98,-48.98,2
773,16.31,-113.89,-6.48,2
774,16.32,-122.71,-15.05,2
775,16.33,-95.21,-22.81,2
776,16.35,-134.78,-16.13,2
777,16.36,-143.21,21.66,2
778,16.37,-137.94,33.05,2
779,16.39,-129.99,-14.08,2
780,16.4,-121.71,31.46,2
781,16.41,-89.87,43.45,2
782,16.42,-81.78,44.24,2
783,16.44,-62.64,23.69,2
784,16.45,-50.72,42.38,2
785,16.47,-38.32,20.61,2
786,16.48,-15.75,19.12,2
787,16.49,-25.04,-4.44,2
788,16.51,-19.14,3.2,2
789,16.52,7.19,16.11,2
790,16.53,11.26,-0.73,2
791,16.55,7.9,-7.24,1
792,16.56,27.0,17.92,1
793,16.57,55.64,17.29,1
794,16.59,51.42,-10.37,1
795,16.6,46.38,14.65,1
796,16.61,42.05,-4.19,1
797,16.63,52.16,-7.02,1
798,16.64,49.8,-15.33,1
799,16.65,50.47,4.0,1
800,16.67,57.14,-10.9,1
801,16.68,64.58,-37.1,1
802,16.69,53.17,-37.3,1
803,16.71,44.19,-27.26,1
804,16.72,49.95,-36.69,1
805,16.73,39.99,-31.5,1
806,16.75,50.31,-40.31,1
807,16.76,51.94,-6.77,1
808,16.77,33.54,-11.1,1
809,16.79,38.57,-14.95,1
810,16.8,24.12,-13.17,1
811,16.81,24.27,-14.69,1
812,16.83,21.55,-28.08,1
813,16.84,14.16,-29.16,1
814,16.85,-0.78,-42.69,1
815,16.87,11.56,-5.65,1
816,16.88,24.9,6.73,1
817,16.89,11.45,-18.14,1
818,16.91,10.48,-23.83,1
819,16.92,3.34,8.49,1
820,16.93,10.08,5.13,1
821,16.95,2.19,-1.53,1
822,16.96,-9.02,1.53,1
823,16.97,-10.08,3.51,1
824,16.99,-6.3,16.39,1
825,17.0,-11.68,-20.39,1
826,17.01,7.7,9.68,1
827,17.03,-8.2,46.78,1
828,17.04,-21.0,30.23,1
829,17.05,-28.35,25.12,1
830,17.06,-8.68,42.85,1
831,17.08,-22.91,23.56,1
832,17.09,-11.3,27.24,1
833,17.11,-25.28,20.95,1
834,17.12,-36.47,36.56,1
835,17.13,-25.17,20.15,1
836,17.15,-4.24,14.8,1
837,17.16,-13.14,9.13,1
838,17.17,-21.22,27.64,1
839,17.19,-0.59,15.32,1
840,17.2,-22.19,9.02,1
841,17.21,-15.01,17.13,1
842,17.23,-24.93,7.37,1
843,17.24,-28.43,-5.61,1
844,17.25,-10.11,-26.72,1
845,17.27,-16.12,5.94,1
846,17.28,-13.67,30.41,1
847,17.29,-18.14,10.42,1
848,17.31,-19.61,-1.87,1
849,17.32,-23.38,13.55,1
850,17.33,-26.45,0.39,1
851,17.35,-13.55,13.9,1
852,17.36,-9.78,7.06,1
853,17.37,-0.34,7.67,1
854,17.39,3.8,-15.71,1
855,17.4,-2.01,-23.94,1
856,17.41,-9.09,-3.91,1
857,17.43,-2.66,9.3,1
858,17.44,-7.43,-7.42,1
859,17.45,12.63,-21.34,1
860,17.47,13.37,-5.23,1
861,17.48,6.45,-0.59,1
862,17.49,6.24,-26.82,1
863,17.51,8.36,-34.75,1
864,17.52,-1.81,16.31,1
865,17.53,-8.46,-12.9,1
866,17.55,-1.27,-0.19,1
867,17.56,17.42,1.97,1
868,17.57,17.74,-3.83,1
869,17.59,2.09,-9.17,1
870,17.6,17.27,-11.79,1
871,17.61,19.46,-6.87,1
872,17.63,-4.18,-17.06,1
873,17.64,9.65,-3.85,1
874,17.65,2.02,-33.7,1
875,17.67,4.52,-13.59,1
876,17.68,6.27,2.92,1
877,17.69,-1.9,-0.7,1
878,17.7,12.47,20.22,1
879,17.72,5.33,2.25,1
880,17.73,-3.42,-3.26,1
881,17.75,10.98,-9.48,1
882,17.76,13.55,-46.15,1
883,17.77,-1.5,7.33,1
884,17.79,11.45,10.64,1
885,17.8,13.58,-10.39,1
886,17.81,3.52,-7.6,1
887,17.83,17.17,-6.11,1
888,17.84,-13.65,-4.48,1
889,17.85,-5.89,0.51,1
890,17.87,16.72,-1.61,1
891,17.88,-2.78,13.47,1
892,17.89,12.46,15.4,1
893,17.91,-14.66,-1.9,1
894,17.92,-3.28,-4.65,1
895,17.93,10.21,3.82,1
896,17.95,0.32,-12.87,1
897,17.96,7.83,-18.15,1
898,17.97,-6.93,-11.97,1
899,17.99,-5.08,4.97,1
900,18.0,-1.25,14.72,1
901,18.01,-10.94,5.8,1
902,18.03,-9.86,13.66,1
903,18.04,-41.52,26.75,1
904,18.05,-4.49,14.9,1
905,18.07,14.42,-5.31,1
906,18.08,14.64,9.48,1
907,18.09,3.76,28.26,1
908,18.11,17.4,12.95,1
909,18.12,1.98,-9.27,1
910,18.13,16.47,9.5,1
911,18.15,-7.51,29.18,1
912,18.16,5.51,25.25,0
913,18.17,-33.11,-21.33,0
914,18.19,-60.45,-9.56,0
915,18.2,-122.15,9.67,0
916,18.21,-128.1,3.46,0
917,18.23,-124.38,24.07,0
918,18.24,-118.43,-0.56,0
919,18.25,-91.26,3.07,0
920,18.27,-73.33,-34.69,0
921,18.28,-29.0,-22.69,0
922,18.29,13.18,-15.28,0
923,18.31,43.62,1.65,0
924,18.32,128.59,-16.38,0
925,18.33,177.93,-16.6,0
926,18.34,182.83,-25.99,0
927,18.36,176.03,-5.41,0
928,18.37,173.23,-18.81,0
929,18.39,175.65,15.29,0
930,18.4,137.13,20.94,0
931,18.41,117.95,35.87,0
932,18.43,97.02,13.66,0
933,18.44,66.84,34.24,0
934,18.45,64.11,28.74,0
935,18.47,35.46,13.84,0
936,18.48,4.08,26.92,0
937,18.49,9.45,28.12,0
938,18.51,-1.05,20.72,0
939,18.52,-31.79,-10.04,0
940,18.53,-41.71,-17.21,0
941,18.55,-47.53,10.0,1
942,18.56,-59.05,-6.6,1
943,18.57,-57.0,-1.22,1
944,18.59,-66.27,-12.23,1
945,18.6,-71.67,-6.65,1
946,18.61,-58.06,-9.85,1
947,18.63,-69.5,-26.46,1
948,18.64,-77.42,-19.08,1
949,18.65,-69.23,-10.9,1
950,18.67,-80.08,-53.58,1
951,18.68,-70.72,-33.68,1
952,18.69,-51.12,-44.75,1
953,18.71,-54.09,-36.02,1
954,18.72,-50.38,-19.28,1
955,18.73,-51.26,-11.32,1
956,18.75,-62.26,1.32,1
957,18.76,-57.71,17.19,1
958,18.77,-30.43,25.93,1
959,18.79,-20.9,14.8,1
960,18.8,-24.54,16.49,1
961,18.81,-37.12,13.89,1
962,18.83,-22.57,-10.52,1
963,18.84,-25.29,22.52,1
964,18.85,-26.73,5.18,1
965,18.87,-2.11,18.11,1
966,18.88,-4.04,-3.25,1
967,18.89,4.56,6.03,1
968,18.91,9.1,12.94,1
969,18.92,-1.11,-8.69,1
970,18.93,-1.3,-18.91,1
971,18.95,15.61,23.74,1
972,18.96,16.33,3.27,1
973,18.97,20.85,-6.78,1
974,18.98,23.65,-0.18,1
975,19.0,23.04,19.49,1
976,19.01,22.61,7.35,1
977,19.02,17.38,0.22,1
978,19.04,16.55,-9.76,1
979,19.05,30.05,8.75,1
980,19.07,15.84,-8.89,1
981,19.08,17.06,-16.27,1
982,19.09,12.44,11.45,1
983,19.11,27.18,3.78,1
984,19.12,40.57,-1.34,1
985,19.13,27.7,-7.3,1
986,19.15,32.79,-3.58,1
987,19.16,34.35,-0.1,1
988,19.17,26.44,9.48,1
989,19.19,18.9,-21.07,1
990,19.2,11.24,8.92,1
991,19.21,17.12,9.75,1
992,19.23,14.66,-8.27,1
993,19.24,23.62,-5.51,1
994,19.25,19.5,7.44,1
995,19.27,17.28,-7.17,1
996,19.28,25.39,-5.31,1
997,19.29,15.1,-10.38,1
998,19.31,11.34,-1.95,1
999,19.32,13.48,2.18,1
1000,19.33,-4.29,-3.65,1
1001,19.35,4.13,3.95,1
1002,19.36,9.13,-8.72,1
1003,19.37,15.1,14.57,1
1004,19.39,2.73,0.72,1
1005,19.4,-0.74,10.08,1
1006,19.41,-2.55,4.95,1
1007,19.43,-5.34,13.12,1
1008,19.44,4.05,-4.26,1
1009,19.45,-15.85,-14.3,1
1010,19.47,12.22,30.04,1
1011,19.48,-9.15,-7.07,1
1012,19.49,3.82,27.54,1
1013,19.51,-4.67,10.08,1
1014,19.52,-6.55,-23.38,1
1015,19.53,-3.26,19.39,1
1016,19.55,-11.78,-16.49,1
1017,19.56,13.29,-11.6,1
1018,19.57,-13.31,-5.59,1
1019,19.59,-8.35,6.77,1
1020,19.6,-12.88,31.71,1
1021,19.61,-21.53,2.16,1
1022,19.62,-16.71,5.74,1
1023,19.64,-7.66,-30.36,1
1024,19.65,-0.21,2.6,1
1025,19.67,-11.83,16.73,1
1026,19.68,-17.16,-16.39,1
1027,19.69,-20.11,-17.8,1
1028,19.71,-19.17,-25.96,1
1029,19.72,-5.06,-12.48,1
1030,19.73,-9.06,-15.99,1
1031,19.75,-4.05,12.82,1
1032,19.76,5.74,22.46,1
1033,19.77,-11.95,2.04,1
1034,19.79,-9.65,10.92,1
1035,19.8,-19.5,10.72,1
1036,19.81,-13.42,0.33,1
1037,19.83,-4.98,11.87,1
1038,19.84,-1.6,-5.05,1
1039,19.85,-1.55,12.91,1
1040,19.87,2.58,-7.88,1
1041,19.88,4.32,-1.75,1
1042,19.89,1.44,-7.38,1
1043,19.91,-4.24,-10.0,1
1044,19.92,-2.82,3.55,1
1045,19.93,-8.24,3.06,1
1046,19.95,-12.4,-14.28,1
1047,19.96,-10.77,-18.35,1
1048,19.97,-2.01,-17.54,1
1049,19.99,4.97,18.41,1
1050,20.0,9.76,-1.92,1
1051,20.01,8.78,13.2,1
1052,20.03,6.91,2.1,1
1053,20.04,1.07,7.34,1
1054,20.05,6.46,-6.47,1
1055,20.07,16.13,-9.8,1
1056,20.08,6.84,2.62,1
1057,20.09,0.31,-3.91,1
1058,20.11,2.03,-6.28,1
1059,20.12,15.7,-9.7,1
1060,20.13,7.6,6.07,1
1061,20.15,6.17,-1.51,1
1062,20.16,3.14,4.61,0
1063,20.17,-3.21,21.79,0
1064,20.19,4.24,-13.02,0
1065,20.2,-76.07,25.84,0
1066,20.21,-117.69,25.4,0
1067,20.23,-124.08,8.37,0
1068,20.24,-109.69,-8.35,0
1069,20.25,-83.08,12.03,0
1070,20.26,-70.77,-23.58,0
1071,20.28,-9.33,-45.1,0
1072,20.29,17.8,-58.03,0
1073,20.3,55.13,-39.04,0
1074,20.32,95.51,-23.46,0
1075,20.33,112.75,-1.1,0
1076,20.35,121.28,18.18,0
1077,20.36,129.3,24.05,0
1078,20.37,143.33,15.9,0
1079,20.39,115.73,17.15,0
1080,20.4,101.06,36.49,0
1081,20.41,91.87,13.4,0
1082,20.43,69.86,31.85,0
1083,20.44,60.09,33.63,0
1084,20.45,47.71,12.71,0
1085,20.47,34.96,22.26,0
1086,20.48,32.3,-2.5,0
1087,20.49,17.51,8.53,0
1088,20.51,15.65,15.46,0
1089,20.52,5.27,10.13,0
1090,20.53,-10.86,1.24,0
1091,20.55,-14.2,-1.33,1
1092,20.56,-22.57,-12.81,1
1093,20.57,-26.3,6.97,1
1094,20.59,-53.82,-17.92,1
1095,20.6,-41.42,-28.01,1
1096,20.61,-55.65,-7.96,1
1097,20.63,-46.0,24.38,1
1098,20.64,-58.78,-32.39,1
1099,20.65,-51.81,-3.88,1
1100,20.67,-57.0,10.86,1
1101,20.68,-63.36,-18.79,1
1102,20.69,-63.42,-18.97,1
1103,20.71,-56.76,-11.18,1
1104,20.72,-62.63,-3.99,1
1105,20.73,-52.39,-15.11,1
1106,20.75,-46.61,-14.23,1
1107,20.76,-60.38,9.54,1
1108,20.77,-45.87,15.36,1
1109,20.79,-35.86,-0.43,1
1110,20.8,-37.02,-2.6,1
1111,20.81,-25.01,0.55,1
1112,20.83,-12.0,-8.59,1
1113,20.84,-18.71,-11.88,1
1114,20.85,-11.36,-29.35,1
1115,20.87,-8.71,-2.98,1
1116,20.88,13.36,-28.72,1
1117,20.89,5.63,-16.96,1
1118,20.9,-5.39,-14.59,1
1119,20.92,3.88,-9.09,1
1120,20.93,-16.05,-44.18,1
1121,20.94,-18.58,8.93,1
1122,20.96,14.04,3.74,1
1123,20.97,9.27,34.04,1
1124,20.99,16.6,16.58,1
1125,21.0,11.41,29.14,1
1126,21.01,18.14,28.43,1
1127,21.03,15.84,24.72,1
1128,21.04,22.79,8.15,1
1129,21.05,27.59,-8.25,1
1130,21.07,26.7,-1.41,1
1131,21.08,21.23,-0.73,1
1132,21.09,17.7,19.51,1
1133,21.11,21.65,22.9,1
1134,21.12,14.52,-8.71,1
1135,21.13,24.21,-3.35,1
1136,21.15,15.82,-14.23,1
1137,21.16,15.29,32.31,1
1138,21.17,28.13,4.34,1
1139,21.19,25.0,-7.2,1
1140,21.2,22.47,-7.98,1
1141,21.21,20.66,29.66,1
1142,21.23,-4.87,8.25,1
1143,21.24,4.25,-11.45,1
1144,21.25,12.67,-16.5,1
1145,21.27,14.93,-17.32,1
1146,21.28,15.88,-18.78,1
1147,21.29,11.11,-35.74,1
1148,21.31,-1.57,6.83,1
1149,21.32,14.67,6.68,1
1150,21.33,18.85,0.69,1
1151,21.35,14.03,2.06,1
1152,21.36,-0.85,22.41,1
1153,21.37,7.29,29.78,1
1154,21.39,8.49,17.42,1
1155,21.4,0.68,1.3,1
1156,21.41,-6.4,5.13,1
1157,21.43,8.58,19.23,1
1158,21.44,3.85,-0.34,1
1159,21.45,-1.09,16.18,1
1160,21.47,8.85,5.87,1
1161,21.48,0.65,-1.82,1
1162,21.49,0.26,-5.42,1
1163,21.51,6.36,5.31,1
1164,21.52,2.44,23.83,1
1165,21.53,-7.89,-3.77,1
1166,21.54,-5.02,7.85,1
1167,21.56,0.09,-9.51,1
1168,21.57,5.68,-0.29,1
1169,21.58,-7.38,-5.33,1
1170,21.6,-3.27,-1.82,1
1171,21.61,-12.65,2.0,1
1172,21.62,-16.16,-3.83,1
1173,21.64,-18.25,-37.33,1
1174,21.65,-9.34,-16.09,1
1175,21.67,-7.58,-18.83,1
1176,21.68,-11.5,-11.24,1
1177,21.69,-19.6,-6.52,1
1178,21.71,-8.25,-15.72,1
1179,21.72,-8.6,-12.12,1
1180,21.73,-11.99,-3.8,1
1181,21.75,-10.37,-26.36,1
1182,21.76,-16.62,2.54,1
1183,21.77,-4.9,6.63,1
1184,21.79,-20.07,-3.1,1
1185,21.8,-5.97,-1.56,1
1186,21.81,-2.23,3.11,1
1187,21.83,10.03,10.79,1
1188,21.84,5.97,6.57,1
1189,21.85,-6.1,-8.04,1
1190,21.87,-15.5,-1.71,1
1191,21.88,-3.2,-11.82,1
1192,21.89,10.51,-4.11,1
1193,21.91,7.94,10.37,1
1194,21.92,-7.06,16.97,1
1195,21.93,8.95,-9.68,1
1196,21.95,1.8,11.15,1
1197,21.96,-7.04,-18.17,1
1198,21.97,5.58,1.26,1
1199,21.99,12.59,-12.58,1
1200,22.0,5.97,-10.41,1
1201,22.01,-3.82,-0.82,1
1202,22.03,1.45,4.02,1
1203,22.04,-23.71,18.34,1
1204,22.05,-23.83,26.13,1
1205,22.07,12.05,6.55,1
1206,22.08,5.45,-16.96,1
1207,22.09,13.32,-9.11,1
1208,22.11,17.7,19.58,1
1209,22.12,5.93,3.95,1
1210,22.13,2.05,9.87,1
1211,22.15,4.07,-18.76,1
1212,22.16,-3.8,-7.82,2
1213,22.17,-11.9,-8.78,2
1214,22.18,7.72,30.95,2
1215,22.2,71.91,2.98,2
1216,22.21,112.07,3.01,2
1217,22.22,127.92,-6.16,2
1218,22.24,173.88,-6.54,2
1219,22.25,140.46,-20.62,2
1220,22.26,133.99,-3.89,2
1221,22.28,86.22,-22.66,2
1222,22.29,67.65,1.38,2
1223,22.31,12.27,-19.82,2
1224,22.32,-32.99,2.82,2
1225,22.33,-104.63,14.99,2
1226,22.35,-178.14,29.11,2
1227,22.36,-207.42,36.8,2
1228,22.37,-216.84,21.36,2
1229,22.39,-229.29,19.19,2
1230,22.4,-195.35,32.27,2
1231,22.41,-164.16,15.99,2
1232,22.43,-167.64,9.43,2
1233,22.44,-113.95,20.14,2
1234,22.45,-97.17,18.81,2
1235,22.47,-59.42,14.01,2
1236,22.48,-37.44,17.79,2
1237,22.49,-17.57,14.87,2
1238,22.51,-10.37,28.75,2
1239,22.52,2.39,5.85,2
1240,22.53,13.63,13.18,2
1241,22.55,16.23,7.06,1
1242,22.56,39.34,1.87,1
1243,22.57,59.55,-18.32,1
1244,22.59,61.69,-40.27,1
1245,22.6,77.09,-38.21,1
1246,22.61,80.08,-54.66,1
1247,22.63,68.66,-41.49,1
1248,22.64,54.86,-40.89,1
1249,22.65,75.49,-31.5,1
1250,22.67,57.12,-35.06,1
1251,22.68,75.74,-36.22,1
1252,22.69,72.63,-19.4,1
1253,22.71,63.75,-15.34,1
1254,22.72,69.08,-14.95,1
1255,22.73,59.49,-20.8,1
1256,22.75,65.75,-8.27,1
1257,22.76,49.67,9.93,1
1258,22.77,76.1,6.01,1
1259,22.79,57.12,-8.36,1
1260,22.8,48.55,6.55,1
1261,22.81,47.68,22.79,1
1262,22.82,27.18,-3.61,1
1263,22.84,38.87,30.48,1
1264,22.85,30.57,-8.43,1
1265,22.86,30.7,-2.05,1
1266,22.88,19.02,-8.44,1
1267,22.89,-4.37,9.96,1
1268,22.9,4.72,19.18,1
1269,22.92,1.85,18.05,1
1270,22.93,-13.59,17.45,1
1271,22.95,-0.3,11.29,1
1272,22.96,-2.86,11.76,1
1273,22.97,-0.62,19.79,1
1274,22.99,-14.63,4.57,1
1275,23.0,-8.07,2.32,1
1276,23.01,-19.02,5.92,1
1277,23.03,-32.87,-1.17,1
1278,23.04,-25.82,24.49,1
1279,23.05,-36.16,4.85,1
1280,23.07,-42.58,30.0,1
1281,23.08,-26.99,15.73,1
1282,23.09,-37.31,11.26,1
1283,23.11,-41.05,2.24,1
1284,23.12,-35.68,-11.45,1
1285,23.13,-27.05,-12.39,1
1286,23.15,-24.59,7.73,1
1287,23.16,-33.35,3.02,1
1288,23.17,-21.25,18.76,1
1289,23.19,-26.48,-12.6,1
1290,23.2,-28.96,-4.37,1
1291,23.21,-32.14,9.79,1
1292,23.23,-15.68,-11.01,1
1293,23.24,-13.96,-7.05,1
1294,23.25,-22.53,-6.75,1
1295,23.27,-11.28,13.34,1
1296,23.28,-19.26,-19.2,1
1297,23.29,-23.34,-6.39,1
1298,23.31,-0.14,16.48,1
1299,23.32,-2.12,4.24,1
1300,23.33,-10.47,0.05,1
1301,23.35,-11.68,5.95,1
1302,23.36,-1.6,9.08,1
1303,23.37,2.43,-12.54,1
1304,23.39,-11.09,-1.85,1
1305,23.4,2.79,-3.11,1
1306,23.41,-11.82,-2.76,1
1307,23.43,-10.57,-9.3,1
1308,23.44,-6.86,-5.3,1
1309,23.45,3.13,-7.68,1
1310,23.46,2.21,-14.27,1
1311,23.48,4.63,-16.49,1
1312,23.49,9.73,-28.74,1
1313,23.5,3.25,-15.54,1
1314,23.52,-3.4,12.36,1
1315,23.53,2.19,-14.7,1
1316,23.54,12.72,0.01,1
1317,23.56,10.96,-5.08,1
1318,23.57,11.62,-28.04,1
1319,23.59,5.18,4.1,1
1320,23.6,15.53,40.17,1
1321,23.61,3.04,-8.49,1
1322,23.63,15.64,29.81,1
1323,23.64,7.43,-3.97,1
1324,23.65,21.09,-0.38,1
1325,23.67,6.11,-3.62,1
1326,23.68,14.63,-12.6,1
1327,23.69,5.04,11.46,1
1328,23.71,1.86,-1.64,1
1329,23.72,-1.82,3.37,1
1330,23.73,18.05,4.1,1
1331,23.75,4.36,12.73,1
1332,23.76,3.59,-5.49,1
1333,23.77,11.72,3.08,1
1334,23.79,-3.88,-6.84,1
1335,23.8,3.24,1.23,1
1336,23.81,10.85,-13.4,1
1337,23.83,12.12,12.42,1
1338,23.84,7.26,7.51,1
1339,23.85,9.66,-5.06,1
1340,23.87,-0.0,-25.36,1
1341,23.88,2.51,-9.34,1
1342,23.89,2.21,-24.0,1
1343,23.91,7.61,-3.21,1
1344,23.92,5.14,3.55,1
1345,23.93,-4.31,-21.49,1
1346,23.95,-3.88,24.42,1
1347,23.96,-13.4,10.77,1
1348,23.97,2.34,23.11,1
1349,23.99,8.12,1.83,1
1350,24.0,1.98,2.26,1
1351,24.01,-2.72,14.08,1
1352,24.03,-1.07,17.97,1
1353,24.04,-19.22,6.79,1
1354,24.05,-5.59,13.2,1
1355,24.07,-1.35,-2.04,1
1356,24.08,5.23,-18.97,1
1357,24.09,23.5,19.96,1
1358,24.1,-0.72,26.88,1
1359,24.12,-7.38,10.8,1
1360,24.13,0.34,29.35,1
1361,24.14,-10.11,83.78,1
1362,24.16,10.28,62.96,1
1363,24.17,13.16,223.23,1
1364,24.18,48.88,93.74,1
1365,24.2,-27.35,185.95,1
1366,24.21,-131.85,268.49,1
1367,24.22,-30.41,163.77,1
1368,24.24,63.8,-140.38,1
1369,24.25,106.31,-516.66,1
1370,24.27,265.93,-165.25,1
1371,24.28,102.02,-73.08,1
1372,24.29,131.16,177.89,1
1373,24.31,114.3,-25.87,1
1374,24.32,34.13,48.09,1
1375,24.33,-11.08,-226.14,1
1376,24.35,-108.73,-161.05,1
1377,24.36,-22.82,-140.73,1
1378,24.37,-119.78,-46.76,1
1379,24.39,-136.96,-34.09,1
1380,24.4,-184.47,-32.07,1
1381,24.41,-192.41,-409.74,1
1382,24.43,-198.96,-106.93,1
1383,24.44,-62.75,-69.3,1
1384,24.45,-223.47,277.61,1
1385,24.47,29.77,-6.07,1
1386,24.48,-112.3,-88.11,1
1387,24.49,28.0,-716.86,1
1388,24.51,-92.87,-47.78,1
1389,24.52,-225.05,354.08,1
1390,24.53,-163.33,12.95,1
1391,24.55,72.42,167.55,1
1392,24.56,215.93,-197.02,1
1393,24.57,99.16,-261.45,1
1394,24.59,11.43,119.66,1
1395,24.6,40.98,535.03,1
1396,24.61,109.25,212.92,1
1397,24.63,288.67,-51.12,1
1398,24.64,-46.88,-33.84,1
1399,24.65,229.29,30.46,1
1400,24.67,38.83,61.23,1
1401,24.68,-66.12,68.99,1
1402,24.69,-78.77,224.98,1
1403,24.71,-7.87,248.1,1
1404,24.72,-29.75,243.01,1
1405,24.73,-133.72,-175.56,1
1406,24.75,1.83,-153.66,1
1407,24.76,120.74,-221.1,1
1408,24.77,154.26,-199.53,1
1409,24.78,46.22,-104.46,1
1410,24.8,97.32,394.78,1
1411,24.81,56.63,139.83,1
1412,24.82,54.51,1.27,1
1413,24.84,-9.25,-304.14,1
1414,24.85,72.68,118.24,1
1415,24.86,48.21,412.79,1
1416,24.88,-238.36,193.81,1
1417,24.89,190.08,97.11,1
1418,24.91,0.55,-248.88,1
1419,24.92,209.77,-284.49,1
1420,24.93,125.93,-179.12,1
1421,24.95,62.11,130.09,1
1422,24.96,127.71,-18.65,1
1423,24.97,-95.79,197.04,1
1424,24.99,-13.71,65.02,1
1425,25.0,-203.8,-68.3,1
1426,25.01,-78.43,-30.11,1
1427,25.03,-72.92,-1.29,1
1428,25.04,-198.64,0.32,1
1429,25.05,-194.98,-7.59,1
1430,25.07,-267.66,-6.63,1
1431,25.08,-197.27,-12.72,1
1432,25.09,-100.67,-18.68,1
1433,25.11,-0.02,18.25,1
1434,25.12,37.49,28.21,1
1435,25.13,71.6,32.55,1
1436,25.15,83.0,35.71,1
1437,25.16,93.07,75.53,1
1438,25.17,113.32,58.39,1
1439,25.19,107.71,42.95,1
1440,25.2,117.12,84.39,1
1441,25.21,115.19,113.02,1
1442,25.23,109.52,76.68,1
1443,25.24,81.0,82.55,1
1444,25.25,63.58,90.06,1
1445,25.27,35.78,91.67,1
1446,25.28,64.7,55.58,1
1447,25.29,40.48,25.37,1
1448,25.31,24.05,21.51,1
1449,25.32,16.23,-10.09,1
1450,25.33,22.64,-27.99,1
1451,25.35,1.14,-27.54,1
1452,25.36,-9.72,-65.33,1
1453,25.37,-21.37,-72.35,1
1454,25.38,-33.6,-73.61,1
1455,25.4,-29.68,-91.32,1
1456,25.41,-55.21,-105.32,1
1457,25.42,-40.1,-76.89,1
1458,25.44,-44.98,-129.79,1
1459,25.45,-49.78,-126.42,1
1460,25.46,-61.02,-122.55,1
1461,25.48,-59.11,-108.44,1
1462,25.49,-30.4,-117.64,1
1463,25.5,-35.12,-96.6,1
1464,25.52,-37.23,-104.96,1
1465,25.53,-26.77,-118.01,1
1466,25.55,-41.42,-60.45,1
1467,25.56,-48.41,-78.67,1
1468,25.57,-51.54,-83.8,1
1469,25.59,-43.21,-79.95,1
1470,25.6,-38.04,-53.57,1
1471,25.61,-34.61,-42.46,1
1472,25.63,-25.01,-41.55,1
1473,25.64,-26.35,-8.14,1
1474,25.65,-27.41,-23.07,1
1475,25.67,-26.28,0.29,1
1476,25.68,-20.87,17.04,1
1477,25.69,6.2,21.91,1
1478,25.71,6.18,18.07,1
1479,25.72,-6.2,30.58,1
1480,25.73,-5.12,20.39,1
1481,25.75,-9.1,40.83,1
1482,25.76,-1.93,46.08,1
1483,25.77,5.39,61.42,1
1484,25.79,9.13,21.83,1
1485,25.8,-3.81,58.47,1
1486,25.81,19.55,61.75,1
1487,25.83,-0.24,46.97,1
1488,25.84,16.62,29.24,1
1489,25.85,9.74,80.25,1
1490,25.87,23.26,44.04,1
1491,25.88,8.75,41.64,1
1492,25.89,27.71,48.7,1
1493,25.91,27.81,47.63,1
1494,25.92,35.01,59.03,1
1495,25.93,12.64,54.1,1
1496,25.95,18.46,57.5,1
1497,25.96,14.33,61.28,1
1498,25.97,29.07,50.88,1
1499,25.99,34.87,40.63,1
1500,26.0,23.66,38.48,1
1501,26.01,11.7,12.19,1
1502,26.02,9.27,15.92,1
1503,26.04,10.19,34.19,1
1504,26.05,-4.7,14.36,1
1505,26.06,2.22,27.09,1
1506,26.08,30.29,5.88,1
1507,26.09,23.54,25.84,1
1508,26.1,15.07,9.77,1
1509,26.12,19.51,-9.7,1
1510,26.13,-3.25,-3.33,1
1511,26.14,5.38,-16.45,1
1512,26.16,21.47,-11.58,2
1513,26.17,21.43,-3.14,2
1514,26.19,48.62,-38.72,2
1515,26.2,99.95,-42.3,2
1516,26.21,128.58,-20.29,2
1517,26.23,139.28,-5.11,2
1518,26.24,119.51,-31.53,2
1519,26.25,92.92,-47.18,2
1520,26.27,36.93,-37.43,2
1521,26.28,-23.94,-47.71,2
1522,26.29,-59.68,-13.13,2
1523,26.31,-91.7,-11.54,2
1524,26.32,-106.42,0.81,2
1525,26.33,-118.46,22.87,2
1526,26.35,-110.87,35.57,2
1527,26.36,-119.12,4.21,2
1528,26.37,-106.91,25.36,2
1529,26.39,-118.63,26.01,2
1530,26.4,-112.41,35.44,2
1531,26.41,-87.27,20.26,2
1532,26.43,-62.97,30.78,2
1533,26.44,-77.15,32.17,2
1534,26.45,-50.32,32.67,2
1535,26.47,-44.09,28.36,2
1536,26.48,-38.19,19.96,2
1537,26.49,-20.54,8.59,2
1538,26.51,-32.09,-14.44,2
1539,26.52,-4.87,-15.85,2
1540,26.53,-13.58,-60.42,2
1541,26.55,15.73,-48.46,1
1542,26.56,10.6,-46.42,1
1543,26.57,29.62,-21.75,1
1544,26.59,15.0,-24.35,1
1545,26.6,30.33,-31.74,1
1546,26.61,44.97,-20.99,1
1547,26.63,50.49,-45.25,1
1548,26.64,41.78,-44.0,1
1549,26.65,55.98,-54.56,1
1550,26.67,56.56,-36.01,1
1551,26.68,52.09,-7.26,1
1552,26.69,57.37,-42.94,1
1553,26.7,60.07,-21.66,1
1554,26.72,43.28,-21.78,1
1555,26.73,55.29,-16.5,1
1556,26.75,30.47,-27.28,1
1557,26.76,54.15,-2.91,1
1558,26.77,49.01,-1.56,1
1559,26.78,22.96,-9.63,1
1560,26.8,48.19,-10.63,1
1561,26.81,45.56,12.04,1
1562,26.825,22.31,1.93,1
1563,26.84,10.4,0.87,1
1564,26.85,24.93,2.33,1
1565,26.87,11.9,22.74,1
1566,26.88,31.47,29.66,1
1567,26.89,3.37,8.67,1
1568,26.91,-6.1,24.37,1
1569,26.92,-3.27,15.0,1
1570,26.93,4.13,14.53,1
1571,26.95,2.38,10.48,1
1572,26.96,-13.86,21.79,1
1573,26.97,5.6,19.47,1
1574,26.99,-4.94,22.71,1
1575,27.0,-29.66,3.26,1
1576,27.01,-16.06,23.25,1
1577,27.03,-20.18,3.92,1
1578,27.04,-19.1,9.91,1
1579,27.05,-25.98,6.4,1
1580,27.07,-28.66,8.74,1
1581,27.08,-18.79,31.52,1
1582,27.09,-12.97,21.39,1
1583,27.11,-17.0,24.36,1
1584,27.12,-10.22,7.85,1
1585,27.13,-12.6,-2.04,1
1586,27.15,-3.53,11.22,1
1587,27.16,-18.72,11.46,1
1588,27.17,-17.01,16.57,1
1589,27.19,-22.02,7.14,1
1590,27.2,-11.18,16.69,1
1591,27.21,-15.83,-10.53,1
1592,27.23,-9.36,8.94,1
1593,27.24,-13.73,1.97,1
1594,27.25,-22.76,8.04,1
1595,27.27,-16.58,-6.02,1
1596,27.28,-12.13,15.28,1
1597,27.29,-16.65,13.95,1
1598,27.3,-12.9,3.62,1
1599,27.32,-20.34,-26.99,1
1600,27.33,-3.96,-4.02,1
1601,27.34,-18.03,9.77,1
1602,27.36,-3.98,-17.34,1
1603,27.37,-18.78,-2.33,1
1604,27.38,-13.47,-22.54,1
1605,27.4,-8.68,0.04,1
1606,27.41,-3.17,-6.48,1
1607,27.42,2.63,-18.05,1
1608,27.44,-1.14,-12.73,1
1609,27.45,0.95,-18.91,1
1610,27.46,8.19,-16.12,1
1611,27.48,-3.52,-7.66,1
1612,27.49,8.42,-12.21,1
1613,27.51,10.98,-11.08,1
1614,27.52,-0.77,1.55,1
1615,27.53,8.9,15.67,1
1616,27.55,1.14,-1.6,1
1617,27.56,5.04,0.97,1
1618,27.57,12.7,-22.43,1
1619,27.59,13.21,-5.31,1
1620,27.6,11.45,-6.66,1
1621,27.61,1.51,-11.07,1
1622,27.63,7.97,-15.76,1
1623,27.64,2.19,22.67,1
1624,27.65,-4.24,7.82,1
1625,27.67,0.83,12.01,1
1626,27.68,12.36,2.68,1
1627,27.69,16.42,-12.36,1
1628,27.71,-3.41,8.1,1
1629,27.72,0.96,-16.91,1
1630,27.73,0.24,10.65,1
1631,27.75,-0.13,7.1,1
1632,27.76,2.71,11.88,1
1633,27.77,10.09,6.04,1
1634,27.79,12.06,27.05,1
1635,27.8,10.33,2.52,1
1636,27.81,-0.97,-7.01,1
1637,27.83,10.6,-1.53,1
1638,27.84,13.2,-2.01,1
1639,27.85,0.75,-5.02,1
1640,27.87,13.32,2.65,1
1641,27.88,-0.71,-20.04,1
1642,27.89,10.06,-7.57,1
1643,27.91,18.37,-2.2,1
1644,27.92,3.59,-15.59,1
1645,27.93,-13.64,-4.99,1
1646,27.94,-6.24,-2.06,1
1647,27.96,4.31,19.56,1
1648,27.97,3.28,-7.47,1
1649,27.98,-12.82,-1.56,1
1650,28.0,5.78,-3.5,1
1651,28.01,-1.47,-0.75,1
1652,28.02,-7.73,-17.99,1
1653,28.04,0.06,10.45,1
1654,28.05,-19.96,14.34,1
1655,28.06,3.72,20.32,1
1656,28.08,2.86,-15.33,1
1657,28.09,0.25,0.07,1
1658,28.1,2.86,7.45,1
1659,28.12,-1.36,0.76,1
1660,28.13,-3.0,-0.67,1
1661,28.15,4.58,5.13,1
1662,28.16,2.9,16.58,0
1663,28.17,-1.86,19.06,0
1664,28.19,-4.21,4.66,0
1665,28.2,-45.63,1.95,0
1666,28.21,-70.08,6.81,0
1667,28.23,-94.08,26.68,0
1668,28.24,-136.17,0.5,0
1669,28.25,-119.32,27.6,0
1670,28.27,-114.22,-13.62,0
1671,28.28,-96.74,-36.07,0
1672,28.29,-78.6,-23.97,0
1673,28.31,-35.9,-19.97,0
1674,28.32,-24.15,-39.48,0
1675,28.33,52.12,-42.74,0
1676,28.35,98.84,-10.67,0
1677,28.36,177.87,-12.17,0
1678,28.37,195.97,-5.23,0
1679,28.39,208.82,4.8,0
1680,28.4,197.85,19.32,0
1681,28.41,177.93,14.74,0
1682,28.43,158.45,12.47,0
1683,28.44,135.53,40.21,0
1684,28.45,118.83,49.58,0
1685,28.47,96.79,20.71,0
1686,28.48,50.05,8.02,0
1687,28.49,25.26,3.92,0
1688,28.51,15.26,18.09,0
1689,28.52,-0.07,0.81,0
1690,28.53,-15.95,-20.95,0
1691,28.55,-32.35,-1.04,1
1692,28.56,-50.82,-2.48,1
1693,28.57,-32.76,-15.34,1
1694,28.58,-63.26,-25.48,1
1695,28.6,-72.51,1.5,1
1696,28.61,-67.62,-11.37,1
1697,28.62,-86.57,-5.23,1
1698,28.64,-77.32,-34.44,1
1699,28.65,-70.07,-15.56,1
1700,28.67,-71.54,0.37,1
1701,28.68,-75.05,0.08,1
1702,28.69,-60.62,-3.99,1
1703,28.7,-62.83,-6.42,1
1704,28.72,-61.19,-3.13,1
1705,28.73,-66.58,3.52,1
1706,28.75,-52.34,0.45,1
1707,28.76,-59.74,-6.55,1
1708,28.77,-62.19,12.54,1
1709,28.79,-51.37,14.34,1
1710,28.8,-49.19,3.51,1
1711,28.81,-33.16,-0.94,1
1712,28.83,-37.09,-7.08,1
1713,28.84,-27.11,3.71,1
1714,28.85,-11.85,19.82,1
1715,28.87,-23.17,23.99,1
1716,28.88,-24.13,2.49,1
1717,28.89,-5.23,13.04,1
1718,28.91,5.09,44.29,1
1719,28.92,9.39,17.45,1
1720,28.93,-11.3,10.17,1
1721,28.95,-5.88,-13.63,1
1722,28.96,2.43,-20.06,1
1723,28.97,10.73,-5.44,1
1724,28.99,-4.82,-11.53,1
1725,29.0,28.25,0.49,1
1726,29.01,28.38,-20.06,1
1727,29.03,21.26,-3.76,1
1728,29.04,34.49,-8.26,1
1729,29.05,37.63,16.05,1
1730,29.07,41.36,7.23,1
1731,29.08,33.81,-0.2,1
1732,29.09,35.07,-11.44,1
1733,29.11,30.72,-10.88,1
1734,29.12,31.97,-13.8,1
1735,29.13,20.71,-1.97,1
1736,29.15,31.42,-13.6,1
1737,29.16,30.1,3.37,1
1738,29.17,29.71,5.16,1
1739,29.19,26.94,-7.24,1
1740,29.2,20.16,-13.01,1
1741,29.21,5.68,-9.6,1
1742,29.22,40.64,-3.7,1
1743,29.24,34.42,-4.46,1
1744,29.25,24.99,3.53,1
1745,29.26,10.46,1.65,1
1746,29.28,6.15,4.63,1
1747,29.29,7.89,-8.66,1
1748,29.3,2.58,3.32,1
1749,29.32,-3.68,4.54,1
1750,29.33,0.85,6.0,1
1751,29.34,1.96,-11.73,1
1752,29.36,2.23,-2.13,1
1753,29.37,5.39,-1.76,1
1754,29.38,6.45,13.09,1
1755,29.4,0.33,-8.64,1
1756,29.41,17.0,3.85,1
1757,29.425,7.15,5.15,1
1758,29.44,-17.5,2.28,1
1759,29.45,-25.37,-14.68,1
1760,29.47,12.13,-10.71,1
1761,29.48,8.08,11.2,1
1762,29.49,10.79,6.52,1
1763,29.51,5.27,3.8,1
1764,29.52,-15.75,51.61,1
1765,29.53,-17.91,2.4,1
1766,29.55,-12.7,-2.25,1
1767,29.56,-12.68,-25.0,1
1768,29.57,-12.67,-5.27,1
1769,29.59,0.69,32.17,1
1770,29.6,-10.57,-8.36,1
1771,29.61,-4.45,19.62,1
1772,29.63,7.63,-4.35,1
1773,29.64,-7.52,15.78,1
1774,29.65,-25.86,-20.89,1
1775,29.67,-20.88,12.1,1
1776,29.68,-15.49,-35.98,1
1777,29.69,14.97,0.05,1
1778,29.71,10.94,-13.85,1
1779,29.72,14.9,11.73,1
1780,29.73,-3.32,0.41,1
1781,29.75,-12.25,-8.99,1
1782,29.76,-21.67,-13.62,1
1783,29.77,-5.81,15.96,1
1784,29.79,-5.17,-5.26,1
1785,29.8,-8.19,4.29,1
1786,29.81,-2.93,23.08,1
1787,29.83,5.73,-10.37,1
1788,29.84,4.07,16.33,1
1789,29.85,-5.14,4.92,1
1790,29.86,-3.44,14.32,1
1791,29.88,-12.95,-7.3,1
1792,29.89,-9.55,27.35,1
1793,29.9,-14.7,-17.16,1
1794,29.92,-13.29,0.37,1
1795,29.93,-20.27,10.7,1
1796,29.94,7.35,-7.22,1
1797,29.96,8.96,-27.02,1
1798,29.97,3.15,-0.16,1
1799,29.98,6.0,-0.98,1
1800,30.0,3.49,-12.1,1
1801,30.01,-7.34,-1.85,1
1802,30.02,-8.14,-5.2,1
1803,30.04,-10.51,28.81,1
1804,30.05,-19.61,-12.77,1
1805,30.06,2.22,-5.32,1
1806,30.08,9.62,-11.32,1
1807,30.09,18.98,-20.64,1
1808,30.11,4.14,-1.22,1
1809,30.12,7.56,-1.97,1
1810,30.13,13.34,15.27,1
1811,30.15,-3.47,-0.81,1
1812,30.16,2.7,-14.47,0
1813,30.17,13.2,39.87,0
1814,30.19,12.94,-16.42,0
1815,30.2,7.97,-11.94,0
1816,30.21,-59.23,24.32,0
1817,30.23,-111.76,35.92,0
1818,30.24,-121.19,0.05,0
1819,30.25,-124.64,-39.52,0
1820,30.27,-89.31,-30.35,0
1821,30.28,-60.36,-4.17,0
1822,30.29,-35.64,-40.13,0
1823,30.31,8.45,-13.01,0
1824,30.32,53.5,-22.77,0
1825,30.33,63.25,5.14,0
1826,30.35,89.39,-19.02,0
1827,30.36,91.04,26.41,0
1828,30.37,122.84,14.71,0
1829,30.39,143.41,10.64,0
1830,30.4,123.6,24.66,0
1831,30.41,108.05,13.16,0
1832,30.43,115.4,16.84,0
1833,30.44,89.76,48.33,0
1834,30.45,85.92,29.82,0
1835,30.47,65.97,4.24,0
1836,30.48,56.57,11.06,0
1837,30.49,33.75,-13.18,0
1838,30.5,16.72,9.61,0
1839,30.52,2.03,-1.69,0
1840,30.53,-2.93,-20.88,0
1841,30.54,12.85,-3.59,0
1842,30.56,-17.56,7.11,1
1843,30.57,-21.0,-5.01,1
1844,30.58,-25.29,20.43,1
1845,30.6,-33.93,10.43,1
1846,30.61,-55.53,-0.45,1
1847,30.62,-50.81,-12.79,1
1848,30.64,-39.58,9.34,1
1849,30.65,-48.28,3.06,1
1850,30.67,-63.59,7.94,1
1851,30.68,-66.38,18.04,1
1852,30.69,-69.22,-20.9,1
1853,30.7,-69.74,-6.69,1
1854,30.72,-68.25,6.88,1
1855,30.73,-47.82,-13.57,1
1856,30.75,-48.79,-7.57,1
1857,30.76,-54.97,-11.93,1
1858,30.77,-51.33,-30.94,1
1859,30.79,-53.54,-31.02,1
1860,30.8,-37.65,-32.0,1
1861,30.81,-26.98,-32.44,1
1862,30.83,-12.38,-24.19,1
1863,30.84,-17.56,-24.02,1
1864,30.85,-5.41,3.12,1
1865,30.87,-9.62,11.96,1
1866,30.88,-0.18,-2.04,1
1867,30.89,-9.88,-7.34,1
1868,30.91,-9.63,3.12,1
1869,30.92,6.13,2.52,1
1870,30.93,-0.95,4.82,1
1871,30.95,-3.02,0.87,1
1872,30.96,6.49,0.04,1
1873,30.97,5.17,13.65,1
1874,30.99,-3.21,1.85,1
1875,31.0,9.73,11.49,1
1876,31.01,0.25,-2.1,1
1877,31.03,22.54,-6.12,1
1878,31.04,27.92,15.05,1
1879,31.05,25.22,-11.09,1
1880,31.07,8.0,-1.11,1
1881,31.08,19.07,23.14,1
1882,31.09,1.9,18.68,1
1883,31.11,22.97,13.3,1
1884,31.12,24.5,19.33,1
1885,31.13,7.77,-17.75,1
1886,31.14,19.29,23.72,1
1887,31.16,11.52,10.33,1
1888,31.17,8.81,-11.28,1
1889,31.18,21.6,-0.18,1
1890,31.2,18.09,-13.89,1
1891,31.21,18.14,3.37,1
1892,31.22,3.8,20.44,1
1893,31.24,9.88,4.61,1
1894,31.25,15.75,22.1,1
1895,31.26,13.23,-3.56,1
1896,31.28,16.05,5.32,1
1897,31.29,7.1,10.1,1
1898,31.3,16.97,18.61,1
1899,31.32,7.18,1.62,1
1900,31.33,15.26,-15.0,1
1901,31.34,-1.61,1.18,1
1902,31.36,18.33,21.49,1
1903,31.37,21.54,5.53,1
1904,31.39,10.25,5.0,1
1905,31.4,23.3,40.6,1
1906,31.41,13.76,-7.23,1
1907,31.43,-1.21,-17.59,1
1908,31.44,4.53,-7.32,1
1909,31.45,-1.12,-7.15,1
1910,31.47,11.97,-2.24,1
1911,31.48,12.05,-24.4,1
1912,31.49,-5.9,-20.63,1
1913,31.51,-4.01,0.56,1
1914,31.52,-3.03,-2.96,1
1915,31.53,1.85,-8.19,1
1916,31.55,-9.66,-1.69,1
1917,31.56,-16.49,1.0,1
1918,31.57,-2.49,-23.68,1
1919,31.59,-13.02,-2.71,1
1920,31.6,-22.78,-2.33,1
1921,31.61,-15.8,-2.14,1
1922,31.63,5.99,-18.86,1
1923,31.64,-1.31,-0.67,1
1924,31.65,10.5,-17.23,1
1925,31.67,-8.26,-28.57,1
1926,31.68,3.29,6.13,1
1927,31.69,-2.23,5.06,1
1928,31.71,-11.03,8.93,1
1929,31.72,-17.19,6.95,1
1930,31.73,-22.41,-3.48,1
1931,31.75,-12.66,-2.65,1
1932,31.76,5.87,18.66,1
1933,31.77,-8.7,-6.75,1
1934,31.78,3.61,-10.65,1
1935,31.8,-3.78,6.07,1
1936,31.81,-10.17,3.36,1
1937,31.82,-2.41,11.22,1
1938,31.84,-7.28,-11.89,1
1939,31.85,-25.6,-5.17,1
1940,31.86,-2.59,-3.01,1
1941,31.88,-0.22,10.47,1
1942,31.89,-4.76,4.89,1
1943,31.9,2.47,7.11,1
1944,31.92,6.61,3.52,1
1945,31.93,1.7,0.5,1
1946,31.94,-1.94,-8.64,1
1947,31.96,4.0,-12.97,1
1948,31.97,-16.09,2.45,1
1949,31.98,6.75,-9.76,1
1950,32.0,-10.2,1.27,1
1951,32.01,1.91,4.95,1
1952,32.03,-9.94,15.2,1
1953,32.04,8.92,2.51,1
1954,32.05,-4.78,32.09,1
1955,32.07,5.54,32.8,1
1956,32.08,-2.92,-4.45,1
1957,32.09,-9.32,0.47,1
1958,32.11,-3.42,-5.11,1
1959,32.12,17.76,-8.63,1
1960,32.13,14.74,2.4,1
1961,32.15,18.09,-6.75,1
1962,32.16,11.79,6.44,2
1963,32.17,-4.06,22.69,2
1964,32.19,17.16,11.56,2
1965,32.2,-0.12,-27.25,2
1966,32.21,67.62,-17.74,2
1967,32.23,93.6,-26.02,2
1968,32.24,130.46,-22.74,2
1969,32.25,155.06,-12.3,2
1970,32.27,137.74,-7.01,2
1971,32.28,120.99,7.15,2
1972,32.29,91.73,-14.08,2
1973,32.31,54.97,-6.07,2
1974,32.32,-1.11,6.05,2
1975,32.33,-44.17,4.2,2
1976,32.35,-122.37,10.05,2
1977,32.36,-188.86,1.6,2
1978,32.37,-224.34,-5.64,2
1979,32.39,-220.83,9.3,2
1980,32.4,-202.46,20.9,2
1981,32.41,-181.81,13.57,2
1982,32.43,-154.45,18.21,2
1983,32.44,-128.36,19.25,2
1984,32.45,-120.49,36.76,2
1985,32.47,-80.25,43.21,2
1986,32.48,-66.28,45.44,2
1987,32.49,-32.86,29.31,2
1988,32.51,-27.8,-25.78,2
1989,32.52,23.24,-17.72,2
1990,32.53,47.86,-30.34,2
1991,32.54,38.25,-33.08,2
1992,32.56,46.75,-23.12,1
1993,32.57,43.36,-22.27,1
1994,32.59,53.7,-9.97,1
1995,32.6,51.24,-5.18,1
1996,32.61,60.07,-3.8,1
1997,32.63,53.45,-27.83,1
1998,32.64,49.28,-3.76,1
1999,32.65,70.19,-1.22,1
2000,32.67,69.21,2.74,1
2001,32.68,72.49,-7.76,1
2002,32.69,63.31,-23.03,1
2003,32.71,58.17,-27.23,1
2004,32.72,54.93,1.86,1
2005,32.73,65.32,-12.83,1
2006,32.75,53.13,-8.6,1
2007,32.76,58.01,-1.46,1
2008,32.77,52.72,-1.16,1
2009,32.79,34.54,12.85,1
2010,32.8,54.23,24.2,1
2011,32.81,42.81,1.77,1
2012,32.83,35.79,12.0,1
2013,32.84,33.73,3.54,1
2014,32.85,38.1,28.68,1
2015,32.87,17.35,19.97,1
2016,32.88,17.43,10.38,1
2017,32.89,16.94,6.4,1
2018,32.91,1.05,-7.3,1
2019,32.92,-9.3,-5.91,1
2020,32.93,9.88,-11.79,1
2021,32.95,-2.94,14.13,1
2022,32.96,-0.34,8.31,1
2023,32.97,-3.51,-19.35,1
2024,32.99,-13.74,4.05,1
2025,33.0,-9.64,8.27,1
2026,33.01,-7.06,12.31,1
2027,33.03,-14.78,6.09,1
2028,33.04,-28.85,10.31,1
2029,33.05,-23.22,12.5,1
2030,33.06,-15.67,3.57,1
2031,33.08,-23.96,-6.21,1
2032,33.09,-20.31,-17.41,1
2033,33.11,-17.02,-17.05,1
2034,33.12,-22.5,-2.97,1
2035,33.13,-30.85,-21.2,1
2036,33.15,-29.58,2.7,1
2037,33.16,-22.62,-3.04,1
2038,33.17,-34.81,7.34,1
2039,33.19,-21.84,-22.5,1
2040,33.2,-26.72,-10.45,1
2041,33.21,-23.56,-1.3,1
2042,33.22,-16.96,1.36,1
2043,33.24,-20.15,6.83,1
2044,33.25,-25.76,0.21,1
2045,33.27,-18.83,28.07,1
2046,33.28,-24.66,-4.6,1
2047,33.29,-29.78,13.67,1
2048,33.31,-3.52,-0.62,1
2049,33.32,-24.23,-5.05,1
2050,33.33,-18.22,20.75,1
2051,33.35,-18.41,-17.01,1
2052,33.36,-3.5,-3.52,1
2053,33.37,3.3,0.75,1
2054,33.39,-13.1,-0.43,1
2055,33.4,2.13,1.08,1
2056,33.41,0.5,-3.88,1
2057,33.43,6.29,-18.33,1
2058,33.44,-0.98,-1.54,1
2059,33.45,-0.14,-27.04,1
2060,33.47,-2.4,-20.07,1
2061,33.48,9.56,-3.33,1
2062,33.49,-4.32,8.95,1
2063,33.51,2.72,-11.47,1
2064,33.52,4.52,-8.34,1
2065,33.53,10.29,22.7,1
2066,33.55,-6.4,-2.9,1
2067,33.56,1.54,9.91,1
2068,33.57,-5.01,-5.51,1
2069,33.59,-1.99,18.99,1
2070,33.6,12.11,10.89,1
2071,33.61,5.97,2.94,1
2072,33.63,9.25,24.97,1
2073,33.64,22.01,8.2,1
2074,33.65,6.44,0.35,1
2075,33.67,6.08,-5.0,1
2076,33.68,15.63,-16.71,1
2077,33.69,23.22,-1.07,1
2078,33.71,13.68,13.26,1
2079,33.72,4.65,9.57,1
2080,33.73,2.97,13.06,1
2081,33.75,0.14,3.47,1
2082,33.76,-0.88,17.84,1
2083,33.77,-8.01,-4.1,1
2084,33.79,-5.73,3.21,1
2085,33.8,20.72,-3.66,1
2086,33.81,19.38,-1.17,1
2087,33.83,9.16,11.84,1
2088,33.84,5.8,-8.13,1
2089,33.85,-7.32,-22.81,1
2090,33.87,-11.64,4.06,1
2091,33.88,0.11,-10.45,1
2092,33.89,2.1,6.43,1
2093,33.9,19.0,19.91,1
2094,33.92,9.46,-2.64,1
2095,33.93,17.22,-2.53,1
2096,33.95,2.92,-8.27,1
2097,33.96,0.66,-0.37,1
2098,33.97,-2.81,-13.53,1
2099,33.99,10.85,0.52,1
2100,34.0,4.05,-2.28,1
2101,34.01,1.55,-5.73,1
2102,34.03,2.5,-10.13,1
2103,34.04,12.16,7.19,1
2104,34.05,-33.89,-3.91,1
2105,34.07,-9.63,-1.23,1
2106,34.08,-11.12,-9.84,1
2107,34.09,-8.66,-4.13,1
2108,34.11,6.09,12.22,1
2109,34.12,5.34,12.09,1
2110,34.13,0.49,124.54,1
2111,34.15,28.13,158.49,1
2112,34.16,24.59,116.44,1
2113,34.17,19.71,355.13,1
2114,34.19,-133.83,216.3,1
2115,34.2,2.53,-116.6,1
2116,34.21,-15.6,-575.12,1
2117,34.23,149.79,-44.83,1
2118,34.24,125.86,98.38,1
2119,34.25,147.24,254.58,1
2120,34.27,21.63,-40.4,1
2121,34.28,276.22,-165.3,1
2122,34.29,36.62,188.67,1
2123,34.31,-124.81,34.5,1
2124,34.32,-194.74,-6.11,1
2125,34.33,-85.32,-156.22,1
2126,34.35,-301.33,-324.75,1
2127,34.36,-200.95,-411.53,1
2128,34.37,-146.27,-92.22,1
2129,34.38,60.37,-330.09,1
2130,34.4,31.92,-273.53,1
2131,34.41,106.4,-466.07,1
2132,34.43,-75.24,-46.73,1
2133,34.44,-25.84,70.89,1
2134,34.45,23.64,73.58,1
2135,34.47,-63.43,-9.14,1
2136,34.48,57.48,183.42,1
2137,34.49,-78.57,123.86,1
2138,34.51,-131.1,178.13,1
2139,34.52,-56.76,-303.46,1
2140,34.53,71.11,-221.14,1
2141,34.54,-35.25,117.38,1
2142,34.56,32.44,605.63,1
2143,34.57,-24.63,162.85,1
2144,34.59,108.86,187.68,1
2145,34.6,55.29,164.56,1
2146,34.61,-93.81,-40.98,1
2147,34.63,42.85,71.23,1
2148,34.64,83.86,-165.24,1
2149,34.65,187.38,-108.29,1
2150,34.67,29.04,189.37,1
2151,34.68,31.27,43.03,1
2152,34.69,39.13,114.29,1
2153,34.71,-27.75,92.21,1
2154,34.72,14.44,436.89,1
2155,34.73,41.22,135.29,1
2156,34.75,76.14,-45.26,1
2157,34.76,8.77,443.72,1
2158,34.77,27.37,170.0,1
2159,34.79,-105.9,-99.77,1
2160,34.8,-77.21,105.91,1
2161,34.81,-3.27,-70.08,1
2162,34.83,-64.39,-290.72,1
2163,34.84,268.82,68.65,1
2164,34.85,-45.44,211.05,1
2165,34.87,-0.11,34.42,1
2166,34.88,-48.92,-52.99,1
2167,34.89,134.2,-255.29,1
2168,34.91,-96.57,-285.46,1
2169,34.92,50.67,-258.87,1
2170,34.93,-18.54,-219.52,1
2171,34.95,1.15,-181.12,1
2172,34.96,-128.26,-163.22,1
2173,34.97,-135.1,-103.14,1
2174,34.99,-108.12,-147.71,1
2175,35.0,-40.0,-40.78,1
2176,35.01,11.18,-29.98,1
2177,35.03,50.33,-28.42,1
2178,35.04,81.42,9.89,1
2179,35.05,83.56,20.38,1
2180,35.06,62.93,84.91,1
2181,35.08,83.28,93.39,1
2182,35.09,73.07,114.11,1
2183,35.11,61.33,111.67,1
2184,35.12,51.98,119.67,1
2185,35.13,43.62,127.53,1
2186,35.15,25.4,113.51,1
2187,35.16,15.32,89.49,1
2188,35.17,16.55,89.61,1
2189,35.19,18.32,65.93,1
2190,35.2,6.01,54.36,1
2191,35.21,-22.22,52.79,1
2192,35.22,16.93,32.93,1
2193,35.24,-2.99,26.83,1
2194,35.25,-2.14,11.64,1
2195,35.27,-14.74,-22.3,1
2196,35.28,-15.89,-26.07,1
2197,35.29,-24.16,-9.94,1
2198,35.31,-20.29,-1.02,1
2199,35.32,-30.61,-43.23,1
2200,35.33,-42.63,-29.08,1
2201,35.35,-55.4,-43.87,1
2202,35.36,-50.81,-52.49,1
2203,35.37,-46.8,-57.53,1
2204,35.39,-39.63,-56.5,1
2205,35.4,-40.16,-89.88,1
2206,35.41,-36.69,-54.76,1
2207,35.43,-46.27,-83.99,1
2208,35.44,-36.29,-75.8,1
2209,35.45,-33.98,-60.95,1
2210,35.47,-30.56,-36.77,1
2211,35.48,-30.78,-51.08,1
2212,35.49,-24.63,-49.27,1
2213,35.51,-34.93,-42.8,1
2214,35.52,-38.51,-27.31,1
2215,35.53,-30.94,-39.15,1
2216,35.55,-12.43,-34.71,1
2217,35.56,-12.49,-0.98,1
2218,35.57,-5.35,-6.48,1
2219,35.59,-18.71,5.57,1
2220,35.6,-0.56,-4.4,1
2221,35.61,-7.2,-19.17,1
2222,35.63,8.31,-29.75,1
2223,35.64,8.16,7.18,1
2224,35.65,1.78,36.42,1
2225,35.67,11.55,9.06,1
2226,35.68,4.69,7.21,1
2227,35.69,15.68,24.78,1
2228,35.71,-2.04,15.86,1
2229,35.72,16.85,8.35,1
2230,35.73,-5.97,26.82,1
2231,35.75,21.72,17.58,1
2232,35.76,22.38,30.17,1
2233,35.77,32.04,48.68,1
2234,35.79,16.92,19.17,1
2235,35.8,25.0,38.59,1
2236,35.81,36.76,27.66,1
2237,35.83,34.45,32.61,1
2238,35.84,13.15,26.48,1
2239,35.85,15.77,41.66,1
2240,35.87,8.11,37.38,1
2241,35.88,6.07,15.51,1
2242,35.89,15.23,32.12,1
2243,35.9,19.91,23.69,1
2244,35.92,23.18,4.56,1
2245,35.93,40.1,24.84,1
2246,35.95,16.55,41.3,1
2247,35.96,16.43,12.55,1
2248,35.97,12.29,-12.86,1
2249,35.99,8.29,-21.93,1
2250,36.0,17.44,4.53,1
2251,36.01,6.7,4.35,1
2252,36.03,6.99,11.29,1
2253,36.04,-15.69,6.5,1
2254,36.05,-6.57,14.65,1
2255,36.07,5.23,-9.6,1
2256,36.08,-9.65,-17.55,1
2257,36.09,0.54,-12.7,1
2258,36.11,15.98,-7.69,1
2259,36.12,13.97,-3.45,1
2260,36.13,10.06,-18.94,1
2261,36.15,-1.39,0.36,1
2262,36.16,12.13,10.54,2
2263,36.17,8.1,5.07,2
2264,36.19,-8.57,-36.1,2
2265,36.2,19.42,-32.24,2
2266,36.21,79.89,-19.94,2
2267,36.23,119.02,-75.68,2
2268,36.24,147.22,-26.1,2
2269,36.25,134.89,-67.42,2
2270,36.27,57.07,-41.92,2
2271,36.28,-2.11,-44.81,2
2272,36.29,-19.24,0.84,2
2273,36.31,-53.71,34.82,2
2274,36.32,-86.29,57.69,2
2275,36.33,-97.99,41.03,2
2276,36.35,-115.37,61.68,2
2277,36.36,-121.1,57.35,2
2278,36.37,-131.94,48.23,2
2279,36.38,-131.35,51.25,2
2280,36.4,-118.28,42.52,2
2281,36.41,-117.12,36.23,2
2282,36.43,-84.27,25.76,2
2283,36.44,-74.22,18.46,2
2284,36.45,-66.09,-0.09,2
2285,36.47,-49.85,13.79,2
2286,36.48,-44.01,8.63,2
2287,36.49,-23.25,3.15,2
2288,36.51,-24.28,-4.87,2
2289,36.52,-6.42,5.83,2
2290,36.53,7.89,-17.17,2
2291,36.54,20.77,-3.01,2
2292,36.56,13.56,-9.41,1
2293,36.57,28.68,-10.43,1
2294,36.59,35.53,-11.62,1
2295,36.6,37.44,-31.21,1
2296,36.61,44.2,-5.37,1
2297,36.63,56.77,-32.04,1
2298,36.64,55.73,-8.79,1
2299,36.65,46.54,-11.89,1
2300,36.67,47.18,-36.34,1
2301,36.68,53.87,-26.06,1
2302,36.69,47.01,-19.91,1
2303,36.71,43.41,-10.93,1
2304,36.72,45.44,-7.36,1
2305,36.73,50.95,-30.18,1
2306,36.75,45.3,-32.26,1
2307,36.76,34.6,-44.42,1
2308,36.77,56.31,-30.1,1
2309,36.79,43.56,-11.36,1
2310,36.8,51.71,-29.37,1
2311,36.81,28.75,-22.09,1
2312,36.83,24.35,-22.67,1
2313,36.84,29.95,-18.89,1
2314,36.85,15.85,-19.33,1
2315,36.87,27.09,-17.17,1
2316,36.88,6.96,-11.68,1
2317,36.89,-2.58,-4.52,1
2318,36.9,-4.5,-15.59,1
2319,36.92,-0.62,0.77,1
2320,36.93,13.14,-11.72,1
2321,36.95,-17.27,5.44,1
2322,36.96,-1.67,1.64,1
2323,36.97,2.16,-0.43,1
2324,36.99,-4.64,17.51,1
2325,37.0,6.07,7.89,1
2326,37.01,-1.8,25.03,1
2327,37.03,-13.37,30.06,1
2328,37.04,-21.43,8.38,1
2329,37.05,-25.8,14.88,1
2330,37.06,-12.01,30.76,1
2331,37.08,-24.51,5.41,1
2332,37.09,-22.44,23.56,1
2333,37.11,-23.37,11.56,1
2334,37.12,-34.57,10.81,1
2335,37.13,-19.26,15.7,1
2336,37.15,-21.33,3.79,1
2337,37.16,-11.32,32.04,1
2338,37.17,-32.35,20.28,1
2339,37.19,-10.35,13.0,1
2340,37.2,-19.25,12.38,1
2341,37.21,0.54,18.84,1
2342,37.225,-24.58,30.66,1
2343,37.24,0.08,10.5,1
2344,37.25,-0.6,11.53,1
2345,37.27,-15.91,14.19,1
2346,37.28,-7.45,17.09,1
2347,37.29,-9.25,7.45,1
2348,37.31,-25.63,16.02,1
2349,37.32,-20.53,14.96,1
2350,37.33,-20.21,-0.3,1
2351,37.35,-11.99,-4.16,1
2352,37.36,-20.42,9.94,1
2353,37.37,-15.21,5.27,1
2354,37.39,-8.49,-0.69,1
2355,37.4,-8.9,12.02,1
2356,37.41,-13.4,-1.45,1
2357,37.43,6.56,14.73,1
2358,37.44,0.59,4.3,1
2359,37.45,20.79,-11.18,1
2360,37.47,9.37,-24.46,1
2361,37.48,11.92,-9.14,1
2362,37.49,11.08,-5.41,1
2363,37.51,7.33,-5.83,1
2364,37.52,-3.56,-12.57,1
2365,37.53,16.26,-8.09,1
2366,37.54,2.28,-19.34,1
2367,37.56,-1.27,-8.86,1
2368,37.57,4.78,-21.62,1
2369,37.59,5.95,1.58,1
2370,37.6,0.48,5.95,1
2371,37.61,-2.24,-16.22,1
2372,37.63,13.73,-10.89,1
2373,37.64,15.32,-1.23,1
2374,37.65,2.86,-8.17,1
2375,37.67,6.88,-5.03,1
2376,37.68,16.63,-0.26,1
2377,37.69,-7.43,-14.32,1
2378,37.71,6.48,-8.66,1
2379,37.72,10.35,-4.72,1
2380,37.73,-5.14,2.35,1
2381,37.75,-6.09,-0.87,1
2382,37.76,8.89,-11.89,1
2383,37.77,5.81,-7.2,1
2384,37.79,-2.14,20.64,1
2385,37.8,5.84,6.84,1
2386,37.81,5.0,0.61,1
2387,37.83,2.94,-4.64,1
2388,37.84,16.26,-8.46,1
2389,37.85,-5.01,-4.7,1
2390,37.87,5.9,-17.74,1
2391,37.88,12.07,-18.96,1
2392,37.89,7.0,7.61,1
2393,37.91,12.94,-0.31,1
2394,37.92,5.64,-8.85,1
2395,37.93,-4.92,8.95,1
2396,37.95,-0.4,-12.48,1
2397,37.96,-4.13,0.68,1
2398,37.97,3.05,-8.58,1
2399,37.99,6.62,-8.52,1
2400,38.0,-10.24,6.25,1
2401,38.01,-4.56,0.78,1
2402,38.03,5.8,24.29,1
2403,38.04,-15.79,-1.87,1
2404,38.05,-7.2,4.14,1
2405,38.07,-25.72,-3.74,1
2406,38.08,-2.74,15.38,1
2407,38.09,-2.13,13.08,1
2408,38.11,-1.94,6.06,1
2409,38.12,-9.88,-5.57,1
2410,38.13,8.56,12.9,1
2411,38.15,-0.86,8.0,1
2412,38.16,20.58,11.5,0
2413,38.17,-12.58,-4.48,0
2414,38.19,-2.72,23.9,0
2415,38.2,-4.11,9.26,0
2416,38.21,5.68,-9.07,0
2417,38.22,23.55,13.17,0
2418,38.24,-56.24,19.17,0
2419,38.25,-74.52,30.97,0
2420,38.27,-119.32,20.84,0
2421,38.28,-141.59,32.65,0
2422,38.29,-132.94,31.45,0
2423,38.31,-110.72,-0.07,0
2424,38.32,-65.18,-43.58,0
2425,38.33,-42.57,-67.79,0
2426,38.35,-16.59,-88.46,0
2427,38.36,11.1,-70.01,0
2428,38.37,68.3,-59.97,0
2429,38.38,102.46,-49.31,0
2430,38.4,165.32,-26.41,0
2431,38.41,207.8,-19.73,0
2432,38.43,201.21,-6.18,0
2433,38.44,193.56,6.97,0
2434,38.45,156.29,48.02,0
2435,38.47,139.12,49.54,0
2436,38.48,118.35,51.37,0
2437,38.49,92.85,37.68,0
2438,38.51,70.42,12.81,0
2439,38.52,74.57,-1.91,0
2440,38.53,35.56,0.23,0
2441,38.55,20.24,11.46,0
2442,38.56,-3.55,-11.28,1
2443,38.57,-18.76,29.27,1
2444,38.59,-38.97,5.01,1
2445,38.6,-52.09,30.65,1
2446,38.61,-44.69,-6.09,1
2447,38.63,-52.28,-2.11,1
2448,38.64,-40.46,-8.22,1
2449,38.65,-60.3,-21.1,1
2450,38.67,-53.9,-29.96,1
2451,38.68,-75.75,-41.52,1
2452,38.69,-83.38,-8.07,1
2453,38.71,-79.7,6.0,1
2454,38.72,-81.18,21.66,1
2455,38.73,-83.09,14.64,1
2456,38.75,-68.93,41.93,1
2457,38.76,-63.89,50.12,1
2458,38.77,-65.76,37.99,1
2459,38.79,-58.98,35.27,1
2460,38.8,-57.74,19.31,1
2461,38.81,-50.01,8.62,1
2462,38.83,-52.73,31.28,1
2463,38.84,-65.81,12.91,1
2464,38.85,-47.26,0.44,1
2465,38.87,-32.69,-5.44,1
2466,38.88,-30.02,-19.25,1
2467,38.89,-21.69,9.31,1
2468,38.9,-23.7,12.29,1
2469,38.92,-14.68,2.35,1
2470,38.93,-5.48,-8.44,1
2471,38.95,1.96,-10.57,1
2472,38.96,-2.06,-12.56,1
2473,38.97,11.64,-1.79,1
2474,38.99,1.19,-23.45,1
2475,39.0,13.01,-12.32,1
2476,39.01,10.9,-11.27,1
2477,39.03,12.75,-12.69,1
2478,39.04,22.06,-18.87,1
2479,39.05,26.49,-25.28,1
2480,39.06,31.32,-16.74,1
2481,39.08,20.16,-11.33,1
2482,39.09,10.42,-19.24,1
2483,39.11,27.86,-22.65,1
2484,39.12,47.43,0.39,1
2485,39.13,41.69,-11.78,1
2486,39.15,29.2,-12.86,1
2487,39.16,26.85,2.86,1
2488,39.17,39.71,-6.97,1
2489,39.19,20.43,-14.88,1
2490,39.2,22.81,-22.27,1
2491,39.21,21.7,1.32,1
2492,39.23,33.67,-1.21,1
2493,39.24,34.17,-12.31,1
2494,39.25,20.74,-13.88,1
2495,39.27,5.48,-10.83,1
2496,39.28,15.24,-11.74,1
2497,39.29,21.24,-2.91,1
2498,39.31,7.83,4.36,1
2499,39.32,27.0,6.88,1
2500,39.33,22.19,-3.11,1
2501,39.35,14.27,4.61,1
2502,39.36,15.13,-2.48,1
2503,39.37,7.55,9.29,1
2504,39.39,1.2,8.74,1
2505,39.4,5.3,30.37,1
2506,39.41,-0.86,6.55,1
2507,39.43,7.76,4.62,1
2508,39.44,19.38,-2.21,1
2509,39.45,-6.94,1.61,1
2510,39.47,-10.88,6.08,1
2511,39.48,1.24,14.81,1
2512,39.49,-0.1,12.94,1
2513,39.51,5.51,12.13,1
2514,39.52,-10.27,6.17,1
2515,39.53,2.85,18.31,1
2516,39.54,5.97,5.2,1
2517,39.56,3.03,-8.75,1
2518,39.57,7.13,-5.09,1
2519,39.59,2.39,10.02,1
2520,39.6,-8.57,-5.32,1
2521,39.61,-9.62,14.73,1
2522,39.63,-18.84,17.73,1
2523,39.64,-20.13,25.53,1
2524,39.65,-4.43,5.1,1
2525,39.67,-10.54,4.76,1
2526,39.68,-9.57,-8.43,1
2527,39.69,-9.4,-12.0,1
2528,39.71,-6.74,7.22,1
2529,39.72,-16.07,6.18,1
2530,39.73,-16.58,13.11,1
2531,39.75,-11.33,17.58,1
2532,39.76,-6.15,5.91,1
2533,39.77,-9.31,-8.44,1
2534,39.79,-12.87,7.38,1
2535,39.8,-16.3,1.23,1
2536,39.81,-11.36,-12.61,1
2537,39.83,-1.78,8.55,1
2538,39.84,-7.97,-0.51,1
2539,39.85,-8.24,-8.31,1
2540,39.87,-11.6,-19.76,1
2541,39.88,2.28,6.99,1
2542,39.89,-3.93,-16.7,1
2543,39.91,4.06,-23.03,1
2544,39.92,6.03,-11.17,1
2545,39.93,-5.97,-1.67,1
2546,39.95,-4.7,9.97,1
2547,39.96,-3.26,-22.67,1
2548,39.97,-4.81,5.81,1
2549,39.99,-2.56,-4.44,1
2550,40.0,7.88,4.32,1
2551,40.01,2.87,-20.97,1
2552,40.03,-0.62,-13.73,1
2553,40.04,-10.78,-1.94,1
2554,40.05,-18.95,-10.58,1
2555,40.07,-7.88,-0.35,1
2556,40.08,10.31,7.46,1
2557,40.09,-10.8,-10.64,1
2558,40.11,15.01,1.73,1
2559,40.12,0.25,-11.27,1
2560,40.13,-2.92,25.9,1
2561,40.15,16.51,9.29,1
2562,40.16,0.75,4.13,0
2563,40.17,-0.61,-1.75,0
2564,40.19,12.32,-7.85,0
2565,40.2,-3.79,5.84,0
2566,40.21,1.7,6.95,0
2567,40.22,-38.05,18.46,0
2568,40.24,-84.29,1.59,0
2569,40.25,-108.58,13.6,0
2570,40.27,-127.34,4.21,0
2571,40.28,-101.59,-6.94,0
2572,40.29,-78.15,3.3,0
2573,40.31,-36.05,-4.49,0
2574,40.32,11.14,-29.39,0
2575,40.33,51.9,-43.72,0
2576,40.35,83.92,-28.74,0
2577,40.36,98.33,-24.3,0
2578,40.37,108.35,-36.58,0
2579,40.38,131.91,-18.64,0
2580,40.4,113.22,7.41,0
2581,40.41,126.05,12.09,0
2582,40.43,107.65,4.23,0
2583,40.44,97.34,14.32,0
2584,40.45,86.67,0.43,0
2585,40.47,73.37,18.86,0
2586,40.48,58.63,47.32,0
2587,40.49,73.29,23.27,0
2588,40.51,45.56,21.58,0
2589,40.52,25.2,-9.72,0
2590,40.53,11.34,-4.43,0
2591,40.55,-0.1,38.66,0
2592,40.56,-6.16,11.05,1
2593,40.57,-5.43,-0.43,1
2594,40.59,-12.69,12.82,1
2595,40.6,-24.12,31.38,1
2596,40.61,-39.52,21.67,1
2597,40.63,-36.27,27.03,1
2598,40.64,-52.54,21.99,1
2599,40.65,-57.94,21.05,1
2600,40.67,-60.1,0.58,1
2601,40.68,-53.28,28.56,1
2602,40.69,-63.02,12.0,1
2603,40.71,-58.24,-10.05,1
2604,40.72,-75.44,-20.61,1
2605,40.73,-68.7,-6.13,1
2606,40.75,-52.59,1.89,1
2607,40.76,-35.31,-14.55,1
2608,40.77,-57.51,-7.11,1
2609,40.79,-31.87,-25.29,1
2610,40.8,-48.1,-22.95,1
2611,40.81,-46.94,-3.62,1
2612,40.83,-37.35,-8.14,1
2613,40.84,-30.41,-26.24,1
2614,40.85,-28.12,-9.85,1
2615,40.87,-14.26,-10.55,1
2616,40.88,-31.53,-32.7,1
2617,40.89,-7.73,-18.77,1
2618,40.9,-0.64,-12.16,1
2619,40.92,-10.85,-10.38,1
2620,40.93,-2.11,-30.62,1
2621,40.95,-9.9,10.96,1
2622,40.96,2.83,-14.49,1
2623,40.97,13.16,-28.63,1
2624,40.99,-1.09,-46.37,1
2625,41.0,11.12,14.73,1
2626,41.01,3.56,-12.93,1
2627,41.03,9.44,-26.81,1
2628,41.04,12.62,-0.7,1
2629,41.05,10.43,-2.81,1
2630,41.06,22.68,-3.29,1
2631,41.08,18.54,-0.33,1
2632,41.09,26.5,5.7,1
2633,41.11,11.35,48.35,1
2634,41.12,4.53,16.48,1
2635,41.13,18.67,3.78,1
2636,41.15,3.77,19.03,1
2637,41.16,-2.2,19.36,1
2638,41.17,35.48,29.96,1
2639,41.19,24.34,38.67,1
2640,41.2,25.88,-3.45,1
2641,41.21,19.57,30.59,1
2642,41.23,25.16,21.54,1
2643,41.24,36.36,-8.9,1
2644,41.25,43.93,-19.85,1
2645,41.27,18.54,-0.41,1
2646,41.28,21.9,12.81,1
2647,41.29,9.32,-10.89,1
2648,41.31,18.22,29.35,1
2649,41.32,10.92,-0.87,1
2650,41.33,15.76,2.2,1
2651,41.35,24.07,-5.07,1
2652,41.36,7.75,25.97,1
2653,41.37,4.9,-10.78,1
2654,41.38,18.76,5.48,1
2655,41.4,0.6,-9.28,1
2656,41.41,5.9,9.81,1
2657,41.43,-1.26,2.63,1
2658,41.44,1.87,3.22,1
2659,41.45,-12.9,1.89,1
2660,41.47,-1.81,-1.07,1
2661,41.48,-14.21,-0.83,1
2662,41.49,-3.96,-14.49,1
2663,41.51,4.37,3.17,1
2664,41.52,-0.95,-3.46,1
2665,41.53,-4.86,-36.7,1
2666,41.54,-7.8,-24.03,1
2667,41.56,-1.65,13.83,1
2668,41.57,-0.56,-9.98,1
2669,41.59,3.25,6.87,1
2670,41.6,-1.41,-14.46,1
2671,41.61,-3.06,9.0,1
2672,41.63,-15.93,-9.82,1
2673,41.64,-14.64,-9.16,1
2674,41.65,-7.39,21.83,1
2675,41.67,-14.36,-10.21,1
2676,41.68,-9.64,-12.9,1
2677,41.69,-1.23,-29.8,1
2678,41.71,-10.25,6.95,1
2679,41.72,-15.28,3.97,1
2680,41.73,-11.41,6.11,1
2681,41.75,7.66,-6.11,1
2682,41.76,-6.29,8.39,1
2683,41.77,-9.4,0.21,1
2684,41.79,1.51,14.87,1
2685,41.8,-6.17,-13.06,1
2686,41.81,-16.67,-0.42,1
2687,41.83,-15.08,-7.34,1
2688,41.84,-17.0,-3.58,1
2689,41.85,8.07,-4.51,1
2690,41.87,5.3,1.61,1
2691,41.88,4.26,19.39,1
2692,41.89,-4.28,9.08,1
2693,41.91,-7.64,-5.81,1
2694,41.92,5.64,9.78,1
2695,41.93,6.39,4.79,1
2696,41.95,-1.62,0.46,1
2697,41.96,1.15,-19.56,1
2698,41.97,9.46,-0.21,1
2699,41.99,-9.25,-13.17,1
2700,42.0,-8.95,7.69,1
2701,42.01,3.75,6.2,1
2702,42.03,2.99,13.83,1
2703,42.04,8.76,-5.72,1
2704,42.05,-5.96,-8.48,1
2705,42.06,6.53,6.13,1
2706,42.08,-5.11,7.32,1
2707,42.09,4.34,4.48,1
2708,42.11,-0.29,6.56,1
2709,42.12,-6.62,-13.94,1
2710,42.13,16.1,3.31,1
2711,42.15,14.0,7.84,1
2712,42.16,1.58,-25.67,2
2713,42.17,-2.39,3.97,2
2714,42.19,-12.54,24.31,2
2715,42.2,4.03,2.7,2
2716,42.21,-1.92,32.54,2
2717,42.22,12.34,-1.05,2
2718,42.24,17.97,-18.97,2
2719,42.25,64.95,-26.69,2
2720,42.27,94.18,-14.33,2
2721,42.28,87.63,8.61,2
2722,42.29,123.95,-3.84,2
2723,42.31,114.07,-4.77,2
2724,42.32,75.01,-11.32,2
2725,42.33,74.91,-1.52,2
2726,42.35,57.75,-15.23,2
2727,42.36,40.72,-19.66,2
2728,42.37,-3.25,2.09,2
2729,42.38,-41.38,2.13,2
2730,42.4,-118.37,-3.73,2
2731,42.41,-189.48,-2.0,2
2732,42.43,-202.03,1.39,2
2733,42.44,-198.71,-2.11,2
2734,42.45,-195.94,-1.64,2
2735,42.47,-168.6,4.89,2
2736,42.48,-164.06,18.68,2
2737,42.49,-124.69,30.68,2
2738,42.51,-114.71,23.36,2
2739,42.52,-87.88,30.17,2
2740,42.53,-54.4,38.0,2
2741,42.55,-33.53,20.28,2
2742,42.56,56.25,15.24,1
2743,42.57,49.53,11.07,1
2744,42.59,40.88,23.59,1
2745,42.6,47.2,20.84,1
2746,42.61,45.4,2.34,1
2747,42.63,37.62,-6.88,1
2748,42.64,44.15,-14.62,1
2749,42.65,59.4,-7.93,1
2750,42.67,38.96,-17.43,1
2751,42.68,64.66,-19.12,1
2752,42.69,53.63,-40.72,1
2753,42.71,69.03,-25.73,1
2754,42.72,66.89,-17.92,1
2755,42.73,58.94,-23.6,1
2756,42.75,61.57,-8.35,1
2757,42.76,64.54,-5.43,1
2758,42.77,47.19,-21.76,1
2759,42.79,58.85,-26.85,1
2760,42.8,59.08,-35.01,1
2761,42.81,38.86,-22.03,1
2762,42.83,50.87,-15.03,1
2763,42.84,42.25,10.93,1
2764,42.85,36.63,-9.03,1
2765,42.87,46.29,-10.03,1
2766,42.88,33.29,22.19,1
2767,42.89,40.23,27.58,1
2768,42.9,19.67,14.67,1
2769,42.92,3.2,20.11,1
2770,42.93,2.85,30.69,1
2771,42.95,18.16,14.37,1
2772,42.96,9.03,0.25,1
2773,42.97,5.16,9.15,1
2774,42.99,2.61,24.08,1
2775,43.0,-7.64,22.12,1
2776,43.01,-12.4,23.96,1
2777,43.03,-6.38,4.51,1
2778,43.04,-25.38,3.97,1
2779,43.05,-18.92,4.96,1
2780,43.06,-4.26,-3.2,1
2781,43.08,-21.07,12.02,1
2782,43.09,-19.89,-2.33,1
2783,43.11,-9.14,-15.02,1
2784,43.12,-27.35,6.0,1
2785,43.13,-13.07,11.37,1
2786,43.15,-16.88,-5.69,1
2787,43.16,-14.1,14.4,1
2788,43.17,-13.63,-26.58,1
2789,43.19,-34.28,-3.13,1
2790,43.2,-21.03,-9.07,1
2791,43.21,-3.01,-5.9,1
2792,43.23,-11.31,-31.23,1
2793,43.24,-31.37,-1.32,1
2794,43.25,-21.4,-0.34,1
2795,43.27,-23.5,-5.45,1
2796,43.28,-41.08,-15.24,1
2797,43.29,-18.31,-0.82,1
2798,43.31,-20.34,16.39,1
2799,43.32,-12.43,-15.98,1
2800,43.33,-29.31,-4.32,1
2801,43.35,-22.4,-15.19,1
2802,43.36,-18.66,12.15,1
2803,43.37,-13.83,-19.56,1
2804,43.38,-5.07,13.59,1
2805,43.4,10.76,-13.5,1
2806,43.41,5.89,-3.29,1
2807,43.43,-19.24,-4.03,1
2808,43.44,-7.39,2.74,1
2809,43.45,-4.8,11.77,1
2810,43.47,0.58,-14.51,1
2811,43.48,-18.96,-10.01,1
2812,43.49,-23.78,5.44,1
2813,43.51,1.75,11.55,1
2814,43.52,-11.03,-4.05,1
2815,43.53,4.67,-21.24,1
2816,43.54,-3.99,0.83,1
2817,43.56,14.21,-0.74,1
2818,43.57,2.12,-8.08,1
2819,43.59,4.04,-0.36,1
2820,43.6,2.02,17.61,1
2821,43.61,9.95,8.03,1
2822,43.63,9.49,3.42,1
2823,43.64,15.57,-6.92,1
2824,43.65,15.75,3.9,1
2825,43.67,6.37,26.36,1
2826,43.68,4.38,-6.64,1
2827,43.69,11.22,8.49,1
2828,43.71,9.54,2.3,1
2829,43.72,6.43,-0.08,1
2830,43.73,0.23,7.57,1
2831,43.75,4.75,4.05,1
2832,43.76,-7.32,19.85,1
2833,43.77,6.55,8.14,1
2834,43.79,13.4,-22.71,1
2835,43.8,19.99,13.43,1
2836,43.81,-0.09,-8.83,1
2837,43.83,-9.92,5.51,1
2838,43.84,5.76,-7.48,1
2839,43.85,24.61,-7.89,1
2840,43.87,15.54,2.62,1
2841,43.88,18.4,20.5,1
2842,43.89,10.95,-0.19,1
2843,43.91,4.38,4.54,1
2844,43.92,-20.33,26.43,1
2845,43.93,-8.88,12.54,1
2846,43.95,-5.33,0.32,1
2847,43.96,-2.77,-10.04,1
2848,43.97,-0.07,9.43,1
2849,43.99,5.87,-12.47,1
2850,44.0,1.19,-15.53,1
2851,44.01,3.79,-2.1,1
2852,44.03,-2.17,-6.36,1
2853,44.04,7.26,2.28,1
2854,44.05,14.39,2.99,1
2855,44.06,-20.87,-20.59,1
2856,44.08,-10.12,-18.06,1
2857,44.09,6.27,9.02,1
2858,44.11,-1.81,-4.09,1
2859,44.12,-2.65,-2.73,1
2860,44.13,11.32,0.92,1
2861,44.15,-0.06,72.81,1
2862,44.16,21.48,99.08,1
2863,44.17,-3.35,150.65,1
2864,44.19,8.08,316.87,1
2865,44.2,9.89,138.99,1
2866,44.21,32.06,206.5,1
2867,44.22,19.08,165.98,1
2868,44.24,24.62,-10.95,1
2869,44.25,-84.28,-216.27,1
2870,44.27,125.17,-12.12,1
2871,44.28,106.55,67.87,1
2872,44.29,40.25,-82.76,1
2873,44.31,73.7,-307.3,1
2874,44.32,115.72,-420.93,1
2875,44.33,153.27,-295.53,1
2876,44.35,-45.98,-177.79,1
2877,44.36,73.8,151.67,1
2878,44.37,111.81,-114.01,1
2879,44.385000000000005,-138.34,-140.92,1
2880,44.4,-71.91,-409.36,1
2881,44.41,-10.48,-169.89,1
2882,44.43,-86.29,-232.58,1
2883,44.44,-35.37,20.44,1
2884,44.45,-305.2,-214.46,1
2885,44.47,-215.25,-34.65,1
2886,44.48,-54.07,-110.25,1
2887,44.49,-243.53,-167.62,1
2888,44.51,-81.91,376.9,1
2889,44.52,-245.27,268.88,1
2890,44.53,-85.14,-89.6,1
2891,44.55,-155.49,234.51,1
2892,44.56,-195.64,-88.12,1
2893,44.57,-132.37,259.16,1
2894,44.59,112.43,293.04,1
2895,44.6,167.38,175.56,1
2896,44.61,95.29,156.72,1
2897,44.63,27.18,-12.28,1
2898,44.64,-20.69,166.16,1
2899,44.65,86.78,-108.17,1
2900,44.67,20.18,24.52,1
2901,44.68,11.45,-239.16,1
2902,44.69,-124.37,-23.48,1
2903,44.71,192.39,341.6,1
2904,44.72,172.42,-1.75,1
2905,44.73,309.76,201.43,1
2906,44.75,60.98,496.98,1
2907,44.76,-0.27,196.9,1
2908,44.77,3.7,108.63,1
2909,44.79,234.64,64.29,1
2910,44.8,4.71,-245.6,1
2911,44.81,112.21,-283.68,1
2912,44.83,22.57,-116.54,1
2913,44.84,78.1,-142.32,1
2914,44.85,-12.89,-220.2,1
2915,44.87,-23.56,-110.69,1
2916,44.88,-75.01,47.31,1
2917,44.89,124.04,9.08,1
2918,44.9,9.08,7.86,1
2919,44.92,17.42,-54.59,1
2920,44.93,-56.54,-105.28,1
2921,44.95,-122.9,-98.51,1
2922,44.96,-188.06,-83.63,1
2923,44.97,-135.05,-35.33,1
2924,44.99,-50.66,-2.87,1
2925,45.0,-1.18,18.24,1
2926,45.01,62.46,4.26,1
2927,45.03,85.36,36.19,1
2928,45.04,89.65,47.67,1
2929,45.05,95.71,92.36,1
2930,45.07,115.58,131.91,1
2931,45.08,81.88,165.3,1
2932,45.09,94.21,193.53,1
2933,45.11,82.34,188.21,1
2934,45.12,84.78,171.03,1
2935,45.13,76.39,130.69,1
2936,45.15,64.14,100.25,1
2937,45.16,47.33,56.14,1
2938,45.17,21.49,70.97,1
2939,45.19,4.18,31.01,1
2940,45.2,-4.07,21.85,1
2941,45.21,-9.58,-31.56,1
2942,45.22,-34.76,-40.77,1
2943,45.24,-41.49,-36.25,1
2944,45.25,-49.54,-53.4,1
2945,45.27,-45.83,-35.8,1
2946,45.28,-51.69,-59.85,1
2947,45.29,-49.71,-43.57,1
2948,45.31,-65.39,-69.55,1
2949,45.32,-83.89,-81.48,1
2950,45.33,-55.44,-93.7,1
2951,45.35,-74.15,-110.94,1
2952,45.36,-59.07,-94.8,1
2953,45.37,-39.78,-79.55,1
2954,45.38,-49.3,-70.08,1
2955,45.4,-40.03,-96.28,1
2956,45.41,-63.35,-89.07,1
2957,45.43,-38.08,-86.37,1
2958,45.44,-39.31,-68.1,1
2959,45.45,-33.83,-82.92,1
2960,45.47,-33.91,-65.82,1
2961,45.48,-32.89,-48.63,1
2962,45.49,-32.13,-69.73,1
2963,45.51,-42.94,-56.49,1
2964,45.52,-42.18,-50.38,1
2965,45.53,-19.64,-45.44,1
2966,45.54,-30.89,-28.74,1
2967,45.56,-16.63,-32.17,1
2968,45.57,-17.63,-20.29,1
2969,45.59,-14.69,-27.24,1
2970,45.6,-15.21,-16.61,1
2971,45.61,-7.01,9.74,1
2972,45.63,-20.69,7.93,1
2973,45.64,-9.65,10.41,1
2974,45.65,16.1,14.89,1
2975,45.67,3.26,23.25,1
2976,45.68,5.92,27.44,1
2977,45.69,3.45,19.32,1
2978,45.71,7.36,2.45,1
2979,45.72,7.24,26.19,1
2980,45.73,26.67,52.11,1
2981,45.75,25.68,51.84,1
2982,45.76,35.0,40.89,1
2983,45.77,27.89,21.57,1
2984,45.79,37.53,41.35,1
2985,45.8,16.25,57.71,1
2986,45.81,24.49,36.43,1
2987,45.83,20.08,39.11,1
2988,45.84,18.69,50.7,1
2989,45.85,31.65,14.01,1
2990,45.87,31.24,31.86,1
2991,45.88,25.42,35.54,1
2992,45.89,16.89,47.14,1
2993,45.9,30.73,39.72,1
2994,45.92,26.77,24.21,1
2995,45.93,32.25,27.04,1
2996,45.95,39.9,29.51,1
2997,45.96,23.52,26.52,1
2998,45.97,13.51,22.29,1
2999,45.99,8.97,-9.16,1
3000,46.0,11.78,1.19,1
3001,46.01,16.6,15.71,1
3002,46.03,7.68,2.09,1
3003,46.04,18.71,0.46,1
3004,46.05,6.91,6.79,1
3005,46.06,-17.27,23.12,1
3006,46.08,-1.55,9.52,1
3007,46.09,-8.84,8.88,1
3008,46.11,-8.71,6.99,1
3009,46.12,7.56,-19.16,1
3010,46.13,8.56,-2.26,1
3011,46.15,6.07,-7.0,1
3012,46.16,-4.69,3.09,2
3013,46.17,-9.16,-18.5,2
3014,46.19,2.16,-16.67,2
3015,46.2,-7.13,-6.58,2
3016,46.21,6.62,-10.88,2
3017,46.22,11.25,-5.41,2
3018,46.24,-9.86,-32.05,2
3019,46.25,17.79,-38.4,2
3020,46.27,59.19,-36.48,2
3021,46.28,87.69,-36.65,2
3022,46.29,116.35,-8.0,2
3023,46.31,125.95,0.46,2
3024,46.32,102.77,-14.62,2
3025,46.33,58.4,1.19,2
3026,46.35,5.18,0.97,2
3027,46.36,-29.81,9.28,2
3028,46.37,-53.78,19.14,2
3029,46.39,-80.36,22.23,2
3030,46.4,-108.78,15.77,2
3031,46.41,-124.69,46.98,2
3032,46.43,-116.72,29.41,2
3033,46.44,-127.54,23.19,2
3034,46.45,-129.38,15.15,2
3035,46.47,-111.68,29.39,2
3036,46.48,-117.7,17.73,2
3037,46.49,-69.82,36.52,2
3038,46.51,-79.76,43.22,2
3039,46.52,-65.87,6.97,2
3040,46.53,-50.54,14.61,2
3041,46.54,-43.22,-7.99,2
3042,46.56,-35.28,-35.61,1
3043,46.57,-25.81,-25.03,1
3044,46.59,-14.59,-32.2,1
3045,46.6,-5.91,-32.47,1
3046,46.61,3.55,-29.08,1
3047,46.63,3.04,-41.68,1
3048,46.64,27.3,-36.89,1
3049,46.65,28.14,-28.52,1
3050,46.67,34.0,-18.06,1
3051,46.68,26.52,-36.04,1
3052,46.69,55.36,-25.43,1
3053,46.71,57.05,-18.91,1
3054,46.72,46.85,-26.02,1
3055,46.73,48.3,-17.52,1
3056,46.75,54.48,-20.96,1
3057,46.76,66.36,-15.08,1
3058,46.77,67.57,-22.79,1
3059,46.79,54.68,-30.58,1
3060,46.8,46.34,-22.16,1
3061,46.81,54.71,2.01,1
3062,46.83,51.9,16.75,1
3063,46.84,54.87,-5.12,1
3064,46.85,55.94,10.68,1
3065,46.87,34.17,16.0,1
3066,46.88,33.16,10.55,1
3067,46.89,32.29,21.79,1
3068,46.9,22.8,13.78,1
3069,46.92,19.96,1.52,1
3070,46.93,34.77,13.33,1
3071,46.95,12.22,5.12,1
3072,46.96,21.8,-4.52,1
3073,46.97,7.7,15.09,1
3074,46.99,-2.78,0.68,1
3075,47.0,4.33,13.69,1
3076,47.01,-8.91,-8.92,1
3077,47.03,23.38,-7.64,1
3078,47.04,5.41,15.04,1
3079,47.05,-7.32,21.79,1
3080,47.07,5.25,-3.14,1
3081,47.08,-13.3,-4.1,1
3082,47.09,-20.47,20.4,1
3083,47.11,-22.44,3.12,1
3084,47.12,-11.1,11.77,1
3085,47.13,-15.49,-0.99,1
3086,47.15,-29.75,4.95,1
3087,47.16,-15.55,8.28,1
3088,47.17,-19.5,14.83,1
3089,47.19,-19.64,3.63,1
3090,47.2,-15.33,5.05,1
3091,47.21,-20.87,-0.68,1
3092,47.22,-30.59,8.34,1
3093,47.24,-26.0,-0.65,1
3094,47.25,-23.67,1.58,1
3095,47.27,-13.98,20.02,1
3096,47.28,-36.03,19.47,1
3097,47.29,-26.83,35.69,1
3098,47.31,-29.5,20.02,1
3099,47.32,-32.12,18.88,1
3100,47.33,-25.72,19.11,1
3101,47.35,-20.8,-13.74,1
3102,47.36,-3.39,0.08,1
3103,47.37,-12.2,8.62,1
3104,47.38,-19.08,-1.16,1
3105,47.4,7.52,13.72,1
3106,47.41,-1.82,-11.59,1
3107,47.43,-1.22,-5.01,1
3108,47.44,-3.35,7.66,1
3109,47.45,-4.84,-2.47,1
3110,47.47,-0.95,4.6,1
3111,47.48,-13.17,-9.73,1
3112,47.49,17.71,9.52,1
3113,47.51,5.12,-14.0,1
3114,47.52,-10.75,-5.67,1
3115,47.53,-5.54,-9.8,1
3116,47.54,-6.39,-15.89,1
3117,47.56,4.71,-15.67,1
3118,47.57,2.34,-16.86,1
3119,47.59,5.93,-8.99,1
3120,47.6,1.94,-12.3,1
3121,47.61,-10.37,2.32,1
3122,47.63,5.01,-3.03,1
3123,47.64,-7.61,4.49,1
3124,47.65,-3.12,9.14,1
3125,47.67,8.79,-2.61,1
3126,47.68,4.36,-12.84,1
3127,47.69,28.6,0.73,1
3128,47.71,9.85,-9.99,1
3129,47.72,21.13,-4.84,1
3130,47.73,2.34,-17.29,1
3131,47.75,15.47,-9.14,1
3132,47.76,3.38,10.83,1
3133,47.77,13.62,-6.02,1
3134,47.79,2.14,-15.34,1
3135,47.8,3.62,-10.75,1
3136,47.81,5.86,-23.63,1
3137,47.83,13.81,-17.19,1
3138,47.84,-2.57,2.85,1
3139,47.85,9.45,16.33,1
3140,47.87,-3.7,-2.51,1
3141,47.88,-14.26,-1.63,1
3142,47.89,-0.78,2.62,1
3143,47.9,2.28,-10.86,1
3144,47.92,14.46,-12.03,1
3145,47.93,9.68,3.27,1
3146,47.95,-3.09,3.33,1
3147,47.96,11.43,23.7,1
3148,47.97,6.31,-4.67,1
3149,47.99,0.21,-0.17,1
3150,48.0,3.16,12.08,1
3151,48.01,5.18,-12.37,1
3152,48.03,-0.21,-12.46,1
3153,48.04,-8.39,0.46,1
3154,48.05,12.86,2.36,1
3155,48.06,-0.28,19.3,1
3156,48.08,-19.3,24.36,1
3157,48.09,-1.44,8.28,1
3158,48.11,10.54,-5.56,1
3159,48.12,8.25,-0.4,1
3160,48.13,-10.32,0.44,1
3161,48.15,1.49,10.73,1
3162,48.16,-11.62,7.33,0
3163,48.17,29.93,-2.33,0
3164,48.19,-3.04,-6.9,0
3165,48.2,-3.89,-13.74,0
3166,48.21,4.01,6.63,0
3167,48.22,-9.51,39.06,0
3168,48.24,4.53,1.9,0
3169,48.25,18.28,41.24,0
3170,48.27,39.59,18.9,0
3171,48.28,-71.75,25.02,0
3172,48.29,-85.76,19.87,0
3173,48.31,-135.37,21.78,0
3174,48.32,-126.18,-0.69,0
3175,48.33,-118.4,-39.52,0
3176,48.35,-103.13,-70.47,0
3177,48.36,-56.8,-64.57,0
3178,48.37,-43.21,-48.93,0
3179,48.39,-27.92,-29.69,0
3180,48.4,1.57,-17.02,0
3181,48.41,31.59,-7.39,0
3182,48.43,92.81,4.57,0
3183,48.44,157.06,-6.04,0
3184,48.45,179.29,10.55,0
3185,48.47,187.87,-17.75,0
3186,48.48,168.03,-3.54,0
3187,48.49,159.46,12.98,0
3188,48.51,132.03,39.18,0
3189,48.52,116.95,34.75,0
3190,48.53,82.75,38.0,0
3191,48.54,62.54,32.25,0
3192,48.56,41.03,32.55,1
3193,48.57,51.17,46.8,1
3194,48.59,12.57,20.0,1
3195,48.6,-9.64,11.15,1
3196,48.61,-23.87,8.53,1
3197,48.63,-26.96,2.21,1
3198,48.64,-40.2,4.94,1
3199,48.65,-46.45,-8.21,1
3200,48.67,-45.38,-2.42,1
3201,48.68,-57.49,-4.85,1
3202,48.69,-57.17,-34.41,1
3203,48.71,-45.96,-21.22,1
3204,48.72,-59.89,-29.2,1
3205,48.73,-93.01,-20.56,1
3206,48.75,-86.85,-18.79,1
3207,48.76,-83.64,-18.88,1
3208,48.77,-57.54,-31.0,1
3209,48.79,-53.33,-23.88,1
3210,48.8,-48.83,-31.39,1
3211,48.81,-42.19,-14.59,1
3212,48.83,-37.06,12.2,1
3213,48.84,-50.09,6.2,1
3214,48.85,-44.31,8.39,1
3215,48.87,-34.33,11.06,1
3216,48.88,-22.63,40.5,1
3217,48.89,-27.03,21.35,1
3218,48.9,-14.58,28.42,1
3219,48.92,-18.84,4.67,1
3220,48.93,-15.05,13.7,1
3221,48.95,-10.33,7.43,1
3222,48.96,-1.43,-9.63,1
3223,48.97,-12.38,18.94,1
3224,48.99,-9.08,2.39,1
3225,49.0,-9.76,9.11,1
3226,49.01,-4.52,-23.74,1
3227,49.03,12.15,-7.38,1
3228,49.04,2.72,12.35,1
3229,49.05,19.12,29.47,1
3230,49.06,-4.46,1.72,1
3231,49.08,16.92,-3.75,1
3232,49.09,6.82,-2.25,1
3233,49.11,23.35,6.03,1
3234,49.12,18.8,-7.51,1
3235,49.13,14.38,-4.06,1
3236,49.15,8.3,-8.49,1
3237,49.16,24.34,-35.72,1
3238,49.17,22.53,-3.51,1
3239,49.19,20.95,-29.98,1
3240,49.2,21.9,-2.43,1
3241,49.21,16.76,-13.68,1
3242,49.22,12.96,-12.85,1
3243,49.24,30.42,2.85,1
3244,49.25,17.0,9.46,1
3245,49.27,21.34,-10.87,1
3246,49.28,19.44,-3.27,1
3247,49.29,24.59,-6.67,1
3248,49.31,29.0,-10.03,1
3249,49.32,22.48,-10.37,1
3250,49.33,23.72,-14.13,1
3251,49.35,18.61,-4.76,1
3252,49.36,16.48,9.54,1
3253,49.37,2.22,-4.01,1
3254,49.38,6.06,17.6,1
3255,49.4,16.75,23.41,1
3256,49.41,3.56,13.99,1
3257,49.43,12.83,9.42,1
3258,49.44,9.85,15.18,1
3259,49.45,-1.27,5.24,1
3260,49.47,9.34,20.71,1
3261,49.48,2.44,0.59,1
3262,49.49,12.14,0.28,1
3263,49.51,1.38,-11.29,1
3264,49.52,-5.07,-25.57,1
3265,49.53,-14.85,-3.87,1
3266,49.54,-4.34,16.5,1
3267,49.56,9.2,19.46,1
3268,49.57,1.92,-11.29,1
3269,49.59,-5.94,12.93,1
3270,49.6,-4.56,-10.79,1
3271,49.61,10.36,7.23,1
3272,49.63,-8.75,24.15,1
3273,49.64,1.91,-0.34,1
3274,49.65,-19.98,-0.73,1
3275,49.67,-19.13,-0.31,1
3276,49.68,-15.6,-14.75,1
3277,49.69,-6.7,-10.8,1
3278,49.71,-12.16,4.85,1
3279,49.72,-6.77,2.0,1
3280,49.73,3.18,-14.36,1
3281,49.75,-16.89,1.89,1
3282,49.76,-4.86,8.44,1
3283,49.77,-5.94,6.82,1
3284,49.79,-3.68,4.57,1
3285,49.8,-10.2,-14.73,1
3286,49.81,13.19,4.13,1
3287,49.83,-6.85,10.39,1
3288,49.84,-4.34,-4.01,1
3289,49.85,3.58,-9.18,1
3290,49.87,-6.74,12.29,1
3291,49.88,0.39,1.39,1
3292,49.89,-15.07,-19.71,1
3293,49.9,2.76,4.88,1
3294,49.92,-4.3,-15.83,1
3295,49.93,-6.19,2.26,1
3296,49.95,0.41,-3.9,1
3297,49.96,-2.71,7.81,1
3298,49.97,-3.69,1.19,1
3299,49.99,-11.25,-4.26,1
3300,50.0,1.88,7.59,1
3301,50.01,2.41,-18.55,1
3302,50.03,-1.78,19.75,1
3303,50.04,4.83,-1.17,1
3304,50.05,-9.38,-0.18,1
3305,50.06,-4.54,1.93,1
3306,50.08,-32.63,5.52,1
3307,50.09,10.34,5.66,1
3308,50.11,3.97,7.33,1
3309,50.12,0.8,2.31,1
3310,50.13,18.6,15.57,1
3311,50.15,-3.96,-1.09,1
3312,50.16,2.16,3.82,0
3313,50.17,-9.14,-1.04,0
3314,50.19,5.35,-46.09,0
3315,50.2,14.04,-23.39,0
3316,50.21,2.79,21.1,0
3317,50.22,17.28,3.58,0
3318,50.24,-1.1,1.94,0
3319,50.25,-67.86,15.06,0
3320,50.27,-79.27,-36.88,0
3321,50.28,-112.61,-57.08,0
3322,50.29,-114.73,-16.91,0
3323,50.31,-105.74,-11.96,0
3324,50.32,-64.97,18.54,0
3325,50.33,-34.33,-0.43,0
3326,50.35,5.47,20.59,0
3327,50.36,42.45,24.29,0
3328,50.37,84.25,15.76,0
3329,50.38,83.26,9.01,0
3330,50.4,106.59,26.24,0
3331,50.41,124.36,-4.41,0
3332,50.43,121.41,-21.71,0
3333,50.44,97.55,2.06,0
3334,50.45,105.35,2.71,0
3335,50.47,100.51,16.52,0
3336,50.48,92.16,6.89,0
3337,50.49,70.62,-9.76,0
3338,50.51,66.87,3.72,0
3339,50.52,57.05,32.81,0
3340,50.53,29.56,2.98,0
3341,50.54,26.96,9.49,0
3342,50.56,21.22,1.98,1
3343,50.57,8.63,-3.99,1
3344,50.59,-2.14,8.09,1
3345,50.6,-2.02,-10.73,1
3346,50.61,-20.63,15.6,1
3347,50.63,-36.7,3.61,1
3348,50.64,-36.24,18.28,1
3349,50.65,-48.27,-4.61,1
3350,50.67,-40.83,11.63,1
3351,50.68,-53.31,3.03,1
3352,50.69,-45.34,21.75,1
3353,50.71,-63.35,-12.39,1
3354,50.72,-57.56,-8.34,1
3355,50.73,-58.35,-11.43,1
3356,50.75,-77.84,-27.17,1
3357,50.76,-57.83,-8.27,1
3358,50.77,-62.03,-5.48,1
3359,50.79,-69.6,-3.71,1
3360,50.8,-39.8,-16.18,1
3361,50.81,-50.7,7.95,1
3362,50.83,-35.96,1.44,1
3363,50.84,-15.68,-5.79,1
3364,50.85,-26.12,-4.7,1
3365,50.87,-10.02,-22.54,1
3366,50.88,-13.34,-14.49,1
3367,50.89,-11.97,-30.89,1
3368,50.91,-10.61,-7.73,1
3369,50.92,-19.98,-0.48,1
3370,50.93,-24.15,-6.14,1
3371,50.95,-18.36,-25.69,1
3372,50.96,3.89,-8.19,1
3373,50.97,10.51,1.85,1
3374,50.99,4.3,5.92,1
3375,51.0,-5.47,-4.95,1
3376,51.01,-4.76,-3.59,1
3377,51.03,6.21,-22.0,1
3378,51.04,4.09,-14.58,1
3379,51.05,7.92,-16.8,1
3380,51.06,4.98,-4.26,1
3381,51.08,16.66,2.94,1
3382,51.09,18.97,17.9,1
3383,51.11,24.85,13.45,1
3384,51.12,16.98,3.84,1
3385,51.13,22.3,13.98,1
3386,51.15,23.91,18.97,1
3387,51.16,27.51,10.33,1
3388,51.17,17.47,21.61,1
3389,51.19,20.28,22.77,1
3390,51.2,17.35,55.98,1
3391,51.21,24.32,18.42,1
3392,51.22,17.9,21.4,1
3393,51.24,24.12,14.54,1
3394,51.25,17.33,-2.57,1
3395,51.27,6.96,9.0,1
3396,51.28,20.37,10.82,1
3397,51.29,9.14,-2.57,1
3398,51.31,29.18,-17.77,1
3399,51.32,-20.91,-6.37,1
3400,51.33,2.12,14.71,1
3401,51.35,17.22,-6.43,1
3402,51.36,15.23,-1.97,1
3403,51.37,14.06,6.55,1
3404,51.38,12.19,-11.61,1
3405,51.4,12.31,6.98,1
3406,51.41,2.84,-2.92,1
3407,51.43,5.76,-11.28,1
3408,51.44,8.95,12.85,1
3409,51.45,13.52,23.79,1
3410,51.47,14.22,-2.52,1
3411,51.48,8.44,-12.7,1
3412,51.49,-1.79,-18.89,1
3413,51.51,3.89,16.49,1
3414,51.52,1.98,-16.89,1
3415,51.53,-6.18,-11.73,1
3416,51.55,4.68,-14.46,1
3417,51.56,-9.42,-9.14,1
3418,51.57,-11.22,-12.0,1
3419,51.59,-9.93,-27.42,1
3420,51.6,-12.31,3.93,1
3421,51.61,1.39,-16.39,1
3422,51.63,-1.29,-4.4,1
3423,51.64,-4.8,-7.13,1
3424,51.65,0.37,-1.5,1
3425,51.67,-4.95,18.32,1
3426,51.68,-17.23,-8.96,1
3427,51.69,-0.81,9.79,1
3428,51.71,-7.31,-8.76,1
3429,51.72,-4.63,11.98,1
3430,51.73,-0.23,2.92,1
3431,51.75,-16.13,-0.35,1
3432,51.76,-10.36,-8.63,1
3433,51.77,-1.49,-0.3,1
3434,51.79,-5.42,-4.15,1
3435,51.8,-2.08,-4.46,1
3436,51.81,-4.57,5.67,1
3437,51.83,-5.3,-3.84,1
3438,51.84,1.79,6.1,1
3439,51.85,-1.11,17.76,1
3440,51.87,-6.01,5.63,1
3441,51.88,-8.11,-16.8,1
3442,51.89,-5.32,0.47,1
3443,51.9,-8.19,-4.45,1
3444,51.92,6.24,3.2,1
3445,51.93,-10.28,8.62,1
3446,51.95,11.6,-17.2,1
3447,51.96,-12.25,6.55,1
3448,51.97,-16.83,-27.08,1
3449,51.99,-8.29,-13.04,1
3450,52.0,-1.91,3.41,1
3451,52.01,1.76,6.89,1
3452,52.03,2.03,2.15,1
3453,52.04,-9.8,-17.2,1
3454,52.05,-8.03,-4.06,1
3455,52.06,-10.34,14.83,1
3456,52.08,-12.23,-11.68,1
3457,52.09,-17.56,-3.8,1
3458,52.11,-2.27,-19.26,1
3459,52.12,6.52,43.29,1
3460,52.13,-0.3,81.73,1
3461,52.15,4.42,83.32,1
3462,52.16,-1.74,131.09,2
3463,52.17,28.9,161.72,2
3464,52.19,47.35,190.55,2
3465,52.2,44.42,73.15,2
3466,52.21,80.05,24.53,2
3467,52.23,118.44,-76.42,2
3468,52.24,113.82,-179.14,2
3469,52.25,126.21,-223.7,2
3470,52.27,125.73,-257.12,2
3471,52.28,109.73,-245.84,2
3472,52.29,68.97,-230.34,2
3473,52.31,32.02,-213.91,2
3474,52.32,-20.4,-149.54,2
3475,52.33,-56.67,-78.91,2
3476,52.35,-87.42,-32.23,2
3477,52.36,-157.44,19.06,2
3478,52.37,-169.83,64.94,2
3479,52.38,-213.53,105.86,2
3480,52.4,-221.98,128.17,2
3481,52.41,-213.89,121.97,2
3482,52.43,-192.08,104.16,2
3483,52.44,-157.21,129.94,2
3484,52.45,-126.59,140.97,2
3485,52.47,-96.2,115.81,2
3486,52.48,-62.86,104.57,2
3487,52.49,-46.66,122.18,2
3488,52.51,-1.98,103.2,2
3489,52.52,11.33,62.17,2
3490,52.53,30.28,54.49,2
3491,52.54,29.36,38.17,2
3492,52.56,67.04,19.7,1
3493,52.57,55.84,10.17,1
3494,52.59,79.6,2.54,1
3495,52.6,76.4,-23.39,1
3496,52.61,52.33,-16.98,1
3497,52.63,85.92,-23.13,1
3498,52.64,83.39,-49.55,1
3499,52.65,97.03,-35.33,1
3500,52.67,87.89,-47.26,1
3501,52.68,80.81,-37.96,1
3502,52.69,72.26,-11.86,1
3503,52.71,83.85,-6.58,1
3504,52.72,73.57,4.89,1
3505,52.73,68.79,-11.86,1
3506,52.75,68.36,-3.48,1
3507,52.76,67.57,-21.25,1
3508,52.77,53.2,-10.66,1
3509,52.79,46.33,-13.79,1
3510,52.8,44.19,-2.75,1
3511,52.81,34.74,-6.47,1
3512,52.83,21.65,-15.83,1
3513,52.84,25.45,-11.89,1
3514,52.85,5.97,-10.11,1
3515,52.87,6.23,-6.53,1
3516,52.88,15.74,-23.29,1
3517,52.89,16.33,-25.55,1
3518,52.9,2.53,-10.99,1
3519,52.92,1.95,-17.08,1
3520,52.93,-12.9,-2.84,1
3521,52.95,-13.97,-19.06,1
3522,52.96,-2.07,-13.85,1
3523,52.97,-20.91,-5.13,1
3524,52.99,-8.68,-33.24,1
3525,53.0,-15.06,-9.31,1
3526,53.01,-25.75,-11.5,1
3527,53.03,-28.56,-30.94,1
3528,53.04,-41.64,-25.73,1
3529,53.05,-31.11,-2.09,1
3530,53.06,-32.99,-29.1,1
3531,53.08,-32.98,-10.1,1
3532,53.09,-37.74,-11.3,1
3533,53.11,-29.78,-2.22,1
3534,53.12,-30.78,-11.53,1
3535,53.13,-33.6,-16.66,1
3536,53.15,-20.61,15.08,1
3537,53.16,-34.25,1.75,1
3538,53.17,-23.82,-2.52,1
3539,53.19,-30.6,-9.5,1
3540,53.2,-27.62,14.34,1
3541,53.21,-12.85,-1.21,1
3542,53.22,-27.15,0.19,1
3543,53.24,-30.33,16.44,1
3544,53.25,-16.55,22.83,1
3545,53.27,-16.85,20.8,1
3546,53.28,-16.87,7.91,1
3547,53.29,-21.06,-12.0,1
3548,53.31,-3.84,22.05,1
3549,53.32,-11.07,19.44,1
3550,53.33,-4.2,30.97,1
3551,53.35,-12.47,17.8,1
3552,53.36,1.62,9.49,1
3553,53.37,-19.73,3.54,1
3554,53.38,-11.87,15.4,1
3555,53.4,3.54,30.98,1
3556,53.41,9.26,17.62,1
3557,53.43,9.44,6.97,1
3558,53.44,-2.45,-7.43,1
3559,53.45,-2.98,-2.22,1
3560,53.47,-6.89,-14.46,1
3561,53.48,3.55,16.9,1
3562,53.49,10.93,-6.52,1
3563,53.51,-0.33,-0.53,1
3564,53.52,8.8,3.51,1
3565,53.53,21.08,-12.05,1
3566,53.54,8.62,-18.15,1
3567,53.56,13.24,24.33,1
3568,53.57,24.28,31.11,1
3569,53.59,11.1,12.04,1
3570,53.6,3.98,-5.82,1
3571,53.61,4.67,14.22,1
3572,53.63,10.6,3.68,1
3573,53.64,-0.5,5.41,1
3574,53.65,8.81,-5.46,1
3575,53.67,8.83,4.87,1
3576,53.68,18.83,11.02,1
3577,53.69,-2.19,-4.18,1
3578,53.71,14.33,-7.26,1
3579,53.72,9.97,4.01,1
3580,53.73,6.46,-9.38,1
3581,53.75,8.13,-15.42,1
3582,53.76,20.02,-0.3,1
3583,53.77,9.26,-11.6,1
3584,53.79,2.34,-25.31,1
3585,53.8,9.01,0.95,1
3586,53.81,5.35,-9.83,1
3587,53.83,0.36,0.61,1
3588,53.84,6.04,0.02,1
3589,53.85,4.97,-6.53,1
3590,53.87,14.81,14.15,1
3591,53.88,-9.4,15.25,1
3592,53.89,-3.41,3.08,1
3593,53.9,11.27,-5.81,1
3594,53.92,-10.29,-7.77,1
3595,53.93,-10.57,-13.26,1
3596,53.95,-16.35,-37.68,1
3597,53.96,-4.77,-7.56,1
3598,53.97,2.6,13.49,1
3599,53.99,12.48,12.33,1
3600,54.0,3.19,-13.74,1
3601,54.01,2.38,5.03,1
3602,54.03,7.76,17.82,1
3603,54.04,-0.32,6.26,1
3604,54.05,2.07,3.29,1
3605,54.06,-10.77,13.98,1
3606,54.08,-22.36,-13.95,1
3607,54.09,-15.52,-28.77,1
3608,54.11,6.67,-15.11,1
3609,54.12,2.42,-13.1,1
3610,54.13,5.09,11.1,1
3611,54.15,3.14,21.22,1
3612,54.16,-4.83,48.4,1
3613,54.17,14.23,116.17,1
3614,54.19,-4.06,191.32,1
3615,54.2,-14.33,319.84,1
3616,54.21,8.41,92.19,1
3617,54.22,15.09,231.68,1
3618,54.24,38.81,-24.86,1
3619,54.25,21.29,-283.16,1
3620,54.27,175.14,-283.06,1
3621,54.28,-99.26,256.21,1
3622,54.29,248.65,30.87,1
3623,54.31,94.76,-32.19,1
3624,54.32,73.21,-302.82,1
3625,54.33,217.35,9.69,1
3626,54.35,98.17,99.61,1
3627,54.36,-20.78,-110.48,1
3628,54.37,69.0,-513.97,1
3629,54.38,-31.42,-577.29,1
3630,54.4,-155.67,-3.09,1
3631,54.41,-150.11,39.93,1
3632,54.43,-241.23,6.7,1
3633,54.44,-268.43,116.94,1
3634,54.45,-269.19,-327.46,1
3635,54.47,-254.38,16.54,1
3636,54.48,-109.08,-315.63,1
3637,54.49,-209.09,54.02,1
3638,54.51,-262.63,192.4,1
3639,54.52,160.02,-378.29,1
3640,54.53,-88.65,-186.88,1
3641,54.54,-147.72,137.07,1
3642,54.56,17.59,536.53,1
3643,54.57,-99.77,340.55,1
3644,54.59,44.03,127.13,1
3645,54.6,-57.21,-409.99,1
3646,54.61,-150.86,215.18,1
3647,54.63,154.4,245.64,1
3648,54.64,289.66,-142.32,1
3649,54.65,51.03,208.53,1
3650,54.67,30.99,296.54,1
3651,54.68,63.48,-106.78,1
3652,54.69,-15.2,-172.0,1
3653,54.71,27.23,10.28,1
3654,54.72,193.72,499.82,1
3655,54.73,135.89,10.5,1
3656,54.75,293.52,225.04,1
3657,54.76,124.25,245.28,1
3658,54.77,-19.24,-162.46,1
3659,54.79,-13.89,-206.73,1
3660,54.8,152.14,0.88,1
3661,54.81,320.45,-19.91,1
3662,54.83,-55.8,-102.06,1
3663,54.84,131.6,128.13,1
3664,54.85,-10.11,207.04,1
3665,54.87,6.39,-51.73,1
3666,54.88,-116.4,-151.19,1
3667,54.89,38.98,-12.63,1
3668,54.9,85.23,-84.03,1
3669,54.92,78.38,-37.2,1
3670,54.93,34.42,-113.29,1
3671,54.95,4.09,-138.11,1
3672,54.96,7.72,-21.04,1
3673,54.97,-32.63,-27.18,1
3674,54.99,-106.09,-72.99,1
3675,55.0,-158.4,-149.27,1
3676,55.01,-248.5,-133.82,1
3677,55.03,-137.03,-125.34,1
3678,55.04,-67.14,13.7,1
3679,55.05,-50.72,-29.69,1
3680,55.06,18.09,20.27,1
3681,55.08,50.65,51.76,1
3682,55.09,46.36,89.61,1
3683,55.11,52.6,108.1,1
3684,55.12,89.81,165.3,1
3685,55.13,84.78,146.45,1
3686,55.15,112.7,172.46,1
3687,55.16,75.96,158.27,1
3688,55.17,48.52,141.4,1
3689,55.19,51.76,96.83,1
3690,55.2,43.2,99.46,1
3691,55.21,20.61,38.33,1
3692,55.22,22.45,66.39,1
3693,55.24,12.4,27.16,1
3694,55.25,-18.88,-12.85,1
3695,55.27,-26.61,3.74,1
3696,55.28,-8.41,11.73,1
3697,55.29,-16.0,22.48,1
3698,55.31,-29.91,26.82,1
3699,55.32,-36.26,-25.89,1
3700,55.33,-51.64,-16.67,1
3701,55.35,-45.82,0.63,1
3702,55.36,-57.35,-51.36,1
3703,55.37,-37.48,-64.66,1
3704,55.38,-63.7,-63.38,1
3705,55.4,-52.6,-95.82,1
3706,55.41,-46.4,-73.7,1
3707,55.43,-38.29,-63.61,1
3708,55.44,-75.9,-107.51,1
3709,55.45,-60.0,-77.7,1
3710,55.47,-43.74,-89.62,1
3711,55.48,-34.92,-66.62,1
3712,55.49,-38.1,-57.22,1
3713,55.51,-35.45,-71.67,1
3714,55.52,-22.5,-95.71,1
3715,55.53,-67.39,-86.94,1
3716,55.54,-58.53,-74.93,1
3717,55.56,-33.68,-80.36,1
3718,55.57,1.85,-57.8,1
3719,55.59,-7.38,-26.41,1
3720,55.6,1.11,-30.42,1
3721,55.61,-8.24,-12.41,1
3722,55.63,-12.41,-13.36,1
3723,55.64,-16.11,-18.2,1
3724,55.65,-20.08,-13.96,1
3725,55.67,-12.21,-11.95,1
3726,55.68,-2.06,-29.08,1
3727,55.69,7.86,-15.88,1
3728,55.71,31.42,-25.83,1
3729,55.72,17.09,5.83,1
3730,55.73,34.37,26.38,1
3731,55.75,24.59,15.6,1
3732,55.76,14.33,30.36,1
3733,55.77,11.08,23.52,1
3734,55.79,-4.82,5.25,1
3735,55.8,7.12,37.5,1
3736,55.81,15.97,33.48,1
3737,55.83,40.47,27.01,1
3738,55.84,46.92,46.16,1
3739,55.85,43.75,44.27,1
3740,55.87,44.46,31.54,1
3741,55.88,33.86,18.26,1
3742,55.89,19.4,50.98,1
3743,55.9,24.88,32.42,1
3744,55.92,11.82,23.21,1
3745,55.93,24.39,8.5,1
3746,55.95,13.35,24.58,1
3747,55.96,20.78,35.0,1
3748,55.97,12.66,45.58,1
3749,55.99,18.41,45.32,1
3750,56.0,14.81,19.55,1
3751,56.01,11.72,20.05,1
3752,56.03,24.0,7.06,1
3753,56.04,12.96,28.62,1
3754,56.05,14.99,28.51,1
3755,56.06,3.14,51.67,1
3756,56.08,-32.81,27.14,1
3757,56.09,13.03,11.21,1
3758,56.11,-15.76,30.26,1
3759,56.12,8.3,18.66,1
3760,56.13,14.85,16.24,1
3761,56.15,15.89,4.01,1
3762,56.16,27.63,5.21,2
3763,56.17,2.56,-11.12,2
3764,56.19,-5.98,13.61,2
3765,56.2,4.91,15.12,2
3766,56.21,13.52,-28.65,2
3767,56.22,-4.11,-41.6,2
3768,56.24,15.02,-50.62,2
3769,56.25,61.92,-18.35,2
3770,56.27,117.1,-27.01,2
3771,56.28,135.91,-64.02,2
3772,56.29,110.94,-51.7,2
3773,56.31,92.22,-27.08,2
3774,56.32,41.48,19.08,2
3775,56.33,-22.33,8.47,2
3776,56.35,-29.6,20.47,2
3777,56.36,-77.04,26.35,2
3778,56.37,-92.64,26.27,2
3779,56.38,-111.52,42.85,2
3780,56.4,-117.31,19.76,2
3781,56.41,-126.34,41.78,2
3782,56.43,-106.41,28.13,2
3783,56.44,-102.58,32.58,2
3784,56.45,-116.46,22.26,2
3785,56.47,-112.24,32.26,2
3786,56.48,-94.05,3.47,2
3787,56.49,-67.3,10.65,2
3788,56.51,-60.78,32.08,2
3789,56.52,-46.19,15.2,2
3790,56.53,-18.55,12.72,2
3791,56.54,-19.33,0.22,2
3792,56.56,-8.36,-10.89,1
3793,56.57,-19.92,-41.44,1
3794,56.59,-7.9,-43.62,1
3795,56.6,4.47,-39.17,1
3796,56.61,24.4,-54.03,1
3797,56.63,30.87,-31.15,1
3798,56.64,31.26,-31.59,1
3799,56.65,28.03,-31.46,1
3800,56.67,40.21,-22.53,1
3801,56.68,33.77,-23.46,1
3802,56.69,31.16,-25.11,1
3803,56.71,41.96,-19.34,1
3804,56.72,63.13,-1.5,1
3805,56.73,48.83,-12.66,1
3806,56.75,58.39,-11.79,1
3807,56.76,53.43,-4.66,1
3808,56.77,62.38,-24.39,1
3809,56.79,51.37,-7.1,1
3810,56.8,62.42,-8.57,1
3811,56.81,42.79,-46.05,1
3812,56.83,36.21,-24.18,1
3813,56.84,15.9,-29.1,1
3814,56.85,15.0,-35.33,1
3815,56.87,31.27,-16.4,1
3816,56.88,10.56,-11.06,1
3817,56.89,32.98,-11.18,1
3818,56.9,6.95,-13.55,1
3819,56.92,8.95,-4.78,1
3820,56.93,8.34,-16.12,1
3821,56.95,15.61,5.17,1
3822,56.96,7.51,-3.69,1
3823,56.97,2.83,9.64,1
3824,56.99,-0.41,-9.35,1
3825,57.0,3.44,-12.96,1
3826,57.01,-0.1,-1.13,1
3827,57.03,-4.28,14.32,1
3828,57.04,-4.71,0.92,1
3829,57.05,-6.63,33.88,1
3830,57.06,3.25,50.34,1
3831,57.08,-13.17,23.85,1
3832,57.09,0.79,13.89,1
3833,57.11,-0.63,29.25,1
3834,57.12,-0.0,27.2,1
3835,57.13,-8.45,39.5,1
3836,57.15,8.9,24.8,1
3837,57.16,-31.29,22.42,1
3838,57.17,-21.12,26.2,1
3839,57.19,-18.59,31.63,1
3840,57.2,-3.26,27.52,1
3841,57.21,-22.72,21.92,1
3842,57.22,-13.29,23.84,1
3843,57.24,-36.84,14.54,1
3844,57.25,-34.69,8.83,1
3845,57.27,-32.77,14.32,1
3846,57.28,-18.13,2.98,1
3847,57.29,14.98,6.64,1
3848,57.31,-2.44,16.25,1
3849,57.32,-10.46,-9.62,1
3850,57.33,-18.28,3.09,1
3851,57.35,-18.4,18.8,1
3852,57.36,-11.06,12.04,1
3853,57.37,1.67,19.06,1
3854,57.38,-1.81,-0.97,1
3855,57.4,-22.33,-11.81,1
3856,57.41,-27.52,-21.89,1
3857,57.43,-21.13,-10.06,1
3858,57.44,-11.02,-6.72,1
3859,57.45,-18.57,-21.23,1
3860,57.47,-0.22,-20.89,1
3861,57.48,-0.53,-6.75,1
3862,57.49,0.56,-7.71,1
3863,57.51,-22.11,10.25,1
3864,57.52,-22.56,-12.12,1
3865,57.53,-6.91,-10.59,1
3866,57.54,-0.8,-14.61,1
3867,57.56,-12.26,-17.44,1
3868,57.57,4.44,-22.42,1
3869,57.59,15.52,-22.63,1
3870,57.6,14.09,-22.65,1
3871,57.61,1.11,-10.32,1
3872,57.63,-0.85,-5.41,1
3873,57.64,9.34,-4.89,1
3874,57.65,10.03,17.87,1
3875,57.67,2.23,26.12,1
3876,57.68,8.2,-9.19,1
3877,57.69,22.84,-6.01,1
3878,57.71,13.03,-11.09,1
3879,57.72,23.93,-14.3,1
3880,57.73,13.85,-2.25,1
3881,57.75,0.67,2.51,1
3882,57.76,18.43,0.4,1
3883,57.77,8.94,-16.32,1
3884,57.79,19.67,-7.27,1
3885,57.8,7.91,11.2,1
3886,57.81,-5.55,-5.48,1
3887,57.83,-8.87,-15.04,1
3888,57.84,3.76,-11.66,1
3889,57.85,7.92,-1.31,1
3890,57.87,-6.62,3.2,1
3891,57.88,3.36,9.15,1
3892,57.89,13.13,15.51,1
3893,57.9,4.43,2.53,1
3894,57.92,3.51,-3.1,1
3895,57.93,5.22,-7.61,1
3896,57.95,10.41,1.51,1
3897,57.96,-5.81,-5.77,1
3898,57.97,-12.7,17.59,1
3899,57.99,11.31,8.57,1
3900,58.0,-0.92,9.32,1
3901,58.01,-4.54,4.16,1
3902,58.03,2.14,0.31,1
3903,58.04,-5.9,1.54,1
3904,58.05,10.61,-0.44,1
3905,58.06,14.95,-0.69,1
3906,58.08,-16.06,8.15,1
3907,58.09,2.42,-7.14,1
3908,58.11,-7.12,11.82,1
3909,58.12,8.27,14.41,1
3910,58.13,-13.64,17.77,1
3911,58.15,-0.08,6.76,1
3912,58.16,29.33,8.39,0
3913,58.17,-7.52,0.69,0
3914,58.19,10.83,5.23,0
3915,58.2,-5.63,-20.92,0
3916,58.21,-8.9,-4.11,0
3917,58.22,4.04,-19.14,0
3918,58.24,-8.33,-11.77,0
3919,58.25,-0.86,4.19,0
3920,58.27,5.37,8.61,0
3921,58.28,3.82,-9.19,0
3922,58.29,4.45,-17.65,0
3923,58.31,0.25,0.36,0
3924,58.32,-4.58,5.41,0
3925,58.33,-1.2,-22.73,0
3926,58.35,-8.86,30.44,0
3927,58.36,7.28,48.51,0
3928,58.37,14.36,24.99,0
3929,58.38,-72.68,7.97,0
3930,58.4,-88.24,8.83,0
3931,58.41,-107.42,-3.14,0
3932,58.43,-125.24,-28.01,0
3933,58.44,-126.78,1.47,0
3934,58.45,-100.65,-38.82,0
3935,58.47,-81.16,-9.36,0
3936,58.48,-57.66,-13.64,0
3937,58.49,-29.77,-29.53,0
3938,58.51,7.83,-13.68,0
3939,58.52,51.37,10.36,0
3940,58.53,103.03,-7.78,0
3941,58.54,158.49,7.14,0
3942,58.56,175.27,24.64,1
3943,58.57,179.23,26.69,1
3944,58.59,180.3,36.62,1
3945,58.6,145.18,41.28,1
3946,58.61,148.84,14.47,1
3947,58.63,111.63,15.81,1
3948,58.64,106.38,-15.32,1
3949,58.65,67.36,-3.39,1
3950,58.66,56.17,-0.76,1
3951,58.68,26.71,-9.79,1
3952,58.69,17.31,-27.12,1
3953,58.71,3.08,-20.78,1
3954,58.72,-6.09,-13.13,1
3955,58.73,-9.81,-16.08,1
3956,58.75,-34.33,-26.71,1
3957,58.76,-36.65,-60.2,1
3958,58.77,-64.31,-48.8,1
3959,58.79,-62.07,-7.2,1
3960,58.8,-55.78,7.26,1
3961,58.81,-63.2,3.43,1
3962,58.83,-66.2,-1.77,1
3963,58.84,-78.88,6.79,1
3964,58.85,-61.14,8.37,1
3965,58.87,-66.87,53.77,1
3966,58.88,-75.81,30.92,1
3967,58.89,-49.88,10.41,1
3968,58.9,-84.56,20.66,1
3969,58.92,-55.78,31.45,1
3970,58.93,-60.27,10.02,1
3971,58.95,-41.91,11.98,1
3972,58.96,-53.22,15.56,1
3973,58.97,-31.18,1.05,1
3974,58.99,-42.26,-9.67,1
3975,59.0,-26.28,5.12,1
3976,59.01,-27.58,26.55,1
3977,59.03,-15.81,-18.72,1
3978,59.04,-26.63,-10.14,1
3979,59.05,-20.35,-2.52,1
3980,59.06,-0.84,-1.04,1
3981,59.08,0.95,-8.06,1
3982,59.09,-10.76,7.05,1
3983,59.11,19.1,-12.91,1
3984,59.12,-10.1,3.53,1
3985,59.13,12.69,12.1,1
3986,59.15,4.83,6.06,1
3987,59.16,19.77,-5.81,1
3988,59.17,23.34,-14.33,1
3989,59.19,23.88,15.46,1
3990,59.2,16.14,11.28,1
3991,59.21,26.16,-0.98,1
3992,59.22,25.14,-13.97,1
3993,59.24,26.58,-8.0,1
3994,59.25,7.88,-20.4,1
3995,59.27,8.5,-27.53,1
3996,59.28,20.61,-30.96,1
3997,59.29,23.63,-25.23,1
3998,59.3,22.0,-6.17,1
3999,59.32,21.91,-1.84,1
4000,59.33,19.49,-21.05,1
4001,59.35,18.21,-0.72,1
4002,59.36,17.95,3.97,1
4003,59.37,16.2,-11.22,1
4004,59.38,13.51,-3.41,1
4005,59.4,29.07,-5.44,1
4006,59.41,26.36,3.07,1
4007,59.43,14.89,-24.33,1
4008,59.44,12.04,-17.68,1
4009,59.45,21.81,-2.07,1
4010,59.47,4.4,-1.56,1
4011,59.48,10.67,-1.27,1
4012,59.49,16.72,-1.21,1
4013,59.51,18.08,8.48,1
4014,59.52,6.94,10.83,1
4015,59.53,-0.88,8.43,1
4016,59.54,5.1,33.43,1
4017,59.56,-4.32,8.85,1
4018,59.57,5.42,23.26,1
4019,59.59,13.0,22.19,1
4020,59.6,8.45,26.75,1
4021,59.61,-10.34,28.24,1
4022,59.63,2.22,18.13,1
4023,59.64,-2.92,7.14,1
4024,59.65,8.63,-0.5,1
4025,59.67,-2.34,13.44,1
4026,59.68,1.82,9.07,1
4027,59.69,-0.85,-5.32,1
4028,59.71,-17.73,2.77,1
4029,59.72,-0.4,11.7,1
4030,59.73,1.86,-11.98,1
4031,59.75,-7.73,7.01,1
4032,59.76,-9.53,-12.68,1
4033,59.77,-3.87,-2.58,1
4034,59.79,-7.48,0.05,1
4035,59.8,-17.17,-7.4,1
4036,59.81,-12.71,-5.51,1
4037,59.83,-2.94,-5.08,1
4038,59.84,-4.75,14.06,1
4039,59.85,-2.96,11.11,1
4040,59.87,-13.33,-0.41,1
4041,59.88,-18.69,-0.58,1
4042,59.89,-3.67,-12.05,1
4043,59.9,-3.95,-4.57,1
4044,59.92,8.11,-4.48,1
4045,59.93,-6.29,-14.53,1
4046,59.94,-8.14,-5.05,1
4047,59.96,-4.18,-18.47,1
4048,59.97,-9.16,-1.13,1
4049,59.985,0.61,19.21,1
4050,60.0,10.15,-19.52,1
4051,60.01,-3.02,-8.9,1
4052,60.03,1.94,2.63,1
4053,60.04,-4.08,-3.36,1
4054,60.05,-4.0,0.35,1
4055,60.06,-2.75,-10.23,1
4056,60.08,-22.25,8.78,1
4057,60.09,-20.91,-5.48,1
4058,60.11,-7.14,-9.16,1
4059,60.12,-16.62,-6.29,1
4060,60.13,2.72,4.17,1
4061,60.15,24.66,0.27,1
4062,60.16,8.35,-5.2,0
4063,60.17,20.37,26.34,0
4064,60.19,16.6,-15.02,0
4065,60.2,-15.66,-10.72,0
4066,60.21,6.19,12.83,0
4067,60.22,1.28,-2.73,0
4068,60.24,-1.54,4.0,0
4069,60.25,-0.6,-24.48,0
4070,60.27,-33.08,21.08,0
4071,60.28,-50.63,6.95,0
4072,60.29,-115.01,26.28,0
4073,60.31,-156.09,-5.04,0
4074,60.32,-128.24,-47.51,0
4075,60.33,-90.39,-64.87,0
4076,60.35,-53.53,-46.25,0
4077,60.36,-8.17,-5.1,0
4078,60.37,33.98,13.32,0
4079,60.38,72.92,3.29,0
4080,60.4,81.23,-29.05,0
4081,60.41,81.86,14.21,0
4082,60.43,110.31,23.63,0
4083,60.44,114.48,8.99,0
4084,60.45,137.73,25.23,0
4085,60.47,139.65,30.57,0
4086,60.48,129.73,8.85,0
4087,60.49,108.78,48.72,0
4088,60.51,100.65,2.77,0
4089,60.52,80.53,32.01,0
4090,60.53,49.27,14.18,0
4091,60.54,33.48,31.03,0
4092,60.56,35.48,12.04,1
4093,60.57,18.13,33.43,1
4094,60.58,7.03,20.32,1
4095,60.6,3.09,-12.15,1
4096,60.61,-15.09,-21.37,1
4097,60.62,-16.56,-3.87,1
4098,60.64,-20.15,7.56,1
4099,60.65,-27.12,-1.72,1
4100,60.67,-43.42,-29.93,1
4101,60.68,-50.41,0.56,1
4102,60.69,-58.43,9.36,1
4103,60.71,-59.42,-15.76,1
4104,60.72,-48.17,-8.3,1
4105,60.73,-44.43,-11.85,1
4106,60.75,-48.78,-18.62,1
4107,60.76,-61.0,8.43,1
4108,60.77,-62.0,-15.07,1
4109,60.79,-52.6,22.98,1
4110,60.8,-60.7,20.15,1
4111,60.81,-65.53,13.91,1
4112,60.83,-68.38,3.69,1
4113,60.84,-57.96,3.0,1
4114,60.85,-64.27,-8.62,1
4115,60.87,-34.54,-27.61,1
4116,60.88,-25.46,-26.87,1
4117,60.89,-34.9,-17.05,1
4118,60.9,-10.55,-14.21,1
4119,60.92,-11.02,-22.07,1
4120,60.93,-10.22,-12.11,1
4121,60.95,-10.83,-19.19,1
4122,60.96,-10.79,-17.2,1
4123,60.97,-1.84,-38.77,1
4124,60.99,7.07,-3.12,1
4125,61.0,24.14,-10.0,1
4126,61.01,13.36,-19.34,1
4127,61.03,3.83,10.67,1
4128,61.04,-9.6,23.08,1
4129,61.05,12.27,-1.49,1
4130,61.06,20.07,2.61,1
4131,61.08,-8.27,3.8,1
4132,61.09,-0.39,2.41,1
4133,61.11,4.97,-25.63,1
4134,61.12,23.24,7.83,1
4135,61.13,24.86,0.06,1
4136,61.15,30.1,5.78,1
4137,61.16,30.24,26.29,1
4138,61.17,38.95,20.66,1
4139,61.19,18.16,28.71,1
4140,61.2,20.17,3.86,1
4141,61.21,16.75,2.17,1
4142,61.22,23.13,29.12,1
4143,61.24,9.65,9.46,1
4144,61.25,13.45,-4.52,1
4145,61.26,21.22,7.16,1
4146,61.28,16.12,-7.23,1
4147,61.29,22.54,-6.97,1
4148,61.31,3.95,4.19,1
4149,61.32,2.07,4.47,1
4150,61.33,16.79,-9.93,1
4151,61.35,19.23,3.87,1
4152,61.36,27.44,12.43,1
4153,61.37,6.5,7.83,1
4154,61.38,9.96,-32.32,1
4155,61.4,8.98,-5.88,1
4156,61.41,8.74,1.45,1
4157,61.43,3.48,-5.03,1
4158,61.44,7.04,-6.23,1
4159,61.45,13.97,3.64,1
4160,61.47,14.4,10.86,1
4161,61.48,14.52,4.92,1
4162,61.49,6.41,2.68,1
4163,61.51,-5.76,14.11,1
4164,61.52,4.15,14.07,1
4165,61.53,7.61,7.03,1
4166,61.54,-3.18,16.03,1
4167,61.56,-18.97,-11.08,1
4168,61.57,-8.99,5.28,1
4169,61.59,-14.74,12.74,1
4170,61.6,-0.25,4.16,1
4171,61.61,-13.65,-2.62,1
4172,61.63,-6.82,13.18,1
4173,61.64,-10.31,-4.77,1
4174,61.65,-6.39,-3.29,1
4175,61.67,-3.56,-19.9,1
4176,61.68,-8.34,-19.41,1
4177,61.69,-6.38,-13.52,1
4178,61.71,2.57,-0.51,1
4179,61.72,-11.22,0.65,1
4180,61.73,-6.33,5.48,1
4181,61.75,-0.44,-4.95,1
4182,61.76,2.95,8.25,1
4183,61.77,-16.99,33.87,1
4184,61.79,10.49,17.25,1
4185,61.8,-2.45,-9.52,1
4186,61.81,-12.55,2.18,1
4187,61.83,-3.26,-10.45,1
4188,61.84,-18.96,20.3,1
4189,61.85,-12.39,5.83,1
4190,61.86,-6.53,8.11,1
4191,61.88,-15.9,-3.92,1
4192,61.89,-3.82,-12.82,1
4193,61.9,17.11,8.73,1
4194,61.92,2.79,-20.85,1
4195,61.93,9.94,-3.26,1
4196,61.95,1.64,-14.29,1
4197,61.96,-1.91,-24.44,1
4198,61.97,-9.09,-25.98,1
4199,61.99,-13.02,-9.7,1
4200,62.0,-4.35,-1.15,1
4201,62.01,-7.45,-26.53,1
4202,62.03,-0.25,-26.55,1
4203,62.04,6.04,-0.59,1
4204,62.05,-0.34,19.76,1
4205,62.06,-5.4,7.76,1
4206,62.08,-20.33,-3.12,1
4207,62.09,-0.72,-5.09,1
4208,62.11,9.81,3.85,1
4209,62.12,1.82,24.4,1
4210,62.13,11.1,0.39,1
4211,62.15,-8.43,-23.85,1
4212,62.16,0.93,-9.64,2
4213,62.17,10.27,5.7,2
4214,62.19,4.36,5.93,2
4215,62.2,10.89,-17.98,2
4216,62.21,5.95,-11.36,2
4217,62.22,-11.62,9.8,2
4218,62.24,2.9,6.75,2
4219,62.25,13.02,-9.69,2
4220,62.27,0.27,0.61,2
4221,62.28,83.58,28.67,2
4222,62.29,73.23,12.99,2
4223,62.31,83.53,37.9,2
4224,62.32,102.48,6.32,2
4225,62.33,132.63,13.06,2
4226,62.35,120.86,-12.88,2
4227,62.36,88.44,-8.39,2
4228,62.37,77.48,-9.39,2
4229,62.38,28.96,4.3,2
4230,62.4,-6.52,-32.38,2
4231,62.41,-41.99,-8.12,2
4232,62.43,-53.0,-5.83,2
4233,62.44,-113.04,-14.1,2
4234,62.45,-181.74,1.95,2
4235,62.47,-207.27,-16.36,2
4236,62.48,-223.68,-4.51,2
4237,62.49,-208.26,-9.02,2
4238,62.5,-188.81,6.06,2
4239,62.52,-146.35,-0.88,2
4240,62.53,-114.27,8.74,2
4241,62.54,-95.64,39.26,2
4242,62.56,-79.54,33.86,1
4243,62.57,-69.57,24.42,1
4244,62.58,-52.34,47.59,1
4245,62.6,-11.61,75.94,1
4246,62.61,-7.29,42.82,1
4247,62.63,23.05,11.7,1
4248,62.64,47.79,13.33,1
4249,62.65,47.69,-19.66,1
4250,62.67,49.37,-21.67,1
4251,62.68,71.83,-31.45,1
4252,62.69,83.26,-12.54,1
4253,62.71,84.39,-23.88,1
4254,62.72,88.27,-17.67,1
4255,62.73,103.1,-16.2,1
4256,62.75,73.4,-16.23,1
4257,62.76,80.12,-40.72,1
4258,62.77,94.54,-34.29,1
4259,62.79,86.18,-24.68,1
4260,62.8,83.04,-40.57,1
4261,62.81,53.1,-18.79,1
4262,62.83,68.32,-1.09,1
4263,62.84,56.56,2.46,1
4264,62.85,53.23,-4.58,1
4265,62.87,57.15,11.75,1
4266,62.88,48.32,13.14,1
4267,62.89,45.42,6.11,1
4268,62.9,33.45,4.82,1
4269,62.92,36.53,2.6,1
4270,62.93,20.53,18.19,1
4271,62.95,19.32,12.48,1
4272,62.96,8.96,-1.4,1
4273,62.97,16.08,21.38,1
4274,62.99,7.1,20.99,1
4275,63.0,-0.55,2.57,1
4276,63.01,-7.51,-0.55,1
4277,63.03,-4.08,5.5,1
4278,63.04,-14.84,11.73,1
4279,63.05,-24.39,-11.92,1
4280,63.06,-16.67,-15.52,1
4281,63.08,-10.91,-6.97,1
4282,63.09,-10.43,-11.73,1
4283,63.11,-14.9,26.13,1
4284,63.12,-17.17,6.55,1
4285,63.13,-20.92,9.62,1
4286,63.14,-19.83,-3.37,1
4287,63.16,-29.95,-27.28,1
4288,63.17,-36.04,13.04,1
4289,63.18,-21.2,12.4,1
4290,63.2,-41.28,21.04,1
4291,63.21,-23.65,2.91,1
4292,63.22,-45.9,11.61,1
4293,63.24,-32.58,6.29,1
4294,63.25,-30.96,-15.89,1
4295,63.27,-36.53,-15.63,1
4296,63.28,-12.92,-7.54,1
4297,63.29,-31.94,10.98,1
4298,63.31,-31.18,17.54,1
4299,63.32,-15.31,-14.99,1
4300,63.33,-31.85,-28.2,1
4301,63.35,-14.82,-2.59,1
4302,63.36,-25.82,1.1,1
4303,63.37,-33.89,-22.22,1
4304,63.38,-23.59,-19.04,1
4305,63.4,-19.17,15.1,1
4306,63.41,-9.05,14.85,1
4307,63.43,-3.7,9.51,1
4308,63.44,-10.33,-4.48,1
4309,63.45,-9.94,-30.74,1
4310,63.47,-14.4,-11.38,1
4311,63.48,-0.71,28.26,1
4312,63.49,1.33,-9.33,1
4313,63.51,17.13,21.39,1
4314,63.52,5.23,-11.01,1
4315,63.53,-0.93,-7.27,1
4316,63.54,19.6,12.24,1
4317,63.56,10.68,6.74,1
4318,63.57,18.03,-2.35,1
4319,63.59,5.71,8.78,1
4320,63.6,0.94,22.0,1
4321,63.61,10.48,-10.84,1
4322,63.63,-7.34,-2.56,1
4323,63.64,8.38,3.92,1
4324,63.65,14.68,-8.93,1
4325,63.67,28.98,14.98,1
4326,63.68,13.04,-1.49,1
4327,63.69,-1.69,15.4,1
4328,63.71,-1.01,6.43,1
4329,63.72,9.3,-34.16,1
4330,63.73,20.63,-7.66,1
4331,63.75,15.95,20.3,1
4332,63.76,7.13,20.52,1
4333,63.77,-3.78,2.74,1
4334,63.78,3.55,-10.17,1
4335,63.8,-2.36,16.87,1
4336,63.81,4.24,-12.28,1
4337,63.82,2.08,-18.93,1
4338,63.84,3.62,4.21,1
4339,63.85,3.44,2.82,1
4340,63.86,8.75,-6.48,1
4341,63.88,7.32,-11.37,1
4342,63.89,15.63,-41.54,1
4343,63.9,15.97,-28.74,1
4344,63.92,7.83,8.59,1
4345,63.93,17.21,6.6,1
4346,63.95,-4.88,-8.4,1
4347,63.96,4.75,-12.28,1
4348,63.97,-5.11,19.17,1
4349,63.99,1.9,14.04,1
4350,64.0,2.55,4.82,1
4351,64.01,9.84,-13.56,1
4352,64.02,5.53,6.02,1
4353,64.04,-6.46,-20.62,1
4354,64.05,-2.19,2.42,1
4355,64.06,-3.72,31.13,1
4356,64.08,-1.63,20.44,1
4357,64.09,-16.12,0.2,1
4358,64.11,-14.72,8.56,1
4359,64.12,-12.85,1.87,1
4360,64.13,-10.96,35.4,1
4361,64.14,3.68,32.46,1
4362,64.16,2.59,31.28,1
4363,64.17,13.88,117.05,1
4364,64.18,16.37,112.87,1
4365,64.2,-2.54,194.11,1
4366,64.21,-8.6,342.35,1
4367,64.22,21.64,-81.27,1
4368,64.24,23.11,-289.41,1
4369,64.25,11.04,65.28,1
4370,64.26,78.24,-192.07,1
4371,64.28,223.93,240.0,1
4372,64.29,121.06,-85.97,1
4373,64.3,-79.59,254.57,1
4374,64.32,101.09,-37.18,1
4375,64.33,201.83,-63.98,1
4376,64.34,103.59,12.21,1
4377,64.36,-105.77,-229.68,1
4378,64.37,121.13,-203.86,1
4379,64.38,-77.88,-298.49,1
4380,64.4,-225.9,-56.13,1
4381,64.41,-408.5,-257.27,1
4382,64.42,-104.85,-117.19,1
4383,64.44,-232.33,-142.56,1
4384,64.45,-30.67,-28.96,1
4385,64.46,-130.08,-277.58,1
4386,64.48,-113.09,-350.3,1
4387,64.49,-146.53,-155.76,1
4388,64.5,74.23,-218.8,1
4389,64.52,0.53,514.47,1
4390,64.53,-80.3,83.42,1
4391,64.54,-35.44,375.51,1
4392,64.56,-177.69,78.84,1
4393,64.57,-191.33,4.37,1
4394,64.58,59.5,83.52,1
4395,64.6,226.99,203.04,1
4396,64.61,-129.26,-90.6,1
4397,64.62,27.47,-130.27,1
4398,64.64,191.96,237.01,1
4399,64.65,25.27,53.4,1
4400,64.66,-18.53,-9.17,1
4401,64.68,152.11,154.7,1
4402,64.69,135.51,-204.09,1
4403,64.7,108.3,236.06,1
4404,64.72,-1.46,-407.84,1
4405,64.73,154.28,-165.49,1
4406,64.75,-36.36,-10.02,1
4407,64.76,83.18,440.58,1
4408,64.77,-129.56,-155.93,1
4409,64.79,-101.25,57.93,1
4410,64.8,-83.77,225.96,1
4411,64.81,87.65,120.79,1
4412,64.82,58.99,45.49,1
4413,64.84,78.82,-111.98,1
4414,64.85,225.82,117.78,1
4415,64.86,109.49,115.34,1
4416,64.88,-224.16,15.15,1
4417,64.89,134.8,-130.66,1
4418,64.9,60.84,7.65,1
4419,64.92,210.49,31.25,1
4420,64.93,31.42,-7.98,1
4421,64.94,116.1,-78.66,1
4422,64.96,101.41,138.7,1
4423,64.97,86.58,-120.63,1
4424,64.98,3.95,-103.47,1
4425,65.0,86.43,-167.74,1
4426,65.01,0.62,120.31,1
4427,65.02,-38.52,-86.17,1
4428,65.04,-56.06,72.1,1
4429,65.05,-67.02,16.76,1
4430,65.06,-179.46,28.8,1
4431,65.08,-196.3,56.45,1
4432,65.09,-164.64,65.79,1
4433,65.1,-93.24,18.83,1
4434,65.12,-39.28,66.14,1
4435,65.13,-11.74,105.53,1
4436,65.14,3.34,105.93,1
4437,65.16,28.04,107.24,1
4438,65.17,24.31,117.65,1
4439,65.18,52.79,121.29,1
4440,65.2,78.96,113.21,1
4441,65.21,98.21,153.16,1
4442,65.22,63.65,101.02,1
4443,65.24,49.34,79.38,1
4444,65.25,37.45,90.76,1
4445,65.26,37.4,22.57,1
4446,65.28,-12.88,-17.16,1
4447,65.29,-0.9,-36.74,1
4448,65.3,1.94,-46.16,1
4449,65.32,-8.91,-74.79,1
4450,65.33,-32.73,-91.01,1
4451,65.34,-20.06,-74.95,1
4452,65.36,-15.84,-94.84,1
4453,65.37,-27.93,-82.07,1
4454,65.38,-45.46,-102.87,1
4455,65.4,-28.83,-111.65,1
4456,65.41,-31.1,-113.66,1
4457,65.43,-45.47,-97.21,1
4458,65.44,-31.66,-108.25,1
4459,65.45,-26.25,-112.81,1
4460,65.46,-46.01,-107.26,1
4461,65.48,-27.25,-91.91,1
4462,65.49,-45.0,-98.58,1
4463,65.5,-46.21,-103.2,1
4464,65.52,-53.01,-114.78,1
4465,65.53,-42.58,-78.14,1
4466,65.54,-40.51,-69.99,1
4467,65.56,-29.59,-69.51,1
4468,65.57,-40.0,-50.99,1
4469,65.58,-14.73,-18.04,1
4470,65.6,-21.29,-37.59,1
4471,65.61,-22.64,-7.48,1
4472,65.62,-11.28,-3.14,1
4473,65.64,-19.71,-25.72,1
4474,65.65,-7.52,7.9,1
4475,65.66,-14.77,11.39,1
4476,65.68,-5.94,-0.5,1
4477,65.69,-8.96,13.06,1
4478,65.7,-6.24,39.28,1
4479,65.72,13.29,18.88,1
4480,65.73,9.29,17.21,1
4481,65.74,15.68,16.5,1
4482,65.76,15.28,36.19,1
4483,65.77,2.99,42.18,1
4484,65.78,27.99,13.25,1
4485,65.8,26.43,23.9,1
4486,65.81,6.33,61.43,1
4487,65.82,5.76,48.74,1
4488,65.84,27.39,36.18,1
4489,65.85,8.63,53.25,1
4490,65.86,17.17,45.19,1
4491,65.88,17.02,41.22,1
4492,65.89,25.04,20.9,1
4493,65.9,24.26,42.91,1
4494,65.92,23.66,55.66,1
4495,65.93,31.24,45.96,1
4496,65.94,34.63,38.7,1
4497,65.96,28.4,39.66,1
4498,65.97,21.85,46.0,1
4499,65.98,16.71,38.27,1
4500,66.0,23.79,26.89,1
4501,66.01,5.78,20.74,1
4502,66.02,-0.29,43.45,1
4503,66.04,23.0,6.84,1
4504,66.05,19.44,14.46,1
4505,66.06,2.58,15.3,1
4506,66.08,-2.16,4.56,1
4507,66.09,2.85,7.98,1
4508,66.11,11.36,10.68,1
4509,66.12,-4.86,-0.28,1
4510,66.13,10.97,4.61,1
4511,66.14,23.55,-7.13,1
4512,66.16,8.57,-14.49,2
4513,66.17,9.25,16.13,2
4514,66.18,18.17,12.67,2
4515,66.2,5.37,0.11,2
4516,66.21,7.62,13.51,2
4517,66.22,-0.2,-24.26,2
4518,66.24,4.14,-26.89,2
4519,66.25,4.03,-26.7,2
4520,66.26,-10.02,-32.42,2
4521,66.28,51.67,-25.79,2
4522,66.29,113.44,-83.28,2
4523,66.3,117.98,-49.91,2
4524,66.32,125.86,-47.45,2
4525,66.33,84.62,-27.28,2
4526,66.34,56.45,-21.77,2
4527,66.36,-4.2,-6.47,2
4528,66.37,-25.99,8.47,2
4529,66.38,-72.61,32.39,2
4530,66.4,-94.2,21.43,2
4531,66.41,-122.11,16.27,2
4532,66.42,-115.02,34.05,2
4533,66.44,-129.63,50.22,2
4534,66.45,-125.03,46.23,2
4535,66.46,-105.5,36.26,2
4536,66.48,-104.91,13.91,2
4537,66.49,-91.25,11.6,2
4538,66.5,-83.76,12.08,2
4539,66.52,-73.12,9.39,2
4540,66.53,-58.84,13.55,2
4541,66.54,-42.65,30.52,2
4542,66.56,-45.47,11.04,1
4543,66.57,-28.07,12.68,1
4544,66.58,-10.56,16.96,1
4545,66.6,1.48,-22.16,1
4546,66.61,-3.7,-14.23,1
4547,66.62,17.1,-6.8,1
4548,66.64,26.94,-19.73,1
4549,66.65,32.52,-23.63,1
4550,66.66,40.42,-23.46,1
4551,66.68,38.32,-31.72,1
4552,66.69,51.26,-25.6,1
4553,66.7,37.74,-45.29,1
4554,66.72,46.92,-28.59,1
4555,66.73,39.94,-18.92,1
4556,66.75,42.97,-4.64,1
4557,66.76,49.86,-18.1,1
4558,66.77,58.66,-23.87,1
4559,66.79,51.18,-33.86,1
4560,66.8,60.24,-26.99,1
4561,66.81,43.19,-35.12,1
4562,66.82,35.88,-17.12,1
4563,66.84,34.05,-8.33,1
4564,66.85,45.15,-29.85,1
4565,66.86,38.31,-21.06,1
4566,66.88,28.47,-11.3,1
4567,66.89,21.25,-19.2,1
4568,66.9,6.19,-20.06,1
4569,66.92,26.22,-27.54,1
4570,66.93,26.04,0.75,1
4571,66.94,-4.02,-4.4,1
4572,66.96,14.45,-14.17,1
4573,66.97,10.67,3.95,1
4574,66.98,10.99,-3.47,1
4575,67.0,-23.74,7.44,1
4576,67.01,5.37,-7.15,1
4577,67.02,0.51,14.38,1
4578,67.04,-9.14,15.97,1
4579,67.05,2.67,32.48,1
4580,67.06,-3.65,20.79,1
4581,67.08,-15.92,45.5,1
4582,67.09,11.89,42.84,1
4583,67.1,-10.37,19.15,1
4584,67.12,-11.31,-2.46,1
4585,67.13,-23.76,41.83,1
4586,67.14,-12.18,46.66,1
4587,67.16,-15.68,23.49,1
4588,67.17,-14.38,19.71,1
4589,67.18,-10.53,25.31,1
4590,67.2,-8.19,39.05,1
4591,67.21,-22.98,7.58,1
4592,67.22,-0.8,-5.69,1
4593,67.24,-1.63,11.37,1
4594,67.25,2.03,10.93,1
4595,67.26,-36.71,8.21,1
4596,67.28,-23.29,9.74,1
4597,67.29,-27.19,8.41,1
4598,67.3,-26.61,13.9,1
4599,67.32,-11.77,2.92,1
4600,67.33,-14.15,7.5,1
4601,67.34,-25.29,-2.45,1
4602,67.36,-22.25,7.63,1
4603,67.37,-18.88,0.99,1
4604,67.38,-12.78,-0.93,1
4605,67.4,1.04,-12.09,1
4606,67.41,-6.78,-11.05,1
4607,67.43,-2.61,5.37,1
4608,67.44,-16.72,-5.7,1
4609,67.45,-11.75,-9.41,1
4610,67.46,-19.52,-6.52,1
4611,67.48,-3.65,-14.09,1
4612,67.49,-6.67,-13.18,1
4613,67.5,8.16,-4.14,1
4614,67.52,12.27,-12.59,1
4615,67.53,-0.32,-10.16,1
4616,67.54,-7.23,0.21,1
4617,67.56,-4.09,-12.03,1
4618,67.57,1.26,-21.75,1
4619,67.58,-3.47,4.54,1
4620,67.6,-0.35,-3.0,1
4621,67.61,9.5,-11.72,1
4622,67.62,7.26,4.09,1
4623,67.64,2.94,15.94,1
4624,67.65,9.09,-21.69,1
4625,67.66,13.82,-18.79,1
4626,67.68,6.95,-18.41,1
4627,67.69,12.5,3.65,1
4628,67.7,-8.26,3.53,1
4629,67.72,12.11,-21.2,1
4630,67.73,3.29,-18.29,1
4631,67.74,22.71,-0.92,1
4632,67.76,14.1,2.84,1
4633,67.77,7.01,-11.64,1
4634,67.79,14.93,7.35,1
4635,67.8,16.59,-0.97,1
4636,67.81,1.57,5.19,1
4637,67.82,10.82,-10.97,1
4638,67.84,6.67,-1.93,1
4639,67.85,13.1,-5.81,1
4640,67.86,1.26,22.62,1
4641,67.88,-14.96,-3.42,1
4642,67.89,2.19,-2.24,1
4643,67.9,8.0,-6.23,1
4644,67.92,-0.2,-8.87,1
4645,67.93,-8.9,-9.88,1
4646,67.94,-0.71,7.97,1
4647,67.96,-0.3,14.58,1
4648,67.97,6.95,-6.84,1
4649,67.98,-9.9,5.42,1
4650,68.0,-3.77,13.76,1
4651,68.01,9.77,-9.65,1
4652,68.02,7.31,-7.88,1
4653,68.04,-0.34,-1.31,1
4654,68.05,10.14,14.28,1
4655,68.06,-18.24,-8.25,1
4656,68.08,-8.93,8.66,1
4657,68.09,-0.38,11.33,1
4658,68.11,-11.49,16.66,1
4659,68.12,-23.57,-0.12,1
4660,68.13,9.54,2.3,1
4661,68.14,-12.21,16.64,1
4662,68.16,14.42,15.04,0
4663,68.17,2.66,-4.85,0
4664,68.18,6.94,-5.41,0
4665,68.2,6.8,-11.16,0
4666,68.21,-2.37,5.82,0
4667,68.22,-7.43,24.15,0
4668,68.24,11.38,-13.27,0
4669,68.25,6.38,6.75,0
4670,68.26,9.06,27.94,0
4671,68.28,-3.02,2.99,0
4672,68.29,22.0,1.82,0
4673,68.3,27.7,19.22,0
4674,68.32,-66.7,10.1,0
4675,68.33,-101.45,4.31,0
4676,68.34,-143.08,-5.44,0
4677,68.36,-146.96,-33.27,0
4678,68.37,-137.72,-50.51,0
4679,68.38,-102.87,-42.88,0
4680,68.4,-86.8,-39.89,0
4681,68.41,-52.82,-34.79,0
4682,68.42,5.84,-26.61,0
4683,68.44,26.83,-13.66,0
4684,68.45,91.46,11.43,0
4685,68.46,157.64,26.35,0
4686,68.48,181.09,2.9,0
4687,68.49,197.45,24.94,0
4688,68.5,189.44,40.46,0
4689,68.52,177.35,40.5,0
4690,68.53,148.51,27.54,0
4691,68.54,125.09,25.34,0
4692,68.56,98.29,31.94,1
4693,68.57,81.68,30.38,1
4694,68.58,70.46,11.64,1
4695,68.6,43.6,8.37,1
4696,68.61,26.33,9.89,1
4697,68.62,2.18,18.0,1
4698,68.64,-12.55,14.99,1
4699,68.65,-21.73,-11.72,1
4700,68.66,-40.4,-12.31,1
4701,68.68,-41.9,-33.18,1
4702,68.69,-52.78,-35.21,1
4703,68.7,-60.67,-19.35,1
4704,68.72,-57.58,-12.49,1
4705,68.73,-63.0,-27.73,1
4706,68.75,-77.21,-30.88,1
4707,68.76,-91.65,-21.22,1
4708,68.77,-75.88,-7.89,1
4709,68.79,-67.74,-6.72,1
4710,68.8,-65.48,-16.68,1
4711,68.81,-65.77,-10.31,1
4712,68.82,-69.78,-10.88,1
4713,68.84,-61.53,-11.87,1
4714,68.85,-49.59,0.48,1
4715,68.86,-48.18,0.72,1
4716,68.88,-45.84,16.63,1
4717,68.89,-43.22,23.79,1
4718,68.9,-42.83,11.38,1
4719,68.92,-26.69,19.62,1
4720,68.93,-29.22,3.13,1
4721,68.94,-18.38,-0.84,1
4722,68.96,-29.02,-2.77,1
4723,68.97,-10.32,6.12,1
4724,68.98,-9.07,10.5,1
4725,69.0,-1.12,5.75,1
4726,69.01,7.12,8.94,1
4727,69.02,-9.31,18.79,1
4728,69.04,-11.72,3.76,1
4729,69.05,-14.88,1.15,1
4730,69.06,10.8,1.52,1
4731,69.08,18.66,-2.16,1
4732,69.09,19.88,-6.09,1
4733,69.11,16.72,8.94,1
4734,69.12,15.21,10.26,1
4735,69.13,17.3,-4.93,1
4736,69.14,21.41,-10.23,1
4737,69.16,45.24,9.68,1
4738,69.17,23.73,14.13,1
4739,69.18,15.57,5.21,1
4740,69.2,22.59,-2.35,1
4741,69.21,13.71,-13.84,1
4742,69.22,22.77,-6.33,1
4743,69.24,30.42,1.44,1
4744,69.25,20.85,-7.18,1
4745,69.26,25.67,-9.29,1
4746,69.28,16.46,6.12,1
4747,69.29,21.77,19.39,1
4748,69.3,24.51,-3.13,1
4749,69.32,28.9,-20.27,1
4750,69.33,33.48,5.99,1
4751,69.34,24.46,8.59,1
4752,69.36,5.83,-18.17,1
4753,69.37,14.69,-20.02,1
4754,69.38,16.54,-16.07,1
4755,69.4,15.52,-7.32,1
4756,69.41,13.88,-11.47,1
4757,69.43,19.15,-5.49,1
4758,69.44,24.14,-19.57,1
4759,69.45,3.64,-5.2,1
4760,69.46,16.35,-24.32,1
4761,69.48,-1.05,-5.88,1
4762,69.49,10.0,26.8,1
4763,69.5,-5.8,7.35,1
4764,69.52,-6.97,-7.22,1
4765,69.53,5.75,22.34,1
4766,69.54,13.71,29.97,1
4767,69.56,-4.46,8.55,1
4768,69.57,0.18,11.2,1
4769,69.58,-9.65,-0.02,1
4770,69.6,-18.6,-8.49,1
4771,69.61,-19.36,-7.66,1
4772,69.62,-8.03,-8.95,1
4773,69.64,4.57,4.69,1
4774,69.65,-7.59,9.37,1
4775,69.66,-14.31,10.48,1
4776,69.68,-23.18,1.95,1
4777,69.69,-8.62,-5.96,1
4778,69.7,-11.38,0.92,1
4779,69.72,-11.07,-1.47,1
4780,69.73,-11.8,6.95,1
4781,69.75,0.48,-15.49,1
4782,69.76,2.11,-10.28,1
4783,69.77,11.94,3.32,1
4784,69.79,-8.77,17.06,1
4785,69.8,-0.76,8.6,1
4786,69.81,-15.88,7.54,1
4787,69.82,-14.17,9.73,1
4788,69.84,-5.54,-7.74,1
4789,69.85,-9.44,18.38,1
4790,69.86,-1.13,3.62,1
4791,69.88,-7.88,9.41,1
4792,69.89,-2.18,-5.63,1
4793,69.9,-4.49,-1.36,1
4794,69.92,-17.49,4.39,1
4795,69.93,3.53,2.53,1
4796,69.94,-18.61,-0.47,1
4797,69.96,-12.44,-7.74,1
4798,69.97,7.52,18.68,1
4799,69.98,1.5,4.87,1
4800,70.0,2.1,-20.04,1
4801,70.01,1.96,4.36,1
4802,70.02,12.44,1.49,1
4803,70.04,-8.43,-5.42,1
4804,70.05,-7.12,3.4,1
4805,70.06,1.3,-17.54,1
4806,70.08,-1.17,2.7,1
4807,70.09,-8.9,9.69,1
4808,70.11,-8.02,-1.48,1
4809,70.12,8.49,-25.08,1
4810,70.13,-10.89,4.0,1
4811,70.14,7.7,-4.17,1
4812,70.16,20.85,-7.45,0
4813,70.17,-11.4,-14.97,0
4814,70.18,6.83,8.89,0
4815,70.2,16.82,-22.54,0
4816,70.21,6.03,-16.79,0
4817,70.22,6.35,13.33,0
4818,70.24,0.37,16.96,0
4819,70.25,7.72,-18.69,0
4820,70.26,9.36,5.08,0
4821,70.28,3.08,-6.6,0
4822,70.29,22.25,12.21,0
4823,70.3,-8.11,20.27,0
4824,70.32,-77.64,36.34,0
4825,70.33,-129.21,25.45,0
4826,70.34,-151.04,9.24,0
4827,70.36,-117.11,-2.1,0
4828,70.37,-108.21,-36.93,0
