,Timestamp,Data1,Data2,Label
0,6.0,-7.18,5.64,1
1,6.01,-7.04,1.1,1
2,6.03,-24.84,4.5,1
3,6.04,-10.36,34.93,1
4,6.05,4.95,-0.86,1
5,6.07,12.42,-13.62,1
6,6.08,16.97,43.07,1
7,6.09,14.89,-30.77,1
8,6.11,0.58,2.3,1
9,6.12,-3.18,19.01,1
10,6.13,12.37,-3.33,1
11,6.15,-19.25,-17.21,2
12,6.16,-2.43,40.62,2
13,6.17,22.45,-19.21,2
14,6.19,97.93,5.01,2
15,6.2,171.47,45.23,2
16,6.21,221.36,36.24,2
17,6.23,176.19,82.62,2
18,6.24,187.69,73.13,2
19,6.25,107.81,-64.83,2
20,6.27,42.13,-78.64,2
21,6.28,-27.37,-69.27,2
22,6.29,-104.8,-129.63,2
23,6.31,-158.72,-166.11,2
24,6.32,-176.98,-50.66,2
25,6.33,-169.39,-62.91,2
26,6.35,-197.46,-21.39,2
27,6.36,-194.36,13.94,2
28,6.37,-176.26,10.06,2
29,6.39,-194.08,18.81,2
30,6.4,-132.53,89.52,2
31,6.41,-142.96,23.76,2
32,6.43,-135.77,50.3,2
33,6.44,-107.35,62.73,2
34,6.45,-61.32,56.01,2
35,6.47,-70.53,37.21,2
36,6.48,-32.38,50.47,2
37,6.49,-29.01,43.44,2
38,6.51,-2.53,31.35,2
39,6.52,13.21,48.11,2
40,6.53,31.47,22.45,2
41,6.55,28.65,34.87,2
42,6.56,66.71,20.51,1
43,6.57,78.93,-21.29,1
44,6.59,67.0,12.41,1
45,6.6,90.87,7.74,1
46,6.61,104.79,-11.04,1
47,6.63,61.52,-19.3,1
48,6.64,89.93,10.25,1
49,6.65,99.21,-6.34,1
50,6.67,77.68,-28.25,1
51,6.68,109.55,-8.55,1
52,6.69,104.57,-18.23,1
53,6.71,70.65,-17.45,1
54,6.72,77.41,-4.97,1
55,6.73,89.76,7.42,1
56,6.75,57.69,-0.71,1
57,6.76,81.47,-9.61,1
58,6.77,77.65,-26.7,1
59,6.79,44.82,-40.65,1
60,6.8,28.06,-33.22,1
61,6.81,31.91,0.65,1
62,6.83,9.52,-61.55,1
63,6.84,20.26,-25.87,1
64,6.85,14.91,-23.98,1
65,6.87,-1.7,-19.59,1
66,6.88,-1.29,-3.89,1
67,6.89,32.85,-10.39,1
68,6.91,-17.11,-24.31,1
69,6.92,-3.67,-12.42,1
70,6.93,7.0,-22.58,1
71,6.95,-18.17,-27.46,1
72,6.96,0.57,-6.16,1
73,6.97,-14.47,25.37,1
74,6.99,-37.05,-11.78,1
75,7.0,-29.89,14.98,1
76,7.01,-19.39,29.31,1
77,7.03,-28.26,-14.48,1
78,7.04,-49.06,1.79,1
79,7.05,-31.42,-1.5,1
80,7.07,-48.31,-25.23,1
81,7.08,-25.31,21.69,1
82,7.09,-16.5,14.69,1
83,7.11,-44.9,-11.86,1
84,7.12,-9.28,1.17,1
85,7.13,-15.64,31.28,1
86,7.15,-42.52,4.89,1
87,7.16,-18.55,5.49,1
88,7.17,-27.24,30.82,1
89,7.19,-58.61,-1.75,1
90,7.2,-28.83,16.83,1
91,7.21,-7.46,43.57,1
92,7.23,-33.75,53.13,1
93,7.24,-27.19,5.78,1
94,7.25,-15.42,39.14,1
95,7.27,-22.42,2.49,1
96,7.28,-8.45,8.4,1
97,7.29,4.13,19.73,1
98,7.31,-22.97,-16.83,1
99,7.32,-17.55,-5.39,1
100,7.33,-0.5,16.2,1
101,7.35,-12.96,-21.19,1
102,7.36,1.33,-22.23,1
103,7.37,13.54,24.55,1
104,7.39,-11.12,-35.21,1
105,7.4,-2.59,0.61,1
106,7.41,5.36,24.73,1
107,7.43,-8.4,-30.9,1
108,7.44,-6.7,-11.88,1
109,7.45,22.99,9.78,1
110,7.47,-2.12,-32.55,1
111,7.48,12.45,-19.48,1
112,7.49,24.93,37.92,1
113,7.51,-18.84,-13.78,1
114,7.52,-1.13,-3.11,1
115,7.53,18.63,16.13,1
116,7.55,-11.02,-18.68,1
117,7.56,-0.34,-8.35,1
118,7.57,18.08,38.62,1
119,7.59,5.55,4.92,1
120,7.6,0.67,7.42,1
121,7.61,26.35,39.24,1
122,7.63,-16.64,-31.55,1
123,7.64,-0.09,-10.03,1
124,7.65,10.13,30.14,1
125,7.67,-5.46,-29.01,1
126,7.68,-0.99,-12.18,1
127,7.69,23.49,36.46,1
128,7.71,-6.11,-35.36,1
129,7.72,12.36,-15.44,1
130,7.73,20.01,29.94,1
131,7.75,-8.64,-22.14,1
132,7.76,-0.01,-23.08,1
133,7.77,21.43,35.97,1
134,7.79,-2.51,-41.61,1
135,7.8,-3.82,-8.51,1
136,7.81,24.7,32.47,1
137,7.83,-3.74,-4.27,1
138,7.84,13.63,-5.41,1
139,7.85,30.38,20.25,1
140,7.87,-9.55,-33.78,1
141,7.88,3.61,-13.27,1
142,7.89,3.75,40.69,1
143,7.91,-11.33,-29.86,1
144,7.92,13.83,-7.31,1
145,7.93,20.85,43.61,1
146,7.95,-7.02,-38.51,1
147,7.96,-2.91,-13.3,1
148,7.97,14.04,36.29,1
149,7.99,-20.34,-23.16,1
150,8.0,11.39,-16.38,1
151,8.01,6.94,38.01,1
152,8.03,-3.4,-27.17,1
153,8.04,-1.75,-5.11,1
154,8.05,25.68,39.5,1
155,8.07,-11.21,-53.96,1
156,8.08,-2.63,-9.17,1
157,8.09,22.15,39.05,1
158,8.11,-4.51,-38.72,1
159,8.12,-12.69,-5.59,1
160,8.13,13.65,11.66,1
161,8.15,-15.02,-27.65,0
162,8.16,-5.58,5.19,0
163,8.17,29.61,63.82,0
164,8.19,-104.28,-46.61,0
165,8.2,-147.33,20.54,0
166,8.21,-168.38,79.58,0
167,8.23,-228.51,10.3,0
168,8.24,-189.84,26.3,0
169,8.25,-140.55,57.61,0
170,8.27,-118.72,-38.09,0
171,8.28,-82.66,-59.08,0
172,8.29,-28.32,-25.17,0
173,8.31,11.47,-119.34,0
174,8.32,63.82,-74.16,0
175,8.33,187.29,-7.85,0
176,8.35,250.18,-62.87,0
177,8.36,318.94,-8.73,0
178,8.37,302.39,63.34,0
179,8.39,249.34,-8.47,0
180,8.4,274.36,34.96,0
181,8.41,246.55,88.92,0
182,8.43,178.02,0.73,0
183,8.44,155.07,20.91,0
184,8.45,78.42,47.24,0
185,8.47,-5.78,-5.71,0
186,8.48,31.35,17.69,0
187,8.49,45.88,61.54,0
188,8.51,1.14,-25.96,0
189,8.52,-0.1,3.29,0
190,8.53,-6.14,53.84,0
191,8.55,-49.28,-17.8,1
192,8.56,-43.34,14.14,1
193,8.57,-61.77,39.86,1
194,8.59,-94.01,-43.24,1
195,8.6,-91.97,4.02,1
196,8.61,-81.91,37.76,1
197,8.63,-127.89,-35.38,1
198,8.64,-117.71,-3.39,1
199,8.65,-90.33,16.66,1
200,8.67,-130.8,-43.26,1
201,8.68,-109.35,-16.27,1
202,8.69,-83.23,29.44,1
203,8.71,-124.17,-35.86,1
204,8.72,-105.57,-13.66,1
205,8.73,-79.42,12.95,1
206,8.75,-99.39,-38.74,1
207,8.76,-68.22,5.34,1
208,8.77,-59.16,21.49,1
209,8.79,-76.0,-28.09,1
210,8.8,-71.37,-12.74,1
211,8.81,-56.75,25.56,1
212,8.83,-85.13,-28.98,1
213,8.84,-36.35,-6.39,1
214,8.85,-15.94,24.44,1
215,8.87,-45.77,-34.78,1
216,8.88,-8.77,-1.81,1
217,8.89,13.45,14.89,1
218,8.91,-8.85,-40.02,1
219,8.92,5.48,4.74,1
220,8.93,27.84,37.92,1
221,8.95,2.69,-17.21,1
222,8.96,23.46,-11.4,1
223,8.97,36.98,29.42,1
224,8.99,10.6,-33.27,1
225,9.0,34.07,-17.59,1
226,9.01,57.98,16.13,1
227,9.03,5.04,-34.34,1
228,9.04,41.07,-13.7,1
229,9.05,60.36,22.06,1
230,9.07,17.64,-35.76,1
231,9.08,52.77,-5.51,1
232,9.09,57.77,33.77,1
233,9.11,34.06,-9.23,1
234,9.12,43.01,9.51,1
235,9.13,59.7,29.88,1
236,9.15,9.11,-15.85,1
237,9.16,37.1,1.65,1
238,9.17,58.28,29.15,1
239,9.19,15.78,-2.75,1
240,9.2,50.01,12.31,1
241,9.21,42.3,24.21,1
242,9.23,4.91,-12.15,1
243,9.24,32.8,-19.39,1
244,9.25,48.0,24.51,1
245,9.27,25.94,-25.99,1
246,9.28,32.77,-9.72,1
247,9.29,32.52,44.74,1
248,9.31,-10.4,-24.14,1
249,9.32,9.06,-6.5,1
250,9.33,26.43,35.14,1
251,9.35,-18.79,-27.08,1
252,9.36,25.03,-8.13,1
253,9.37,22.68,15.53,1
254,9.39,-10.54,-25.36,1
255,9.4,8.49,10.75,1
256,9.41,-2.7,41.98,1
257,9.43,-12.92,-24.89,1
258,9.44,-1.58,6.5,1
259,9.45,1.38,18.66,1
260,9.47,-20.72,-6.6,1
261,9.48,10.62,8.2,1
262,9.49,8.82,26.29,1
263,9.51,-18.57,6.94,1
264,9.52,-1.74,-4.37,1
265,9.53,10.74,4.23,1
266,9.55,-39.49,-34.37,1
267,9.56,-24.7,-13.25,1
268,9.57,0.47,19.35,1
269,9.59,-33.74,-24.52,1
270,9.6,-14.24,-14.47,1
271,9.61,6.57,7.77,1
272,9.63,-26.78,2.25,1
273,9.64,-24.51,6.76,1
274,9.65,8.18,18.96,1
275,9.67,-25.15,-0.14,1
276,9.68,-7.5,4.45,1
277,9.69,-2.53,-12.38,1
278,9.71,-29.5,10.93,1
279,9.72,-10.39,-6.36,1
280,9.73,15.64,2.21,1
281,9.75,-31.32,-10.24,1
282,9.76,-5.87,-13.58,1
283,9.77,18.28,-5.63,1
284,9.79,-20.05,-1.11,1
285,9.8,7.72,-2.18,1
286,9.81,14.66,26.19,1
287,9.83,-17.38,10.39,1
288,9.84,-13.93,-17.45,1
289,9.85,6.81,-27.41,1
290,9.87,-21.6,-9.36,1
291,9.88,-2.47,-15.29,1
292,9.89,10.24,2.16,1
293,9.91,-22.53,10.58,1
294,9.92,-1.19,-8.83,1
295,9.93,16.31,15.37,1
296,9.95,-24.27,2.14,1
297,9.96,-1.61,-22.25,1
298,9.97,15.82,16.71,1
299,9.99,-3.86,14.8,1
300,10.0,10.22,-11.46,1
301,10.01,-12.76,14.38,1
302,10.03,-24.89,-0.24,1
303,10.04,-3.43,-21.17,1
304,10.05,15.59,2.68,1
305,10.07,-17.72,33.41,1
306,10.08,13.48,-1.54,1
307,10.09,28.35,21.17,1
308,10.11,-14.81,13.18,1
309,10.12,-4.53,-39.78,1
310,10.13,14.99,-6.95,1
311,10.15,-21.03,33.13,0
312,10.16,8.33,4.76,0
313,10.17,-80.0,-28.41,0
314,10.19,-189.8,0.95,0
315,10.2,-197.92,26.27,0
316,10.21,-170.37,42.19,0
317,10.23,-177.14,68.63,0
318,10.24,-100.04,-24.36,0
319,10.25,-18.19,-29.53,0
320,10.27,26.35,-58.22,0
321,10.28,121.97,-124.94,0
322,10.29,164.63,-139.63,0
323,10.31,177.76,-46.97,0
324,10.32,197.48,-43.41,0
325,10.33,186.52,-21.2,0
326,10.35,186.19,62.78,0
327,10.36,183.64,-1.18,0
328,10.37,187.04,27.06,0
329,10.39,128.22,91.06,0
330,10.4,133.35,36.76,0
331,10.41,116.44,50.49,0
332,10.43,59.65,75.99,0
333,10.44,57.1,21.21,0
334,10.45,67.05,17.51,0
335,10.47,6.43,65.75,0
336,10.48,3.58,-8.14,0
337,10.49,15.14,16.64,0
338,10.51,-37.64,44.31,0
339,10.52,-40.49,9.71,0
340,10.53,-25.15,13.92,0
341,10.55,-64.01,50.42,1
342,10.56,-54.92,-14.66,1
343,10.57,-40.22,-43.6,1
344,10.59,-72.87,6.6,1
345,10.6,-71.77,-22.24,1
346,10.61,-56.8,-11.16,1
347,10.63,-90.03,39.9,1
348,10.64,-76.78,-11.63,1
349,10.65,-66.95,0.91,1
350,10.67,-98.05,15.77,1
351,10.68,-89.12,-26.78,1
352,10.69,-93.89,-3.49,1
353,10.71,-81.08,6.72,1
354,10.72,-64.95,-41.65,1
355,10.73,-64.26,-2.1,1
356,10.75,-73.43,4.59,1
357,10.76,-93.87,-20.66,1
358,10.77,-56.84,-2.54,1
359,10.79,-78.14,27.06,1
360,10.8,-40.58,-51.95,1
361,10.81,-22.18,-53.06,1
362,10.83,-45.6,1.85,1
363,10.84,-25.91,-31.83,1
364,10.85,4.96,-46.79,1
365,10.87,1.08,14.72,1
366,10.88,7.63,-26.91,1
367,10.89,25.3,-17.04,1
368,10.91,-9.09,36.75,1
369,10.92,-5.76,-16.35,1
370,10.93,7.5,-31.45,1
371,10.95,3.6,16.62,1
372,10.96,20.46,-29.2,1
373,10.97,38.34,-13.19,1
374,10.99,23.8,27.99,1
375,11.0,38.46,-35.29,1
376,11.01,27.14,-8.68,1
377,11.03,35.72,47.33,1
378,11.04,24.95,-45.43,1
379,11.05,46.46,-20.32,1
380,11.07,19.49,50.32,1
381,11.08,32.12,-20.69,1
382,11.09,27.46,7.75,1
383,11.11,14.72,36.54,1
384,11.12,21.15,-39.66,1
385,11.13,34.34,-29.63,1
386,11.15,17.67,35.95,1
387,11.16,41.75,-18.9,1
388,11.17,54.45,3.04,1
389,11.19,37.3,50.19,1
390,11.2,25.05,-20.78,1
391,11.21,36.07,-19.63,1
392,11.23,9.28,45.67,1
393,11.24,30.65,-36.54,1
394,11.25,31.04,-0.88,1
395,11.27,12.3,43.77,1
396,11.28,28.8,-13.34,1
397,11.29,11.15,12.16,1
398,11.31,-0.57,55.83,1
399,11.32,-17.05,-12.39,1
400,11.33,16.79,29.27,1
401,11.35,4.37,27.92,1
402,11.36,11.04,-23.45,1
403,11.37,8.82,7.92,1
404,11.39,-9.14,49.22,1
405,11.4,5.71,-28.79,1
406,11.41,4.28,8.79,1
407,11.43,-3.07,49.81,1
408,11.44,1.11,-17.99,1
409,11.45,7.01,10.69,1
410,11.47,-18.24,43.54,1
411,11.48,-20.28,-27.94,1
412,11.49,-3.97,-22.1,1
413,11.51,-24.63,44.72,1
414,11.52,-3.48,-47.64,1
415,11.53,5.13,-8.44,1
416,11.55,-7.23,10.09,1
417,11.56,4.59,-64.47,1
418,11.57,1.64,3.74,1
419,11.59,-12.34,21.51,1
420,11.6,-11.08,-31.37,1
421,11.61,-16.31,11.01,1
422,11.63,9.83,5.94,1
423,11.64,-8.08,-37.26,1
424,11.65,0.49,7.93,1
425,11.67,-13.68,48.87,1
426,11.68,-16.73,-44.37,1
427,11.69,-2.47,18.74,1
428,11.71,-7.6,22.09,1
429,11.72,-24.0,-29.74,1
430,11.73,-14.53,-12.51,1
431,11.75,-3.82,21.7,1
432,11.76,-30.57,-40.19,1
433,11.77,-1.52,7.87,1
434,11.79,-0.56,57.78,1
435,11.8,-2.53,-38.77,1
436,11.81,-11.26,-7.11,1
437,11.83,6.93,40.38,1
438,11.84,3.07,-39.97,1
439,11.85,-4.59,-11.93,1
440,11.87,3.04,37.39,1
441,11.88,-28.97,-38.72,1
442,11.89,-14.31,-22.3,1
443,11.91,6.32,56.57,1
444,11.92,-7.16,-52.02,1
445,11.93,8.22,-9.51,1
446,11.95,-4.6,48.21,1
447,11.96,-2.63,-50.3,1
448,11.97,-3.27,6.56,1
449,11.99,10.08,13.52,1
450,12.0,-15.96,-52.6,1
451,12.01,-13.9,-5.63,1
452,12.03,2.1,8.05,1
453,12.04,-4.94,-22.54,1
454,12.05,14.67,14.0,1
455,12.07,18.29,50.4,1
456,12.08,-17.59,-29.38,1
457,12.09,15.23,-1.8,1
458,12.11,17.09,32.09,1
459,12.12,15.9,-6.41,1
460,12.13,-6.47,22.56,1
461,12.15,1.98,41.39,2
462,12.16,9.78,-16.63,2
463,12.17,-4.33,12.24,2
464,12.19,7.03,46.16,2
465,12.2,9.67,-4.12,2
466,12.21,97.67,5.14,2
467,12.23,176.99,31.2,2
468,12.24,182.96,-16.05,2
469,12.25,213.96,17.99,2
470,12.27,211.71,49.07,2
471,12.28,142.65,-17.93,2
472,12.29,88.94,-10.74,2
473,12.31,65.74,18.31,2
474,12.32,9.31,-42.39,2
475,12.33,-41.68,-22.67,2
476,12.35,-120.1,-3.23,2
477,12.36,-252.19,-56.38,2
478,12.37,-302.23,-41.51,2
479,12.39,-323.79,-2.5,2
480,12.4,-319.51,-65.37,2
481,12.41,-278.81,-18.89,2
482,12.43,-237.04,-11.81,2
483,12.44,-220.75,-21.41,2
484,12.45,-171.15,-1.19,2
485,12.47,-112.28,26.76,2
486,12.48,-50.42,-2.94,2
487,12.49,-15.13,9.16,2
488,12.51,-6.41,43.17,2
489,12.52,5.19,-10.76,2
490,12.53,10.89,18.54,2
491,12.55,37.88,20.89,1
492,12.56,29.18,-13.36,1
493,12.57,50.95,-5.09,1
494,12.59,75.92,32.77,1
495,12.6,63.22,-3.31,1
496,12.61,69.38,-8.61,1
497,12.63,109.03,4.21,1
498,12.64,78.96,12.15,1
499,12.65,119.12,-14.99,1
500,12.67,116.87,19.82,1
501,12.68,105.2,-10.81,1
502,12.69,99.92,16.19,1
503,12.71,102.76,26.6,1
504,12.72,84.48,-8.48,1
505,12.73,87.16,13.38,1
506,12.75,101.38,5.91,1
507,12.76,92.21,-2.12,1
508,12.77,94.91,-11.55,1
509,12.79,94.5,6.88,1
510,12.8,70.14,19.19,1
511,12.81,72.5,-2.65,1
512,12.83,58.68,3.05,1
513,12.84,15.91,0.6,1
514,12.85,33.26,-10.21,1
515,12.87,40.97,-6.24,1
516,12.88,18.71,5.97,1
517,12.89,2.12,-3.33,1
518,12.91,23.84,0.73,1
519,12.92,-11.56,23.59,1
520,12.93,-12.36,-1.58,1
521,12.95,-9.37,-1.83,1
522,12.96,-14.75,0.06,1
523,12.97,-6.33,-17.21,1
524,12.99,6.07,-34.33,1
525,13.0,-33.21,-7.54,1
526,13.01,-41.03,-1.5,1
527,13.03,-33.83,-1.97,1
528,13.04,-34.91,23.32,1
529,13.05,-25.18,-21.47,1
530,13.07,-20.57,13.92,1
531,13.08,-53.04,4.54,1
532,13.09,-40.72,9.57,1
533,13.11,-17.33,7.23,1
534,13.12,-32.46,-8.97,1
535,13.13,-38.65,-15.81,1
536,13.15,-28.7,1.11,1
537,13.16,-41.34,4.32,1
538,13.17,-22.15,-27.88,1
539,13.19,-5.0,6.06,1
540,13.2,-40.51,5.42,1
541,13.21,-46.88,-3.57,1
542,13.23,-44.48,6.54,1
543,13.24,-51.51,17.33,1
544,13.25,-31.34,-26.39,1
545,13.27,-9.81,-24.2,1
546,13.28,-37.68,5.9,1
547,13.29,-24.71,-18.63,1
548,13.31,-18.98,15.15,1
549,13.32,-42.47,24.2,1
550,13.33,-42.16,-19.96,1
551,13.35,8.66,-5.42,1
552,13.36,-17.76,11.83,1
553,13.37,-8.58,-5.37,1
554,13.39,13.63,-7.5,1
555,13.4,-24.43,31.98,1
556,13.41,-3.87,-14.53,1
557,13.43,4.66,-6.67,1
558,13.44,-17.94,30.34,1
559,13.45,-5.44,2.6,1
560,13.47,14.64,-11.73,1
561,13.48,5.28,19.31,1
562,13.49,1.69,-28.83,1
563,13.51,19.29,-3.46,1
564,13.52,-4.47,35.4,1
565,13.53,16.06,-2.62,1
566,13.55,29.58,-1.21,1
567,13.56,1.64,30.83,1
568,13.57,9.03,-22.05,1
569,13.59,11.73,-12.6,1
570,13.6,-5.72,24.09,1
571,13.61,8.3,-18.31,1
572,13.63,26.36,-7.8,1
573,13.64,-20.91,34.36,1
574,13.65,5.78,-23.09,1
575,13.67,28.4,-14.47,1
576,13.68,0.46,31.39,1
577,13.69,-3.8,-22.48,1
578,13.71,25.21,-1.32,1
579,13.72,-7.61,27.46,1
580,13.73,4.28,-19.0,1
581,13.75,20.9,13.67,1
582,13.76,-3.46,25.08,1
583,13.77,26.39,-20.65,1
584,13.79,30.2,-27.48,1
585,13.8,-6.53,32.22,1
586,13.81,14.82,-18.52,1
587,13.83,50.07,-9.13,1
588,13.84,-11.13,15.06,1
589,13.85,18.05,-25.38,1
590,13.87,13.4,-37.2,1
591,13.88,-27.47,46.08,1
592,13.89,-0.96,-32.48,1
593,13.91,17.69,-7.8,1
594,13.92,-5.85,23.93,1
595,13.93,3.48,0.52,1
596,13.95,11.43,-15.01,1
597,13.96,-3.53,31.09,1
598,13.97,10.63,-43.17,1
599,13.99,12.61,-4.35,1
600,14.0,-8.56,33.31,1
601,14.01,-2.01,-32.48,1
602,14.03,3.89,-16.64,1
603,14.04,-4.01,41.57,1
604,14.05,-21.51,-13.24,1
605,14.07,10.52,2.22,1
606,14.08,-24.21,51.4,1
607,14.09,0.93,-3.57,1
608,14.11,34.39,-15.55,1
609,14.12,-4.38,34.36,1
610,14.13,5.74,-29.89,1
611,14.15,14.89,-8.14,1
612,14.16,-29.02,35.36,1
613,14.17,-3.6,-1.68,1
614,14.19,-20.59,101.95,1
615,14.2,-178.28,200.14,1
616,14.21,-41.64,350.59,1
617,14.23,14.48,121.0,1
618,14.24,138.05,76.54,1
619,14.25,-95.09,-249.0,1
620,14.27,-108.62,-130.38,1
621,14.28,-255.71,247.01,1
622,14.29,-43.14,47.69,1
623,14.31,39.65,171.87,1
624,14.32,-134.92,33.28,1
625,14.33,271.25,37.48,1
626,14.35,-120.45,-17.93,1
627,14.36,389.69,-62.41,1
628,14.37,-162.63,-77.39,1
629,14.39,-54.33,-97.54,1
630,14.4,-72.15,-132.14,1
631,14.41,437.62,-129.99,1
632,14.43,-182.45,-137.78,1
633,14.44,-79.17,-189.17,1
634,14.45,-142.0,-212.2,1
635,14.47,-57.78,-97.28,1
636,14.48,-32.14,-192.84,1
637,14.49,61.06,-223.18,1
638,14.51,-26.07,-226.94,1
639,14.52,30.88,-70.74,1
640,14.53,15.15,-152.5,1
641,14.55,131.03,-153.04,1
642,14.56,546.73,-152.04,1
643,14.57,-102.26,-531.58,1
644,14.59,85.89,-337.99,1
645,14.6,198.81,99.57,1
646,14.61,475.35,81.33,1
647,14.63,242.01,-20.32,1
648,14.64,-0.43,309.65,1
649,14.65,331.41,97.89,1
650,14.67,-258.66,-18.25,1
651,14.68,-65.84,232.4,1
652,14.69,106.86,60.81,1
653,14.71,8.42,64.66,1
654,14.72,186.58,-4.13,1
655,14.73,-292.52,-292.19,1
656,14.75,107.97,-128.41,1
657,14.76,-83.64,249.94,1
658,14.77,-364.49,282.61,1
659,14.79,287.34,465.95,1
660,14.8,82.39,199.82,1
661,14.81,104.01,249.95,1
662,14.83,-115.73,223.65,1
663,14.84,-335.59,375.27,1
664,14.85,-302.43,211.22,1
665,14.87,-391.92,53.29,1
666,14.88,-234.03,-28.08,1
667,14.89,-159.46,-103.23,1
668,14.91,-115.41,-152.34,1
669,14.92,-106.92,-249.08,1
670,14.93,63.09,-392.14,1
671,14.95,27.34,-273.18,1
672,14.96,45.57,-221.54,1
673,14.97,50.19,-133.65,1
674,14.99,1.23,-4.42,1
675,15.0,-47.73,86.41,1
676,15.01,-107.57,74.53,1
677,15.03,-134.19,133.46,1
678,15.04,-142.91,248.33,1
679,15.05,-136.12,206.16,1
680,15.07,-116.34,277.53,1
681,15.08,-127.68,346.49,1
682,15.09,-89.25,299.0,1
683,15.11,-68.62,297.68,1
684,15.12,-73.02,328.54,1
685,15.13,-35.44,221.38,1
686,15.15,-12.29,234.72,1
687,15.16,-21.62,186.89,1
688,15.17,17.61,136.08,1
689,15.19,42.27,148.63,1
690,15.2,28.6,102.07,1
691,15.21,47.97,0.46,1
692,15.23,69.41,22.74,1
693,15.24,40.58,-0.03,1
694,15.25,64.52,-61.57,1
695,15.27,109.02,-55.87,1
696,15.28,60.42,-96.66,1
697,15.29,79.51,-141.23,1
698,15.31,102.07,-125.8,1
699,15.32,70.74,-124.41,1
700,15.33,82.67,-182.19,1
701,15.35,94.84,-170.57,1
702,15.36,65.52,-153.92,1
703,15.37,78.96,-211.2,1
704,15.39,96.69,-202.21,1
705,15.4,55.46,-168.75,1
706,15.41,82.27,-229.3,1
707,15.43,79.0,-199.66,1
708,15.44,64.31,-154.18,1
709,15.45,71.06,-197.54,1
710,15.47,82.96,-162.88,1
711,15.48,31.41,-126.36,1
712,15.49,55.35,-151.45,1
713,15.51,44.91,-118.7,1
714,15.52,-6.89,-101.41,1
715,15.53,30.36,-143.75,1
716,15.55,38.0,-101.46,1
717,15.56,15.98,-53.51,1
718,15.57,38.85,-77.66,1
719,15.59,37.35,-65.55,1
720,15.6,17.9,-39.45,1
721,15.61,31.72,-65.58,1
722,15.63,40.79,-48.69,1
723,15.64,-16.35,2.1,1
724,15.65,-1.28,-16.85,1
725,15.67,-0.44,-16.81,1
726,15.68,-36.49,19.93,1
727,15.69,-8.45,10.01,1
728,15.71,9.59,35.99,1
729,15.72,-15.91,42.48,1
730,15.73,-11.57,36.75,1
731,15.75,-22.15,43.07,1
732,15.76,-49.6,79.4,1
733,15.77,-26.45,50.84,1
734,15.79,-39.78,56.9,1
735,15.8,-48.45,82.93,1
736,15.81,-20.95,49.82,1
737,15.83,-13.65,86.13,1
738,15.84,-51.68,69.8,1
739,15.85,-29.93,65.77,1
740,15.87,-13.06,75.89,1
741,15.88,-56.25,90.46,1
742,15.89,-27.22,53.07,1
743,15.91,-16.98,65.35,1
744,15.92,-38.83,77.29,1
745,15.93,-26.16,46.77,1
746,15.95,-14.86,72.12,1
747,15.96,-49.18,62.2,1
748,15.97,-15.43,44.93,1
749,15.99,-7.67,44.85,1
750,16.0,-27.05,48.43,1
751,16.01,-19.87,57.88,1
752,16.03,-10.59,49.11,1
753,16.04,-52.51,53.23,1
754,16.05,-13.62,54.26,1
755,16.07,-1.89,31.86,1
756,16.08,-16.38,7.39,1
757,16.09,9.27,-11.01,1
758,16.11,-1.83,-3.93,1
759,16.12,-21.16,-1.71,1
760,16.13,-5.06,34.58,1
761,16.15,-0.99,22.08,1
762,16.16,-12.29,33.28,2
763,16.17,97.64,29.9,2
764,16.19,179.74,0.14,2
765,16.2,206.32,29.4,2
766,16.21,214.77,28.48,2
767,16.23,166.73,12.76,2
768,16.24,92.81,-32.61,2
769,16.25,19.34,-41.62,2
770,16.27,-24.77,-34.87,2
771,16.28,-104.86,-11.1,2
772,16.29,-137.6,-57.64,2
773,16.31,-168.05,-72.87,2
774,16.32,-200.04,-11.53,2
775,16.33,-175.99,-34.84,2
776,16.35,-173.35,-56.07,2
777,16.36,-186.82,-17.56,2
778,16.37,-155.05,-3.83,2
779,16.39,-118.86,3.13,2
780,16.4,-122.5,-21.67,2
781,16.41,-85.05,-2.25,2
782,16.43,-47.45,-27.6,2
783,16.44,-47.41,-12.56,2
784,16.45,-45.27,21.65,2
785,16.47,-19.12,-6.86,2
786,16.48,-18.05,-2.78,2
787,16.49,10.3,-1.35,2
788,16.51,29.79,-39.61,2
789,16.52,13.47,-11.06,2
790,16.53,38.44,-9.54,2
791,16.55,89.11,-28.66,1
792,16.56,54.74,-34.83,1
793,16.57,68.37,-3.41,1
794,16.59,89.21,-26.0,1
795,16.6,77.62,-17.78,1
796,16.61,107.29,4.07,1
797,16.63,97.69,-21.69,1
798,16.64,83.08,-16.79,1
799,16.65,86.83,3.31,1
800,16.67,84.11,-24.93,1
801,16.68,71.64,-23.69,1
802,16.69,91.14,13.86,1
803,16.71,73.86,-31.48,1
804,16.72,46.74,-18.05,1
805,16.73,71.25,21.74,1
806,16.75,79.62,-10.47,1
807,16.76,42.89,-11.68,1
808,16.77,48.8,23.5,1
809,16.79,43.0,-0.91,1
810,16.8,22.03,-0.11,1
811,16.81,37.42,38.49,1
812,16.83,44.89,0.59,1
813,16.84,0.82,2.24,1
814,16.85,13.62,35.45,1
815,16.87,17.41,-10.07,1
816,16.88,-9.75,0.47,1
817,16.89,-0.12,46.85,1
818,16.91,-6.94,-1.11,1
819,16.92,-11.5,0.61,1
820,16.93,-9.71,34.05,1
821,16.95,-2.62,-29.34,1
822,16.96,-38.15,23.16,1
823,16.97,-30.17,50.1,1
824,16.99,-22.2,7.63,1
825,17.0,-10.54,-3.28,1
826,17.01,-33.69,41.68,1
827,17.03,-12.1,-7.05,1
828,17.04,-31.31,9.53,1
829,17.05,-42.57,36.08,1
830,17.06,-20.46,-38.11,1
831,17.08,-40.63,-18.83,1
832,17.09,-50.71,21.91,1
833,17.11,-23.87,-48.09,1
834,17.12,-40.05,3.0,1
835,17.13,-31.15,27.56,1
836,17.15,-33.28,-41.11,1
837,17.16,-41.42,-28.0,1
838,17.17,-36.83,34.76,1
839,17.19,-8.88,-39.2,1
840,17.2,-23.56,-7.1,1
841,17.21,-40.42,44.47,1
842,17.23,-29.0,-25.28,1
843,17.24,-37.44,-2.67,1
844,17.25,-19.93,16.24,1
845,17.27,-11.48,-8.62,1
846,17.28,-28.11,4.75,1
847,17.29,-29.55,39.08,1
848,17.31,7.09,-39.52,1
849,17.32,-13.45,-7.44,1
850,17.33,2.67,53.86,1
851,17.35,9.94,-28.12,1
852,17.36,-5.53,-29.89,1
853,17.37,3.26,25.12,1
854,17.39,3.13,-17.52,1
855,17.4,-12.75,-11.38,1
856,17.41,-1.25,30.44,1
857,17.43,4.29,-25.49,1
858,17.44,8.38,8.03,1
859,17.45,2.92,42.66,1
860,17.47,10.17,-35.5,1
861,17.48,3.31,1.54,1
862,17.49,8.38,43.08,1
863,17.51,6.84,-27.54,1
864,17.52,19.67,-7.64,1
865,17.53,9.87,50.17,1
866,17.55,11.71,-46.68,1
867,17.56,5.35,-15.31,1
868,17.57,4.69,20.66,1
869,17.59,21.18,-25.78,1
870,17.6,12.07,-7.22,1
871,17.61,16.14,40.06,1
872,17.63,12.8,-22.21,1
873,17.64,5.6,14.11,1
874,17.65,6.45,49.23,1
875,17.67,19.12,-34.35,1
876,17.68,13.32,-1.48,1
877,17.69,8.89,29.84,1
878,17.7,18.43,-38.55,1
879,17.72,-0.94,-16.15,1
880,17.73,-17.77,35.38,1
881,17.75,15.21,-26.51,1
882,17.76,1.94,1.4,1
883,17.77,-1.42,23.05,1
884,17.79,8.3,-41.06,1
885,17.8,-3.42,-8.84,1
886,17.81,-2.64,24.76,1
887,17.83,16.12,-51.13,1
888,17.84,5.25,3.79,1
889,17.85,-2.43,34.95,1
890,17.87,-6.27,-43.93,1
891,17.88,5.76,-11.58,1
892,17.89,-9.03,31.65,1
893,17.91,7.84,-46.18,1
894,17.92,-6.01,-15.67,1
895,17.93,-7.22,28.87,1
896,17.95,-0.17,-23.25,1
897,17.96,7.15,-5.87,1
898,17.97,-4.14,32.89,1
899,17.99,7.73,-32.52,1
900,18.0,-1.19,2.43,1
901,18.01,-9.52,30.92,1
902,18.03,7.56,-22.22,1
903,18.04,-12.97,35.82,1
904,18.05,-2.06,40.74,1
905,18.07,8.55,-29.47,1
906,18.08,13.75,2.04,1
907,18.09,-7.22,54.16,1
908,18.11,-3.2,-21.96,1
909,18.12,19.17,3.64,1
910,18.13,-6.68,23.99,1
911,18.15,12.77,-18.34,1
912,18.16,-1.51,-11.85,0
913,18.17,-12.98,51.75,0
914,18.19,8.25,-23.77,0
915,18.2,6.79,-7.68,0
916,18.21,-89.85,43.39,0
917,18.23,-132.65,-27.16,0
918,18.24,-168.88,25.25,0
919,18.25,-226.77,25.71,0
920,18.27,-214.61,-31.92,0
921,18.28,-159.54,-32.22,0
922,18.29,-121.8,-21.01,0
923,18.31,-79.44,-79.83,0
924,18.32,-13.46,-46.61,0
925,18.33,40.58,0.9,0
926,18.34,159.61,-38.67,0
927,18.36,258.71,-6.09,0
928,18.37,290.51,28.69,0
929,18.39,318.27,4.52,0
930,18.4,280.99,30.27,0
931,18.41,254.14,78.73,0
932,18.43,235.16,4.33,0
933,18.44,201.02,38.95,0
934,18.45,146.49,62.88,0
935,18.47,108.15,10.19,0
936,18.48,91.91,-14.99,0
937,18.49,42.41,53.07,0
938,18.51,-29.11,-19.94,0
939,18.52,-43.93,-26.42,0
940,18.53,-56.26,15.9,0
941,18.55,-25.55,-32.75,1
942,18.56,-39.77,-4.68,1
943,18.57,-64.91,22.28,1
944,18.59,-71.95,-38.26,1
945,18.6,-62.33,-5.67,1
946,18.61,-85.37,-3.21,1
947,18.63,-80.6,-28.93,1
948,18.64,-80.31,4.31,1
949,18.65,-107.61,14.32,1
950,18.67,-88.5,-14.11,1
951,18.68,-73.37,5.78,1
952,18.69,-92.91,14.66,1
953,18.71,-89.78,-18.89,1
954,18.72,-77.96,5.02,1
955,18.73,-83.96,7.72,1
956,18.75,-71.1,-19.49,1
957,18.76,-73.96,-2.76,1
958,18.77,-77.8,13.5,1
959,18.79,-64.74,-27.22,1
960,18.8,-49.64,-3.13,1
961,18.81,-61.57,25.1,1
962,18.83,-63.31,-25.04,1
963,18.84,-32.78,-9.35,1
964,18.85,-55.2,-0.92,1
965,18.87,-32.04,-8.76,1
966,18.88,-21.33,-1.04,1
967,18.89,-41.87,5.36,1
968,18.91,-7.44,-9.92,1
969,18.92,0.77,-3.68,1
970,18.93,-8.75,1.38,1
971,18.95,4.92,-2.91,1
972,18.96,9.19,-11.25,1
973,18.97,1.37,13.11,1
974,18.98,19.34,6.33,1
975,19.0,27.77,-6.57,1
976,19.01,14.57,10.07,1
977,19.02,18.68,-16.6,1
978,19.04,44.68,-6.5,1
979,19.05,26.33,6.69,1
980,19.07,32.77,11.94,1
981,19.08,45.42,-16.98,1
982,19.09,18.26,-5.89,1
983,19.11,49.7,10.45,1
984,19.12,44.12,-3.52,1
985,19.13,28.27,-21.24,1
986,19.15,32.9,5.67,1
987,19.16,50.17,-13.21,1
988,19.17,26.33,-2.26,1
989,19.19,26.04,-1.88,1
990,19.2,31.49,-3.18,1
991,19.21,14.45,-13.06,1
992,19.23,22.57,15.03,1
993,19.24,53.22,8.51,1
994,19.25,22.19,-7.24,1
995,19.27,23.45,15.92,1
996,19.28,37.17,9.71,1
997,19.29,7.9,10.61,1
998,19.31,19.57,-4.43,1
999,19.32,28.25,3.05,1
1000,19.33,-2.52,10.5,1
1001,19.35,10.17,19.29,1
1002,19.36,23.96,-7.19,1
1003,19.37,1.33,29.39,1
1004,19.39,8.16,25.21,1
1005,19.4,29.7,-9.23,1
1006,19.41,3.3,13.28,1
1007,19.43,13.14,39.91,1
1008,19.44,34.01,-0.14,1
1009,19.45,-7.35,6.24,1
1010,19.47,2.14,-6.43,1
1011,19.48,20.97,-11.93,1
1012,19.49,-13.28,-5.66,1
1013,19.51,-4.44,-1.81,1
1014,19.52,8.28,-6.7,1
1015,19.53,-24.3,-26.9,1
1016,19.55,4.2,1.62,1
1017,19.56,3.76,-12.38,1
1018,19.57,-26.64,18.07,1
1019,19.59,-14.16,11.51,1
1020,19.6,-2.84,2.39,1
1021,19.61,-39.76,-1.68,1
1022,19.62,-3.75,-5.22,1
1023,19.64,4.2,-25.3,1
1024,19.65,-25.67,1.18,1
1025,19.67,-7.42,12.63,1
1026,19.68,-8.92,-5.46,1
1027,19.69,-36.97,-16.53,1
1028,19.71,-18.42,26.01,1
1029,19.72,0.08,-13.88,1
1030,19.73,-30.89,11.71,1
1031,19.75,-19.65,18.04,1
1032,19.76,17.82,-25.77,1
1033,19.77,-21.77,-10.15,1
1034,19.79,-5.51,4.67,1
1035,19.8,9.21,-15.98,1
1036,19.81,-23.12,-10.94,1
1037,19.83,-17.89,0.42,1
1038,19.84,2.73,-0.63,1
1039,19.85,-19.23,-26.14,1
1040,19.87,-6.57,16.19,1
1041,19.88,11.48,-32.5,1
1042,19.89,-21.37,4.24,1
1043,19.91,-7.0,36.97,1
1044,19.92,5.34,-8.83,1
1045,19.93,-24.82,-9.73,1
1046,19.95,-0.09,29.15,1
1047,19.96,10.43,-24.45,1
1048,19.97,-23.05,-9.67,1
1049,19.99,10.06,32.93,1
1050,20.0,13.69,-19.36,1
1051,20.01,-22.85,-11.07,1
1052,20.03,2.05,12.31,1
1053,20.04,5.74,-14.46,1
1054,20.05,-17.3,9.42,1
1055,20.07,-5.39,45.45,1
1056,20.08,37.73,-26.91,1
1057,20.09,-5.07,-5.13,1
1058,20.11,17.14,27.12,1
1059,20.12,27.78,-34.88,1
1060,20.13,-5.94,-10.35,1
1061,20.15,-2.24,43.67,1
1062,20.16,30.44,-25.85,0
1063,20.17,-24.01,1.43,0
1064,20.19,-68.72,8.54,0
1065,20.2,-125.14,-14.75,0
1066,20.21,-247.82,-25.98,0
1067,20.23,-214.38,39.0,0
1068,20.24,-154.0,5.36,0
1069,20.25,-127.75,-23.71,0
1070,20.26,-59.46,23.78,0
1071,20.28,42.96,-48.33,0
1072,20.29,46.48,-51.16,0
1073,20.3,130.69,15.74,0
1074,20.32,185.06,-62.4,0
1075,20.33,160.87,-30.67,0
1076,20.35,192.67,64.78,0
1077,20.36,217.27,-26.6,0
1078,20.37,188.82,-0.36,0
1079,20.39,196.09,37.62,0
1080,20.4,194.91,11.45,0
1081,20.41,149.05,7.59,0
1082,20.43,128.98,66.17,0
1083,20.44,125.32,-11.43,0
1084,20.45,77.08,27.75,0
1085,20.47,53.26,81.9,0
1086,20.48,65.73,3.09,0
1087,20.49,14.14,15.78,0
1088,20.51,-8.59,44.59,0
1089,20.52,7.87,-10.83,0
1090,20.53,-30.86,24.7,0
1091,20.55,-38.56,49.84,1
1092,20.56,-30.33,-37.1,1
1093,20.57,-77.63,-9.67,1
1094,20.59,-73.62,38.32,1
1095,20.6,-65.33,-52.27,1
1096,20.61,-93.62,-28.64,1
1097,20.63,-92.34,18.78,1
1098,20.64,-73.46,-40.57,1
1099,20.65,-98.02,-7.37,1
1100,20.67,-101.89,21.96,1
1101,20.68,-75.96,-28.45,1
1102,20.69,-97.33,-14.56,1
1103,20.71,-92.89,35.75,1
1104,20.72,-86.38,-39.92,1
1105,20.73,-93.86,-8.6,1
1106,20.75,-88.83,44.16,1
1107,20.76,-63.69,-49.25,1
1108,20.77,-83.91,-36.55,1
1109,20.79,-58.23,16.52,1
1110,20.8,-45.64,-58.17,1
1111,20.81,-66.61,-18.94,1
1112,20.83,-52.09,7.92,1
1113,20.84,-19.06,-39.13,1
1114,20.85,-41.34,-5.14,1
1115,20.87,-25.35,30.4,1
1116,20.88,-1.9,-19.61,1
1117,20.89,-35.81,-0.42,1
1118,20.9,-10.66,33.05,1
1119,20.92,11.63,-49.06,1
1120,20.93,-12.13,-30.62,1
1121,20.94,5.65,33.6,1
1122,20.96,19.42,-29.1,1
1123,20.97,14.56,-2.1,1
1124,20.99,17.98,41.3,1
1125,21.0,70.96,-47.81,1
1126,21.01,10.04,10.06,1
1127,21.03,36.86,27.02,1
1128,21.04,31.73,-32.1,1
1129,21.05,4.38,7.16,1
1130,21.07,10.5,46.96,1
1131,21.08,35.15,-37.36,1
1132,21.09,14.88,1.41,1
1133,21.11,38.14,35.2,1
1134,21.12,73.51,-27.58,1
1135,21.13,40.43,-0.18,1
1136,21.15,62.18,45.05,1
1137,21.16,60.81,-30.87,1
1138,21.17,34.83,-6.52,1
1139,21.19,37.15,31.03,1
1140,21.2,43.25,-28.55,1
1141,21.21,24.77,-12.42,1
1142,21.23,51.46,52.32,1
1143,21.24,49.23,-19.49,1
1144,21.25,23.5,3.83,1
1145,21.27,27.47,35.49,1
1146,21.28,49.24,-12.44,1
1147,21.29,-1.1,17.94,1
1148,21.31,28.09,44.53,1
1149,21.32,19.28,-25.1,1
1150,21.33,-8.38,-7.0,1
1151,21.35,11.94,34.85,1
1152,21.36,31.79,-25.66,1
1153,21.37,-0.8,26.14,1
1154,21.39,13.04,38.6,1
1155,21.4,14.07,-31.38,1
1156,21.41,-29.2,2.54,1
1157,21.43,10.24,23.22,1
1158,21.44,5.5,-34.78,1
1159,21.45,-28.69,-14.2,1
1160,21.47,-19.89,22.8,1
1161,21.48,11.51,-22.85,1
1162,21.49,-18.28,-6.41,1
1163,21.51,-7.91,35.89,1
1164,21.52,-7.32,-11.92,1
1165,21.53,-28.58,0.22,1
1166,21.54,-21.23,48.48,1
1167,21.56,7.73,-29.44,1
1168,21.57,-40.56,-25.74,1
1169,21.58,-13.71,24.79,1
1170,21.6,6.45,-23.22,1
1171,21.61,-47.11,7.37,1
1172,21.625,-20.27,36.78,1
1173,21.64,-13.51,-22.7,1
1174,21.65,-19.21,-0.85,1
1175,21.67,-5.01,23.62,1
1176,21.68,7.05,-43.4,1
1177,21.69,-19.72,-1.1,1
1178,21.71,-7.54,9.96,1
1179,21.72,4.08,-21.16,1
1180,21.73,-21.7,-14.35,1
1181,21.75,-10.57,15.03,1
1182,21.76,1.56,-7.08,1
1183,21.77,-23.64,-11.85,1
1184,21.79,2.85,20.58,1
1185,21.8,7.88,1.81,1
1186,21.81,-28.98,-23.12,1
1187,21.83,4.59,-12.06,1
1188,21.84,-0.46,-5.76,1
1189,21.85,-8.34,0.53,1
1190,21.87,-11.24,25.92,1
1191,21.88,11.61,-21.12,1
1192,21.89,-19.54,-5.16,1
1193,21.91,-13.39,4.44,1
1194,21.92,7.66,3.84,1
1195,21.93,-1.52,17.12,1
1196,21.95,-1.05,20.94,1
1197,21.96,5.52,-7.8,1
1198,21.97,-12.8,-22.59,1
1199,21.99,7.44,20.06,1
1200,22.0,8.5,-8.24,1
1201,22.01,-12.15,-0.16,1
1202,22.03,0.98,7.97,1
1203,22.04,16.94,-14.28,1
1204,22.05,0.78,19.22,1
1205,22.07,10.72,-3.18,1
1206,22.08,5.87,-10.57,1
1207,22.09,-7.55,-30.16,1
1208,22.11,17.19,-17.6,1
1209,22.12,2.28,-4.73,1
1210,22.13,-4.19,-15.23,1
1211,22.15,16.92,13.97,1
1212,22.16,15.9,24.87,2
1213,22.17,-1.92,-9.24,2
1214,22.18,27.66,2.23,2
1215,22.2,3.51,-9.74,2
1216,22.21,-9.15,-7.22,2
1217,22.22,-9.97,7.18,2
1218,22.24,28.62,-0.04,2
1219,22.25,99.11,20.68,2
1220,22.26,170.51,39.24,2
1221,22.28,209.7,50.38,2
1222,22.29,197.43,22.17,2
1223,22.31,192.77,-3.25,2
1224,22.32,135.68,19.97,2
1225,22.33,107.03,-5.18,2
1226,22.35,40.13,-1.17,2
1227,22.36,7.52,3.55,2
1228,22.37,-14.39,-34.68,2
1229,22.39,-77.44,-42.63,2
1230,22.4,-195.63,-25.77,2
1231,22.41,-300.33,-43.44,2
1232,22.43,-327.59,-26.99,2
1233,22.44,-306.01,-8.61,2
1234,22.45,-305.65,-20.02,2
1235,22.47,-263.19,-12.35,2
1236,22.48,-237.46,17.99,2
1237,22.49,-207.57,-25.72,2
1238,22.51,-143.8,-3.69,2
1239,22.52,-111.42,13.42,2
1240,22.53,-105.47,-16.32,2
1241,22.55,-43.96,-13.22,1
1242,22.56,-5.38,3.99,1
1243,22.57,-8.84,-33.54,1
1244,22.59,21.68,-15.49,1
1245,22.6,59.22,20.5,1
1246,22.61,63.88,-4.3,1
1247,22.63,87.24,2.26,1
1248,22.64,108.11,18.32,1
1249,22.65,104.77,-10.09,1
1250,22.67,110.16,12.81,1
1251,22.68,115.86,31.67,1
1252,22.69,113.22,14.34,1
1253,22.71,110.83,4.58,1
1254,22.72,115.94,27.16,1
1255,22.73,115.39,18.89,1
1256,22.75,137.23,4.95,1
1257,22.76,151.27,50.12,1
1258,22.77,120.71,2.32,1
1259,22.79,104.65,26.5,1
1260,22.8,104.56,47.15,1
1261,22.81,69.74,1.92,1
1262,22.82,72.25,10.58,1
1263,22.84,68.33,20.03,1
1264,22.85,56.11,-25.08,1
1265,22.86,46.73,1.58,1
1266,22.88,45.23,18.95,1
1267,22.89,27.32,-9.38,1
1268,22.9,19.61,-11.8,1
1269,22.92,19.97,40.36,1
1270,22.93,4.54,8.9,1
1271,22.95,16.37,-8.66,1
1272,22.96,25.95,14.74,1
1273,22.97,-17.3,-28.56,1
1274,22.99,-11.81,-16.68,1
1275,23.0,-15.51,16.73,1
1276,23.01,-13.57,-32.35,1
1277,23.03,-14.03,-20.88,1
1278,23.04,-9.53,25.32,1
1279,23.05,-29.74,-33.26,1
1280,23.07,-36.37,-15.6,1
1281,23.08,-21.48,30.73,1
1282,23.09,-36.03,-34.68,1
1283,23.11,-29.86,-11.47,1
1284,23.12,-34.39,31.52,1
1285,23.13,-48.21,-23.26,1
1286,23.15,-44.07,-13.57,1
1287,23.16,-27.22,19.96,1
1288,23.17,-54.66,-38.1,1
1289,23.19,-50.52,-10.85,1
1290,23.2,-39.49,27.28,1
1291,23.21,-47.38,-18.97,1
1292,23.23,-51.29,-15.24,1
1293,23.24,-37.67,38.87,1
1294,23.25,-48.13,-28.49,1
1295,23.27,-38.04,-26.29,1
1296,23.28,-14.65,28.77,1
1297,23.29,-50.13,-44.42,1
1298,23.31,-23.62,-7.58,1
1299,23.32,-31.63,36.89,1
1300,23.33,-25.76,-21.79,1
1301,23.35,-28.99,-15.07,1
1302,23.36,-12.19,56.09,1
1303,23.37,-14.22,-37.78,1
1304,23.39,-19.51,-10.77,1
1305,23.4,-18.34,17.09,1
1306,23.41,-5.14,-11.78,1
1307,23.43,0.22,-7.21,1
1308,23.44,4.79,23.45,1
1309,23.45,-14.74,-39.95,1
1310,23.46,-16.42,-0.37,1
1311,23.48,0.28,32.14,1
1312,23.49,0.14,-30.1,1
1313,23.5,-5.75,-21.62,1
1314,23.52,14.82,31.29,1
1315,23.53,3.33,-25.55,1
1316,23.54,6.72,18.32,1
1317,23.56,9.61,34.0,1
1318,23.57,5.73,-35.04,1
1319,23.59,4.49,-5.25,1
1320,23.6,13.85,33.12,1
1321,23.61,3.5,-10.45,1
1322,23.63,18.69,5.26,1
1323,23.64,20.63,40.49,1
1324,23.65,7.08,-29.36,1
1325,23.67,16.76,3.57,1
1326,23.68,26.68,43.53,1
1327,23.69,16.24,-48.62,1
1328,23.71,7.47,-5.65,1
1329,23.72,13.39,37.18,1
1330,23.73,11.92,-39.61,1
1331,23.75,16.54,-11.26,1
1332,23.76,16.14,42.03,1
1333,23.77,19.99,-36.13,1
1334,23.79,-5.83,-4.24,1
1335,23.8,19.12,35.14,1
1336,23.81,-2.88,-42.83,1
1337,23.83,6.36,-7.81,1
1338,23.84,20.73,53.29,1
1339,23.85,7.33,-39.5,1
1340,23.87,9.24,1.49,1
1341,23.88,5.03,44.12,1
1342,23.89,11.83,-40.05,1
1343,23.91,9.85,10.47,1
1344,23.92,10.46,65.15,1
1345,23.93,16.6,-14.0,1
1346,23.95,-9.7,17.02,1
1347,23.96,6.91,50.78,1
1348,23.97,-8.29,-39.92,1
1349,23.99,-2.56,9.42,1
1350,24.0,2.57,37.42,1
1351,24.01,4.81,-38.15,1
1352,24.03,-2.14,-2.66,1
1353,24.04,-3.22,20.55,1
1354,24.05,-4.4,-31.81,1
1355,24.07,4.94,-12.42,1
1356,24.08,-4.19,35.62,1
1357,24.09,14.28,-48.69,1
1358,24.1,-9.57,-13.71,1
1359,24.12,2.41,56.56,1
1360,24.13,11.39,36.59,1
1361,24.14,-29.81,49.88,1
1362,24.16,-40.79,60.91,1
1363,24.17,27.56,169.45,1
1364,24.18,0.39,364.44,1
1365,24.2,-143.1,29.72,1
1366,24.21,-132.12,-201.32,1
1367,24.22,13.33,-216.55,1
1368,24.24,-277.1,96.7,1
1369,24.25,213.08,-75.08,1
1370,24.27,-326.62,89.4,1
1371,24.28,-138.52,219.64,1
1372,24.29,-151.67,117.5,1
1373,24.31,-37.32,112.96,1
1374,24.32,142.05,23.39,1
1375,24.33,8.39,-4.57,1
1376,24.35,506.42,-24.34,1
1377,24.36,68.67,-78.88,1
1378,24.37,-13.65,-96.45,1
1379,24.39,219.55,-94.37,1
1380,24.4,50.88,-135.32,1
1381,24.41,611.38,-137.87,1
1382,24.43,60.83,-124.37,1
1383,24.44,64.22,-152.96,1
1384,24.45,420.95,-219.41,1
1385,24.47,48.72,-294.6,1
1386,24.48,120.04,-189.46,1
1387,24.49,-181.07,-64.54,1
1388,24.51,-28.18,-100.98,1
1389,24.52,-388.05,-82.14,1
1390,24.53,-209.15,-204.61,1
1391,24.55,-234.13,-236.82,1
1392,24.56,-165.83,-161.77,1
1393,24.57,-181.93,-112.02,1
1394,24.59,-216.56,-32.81,1
1395,24.6,-198.31,54.07,1
1396,24.61,41.12,-249.7,1
1397,24.63,-17.11,-13.06,1
1398,24.64,13.77,126.28,1
1399,24.65,329.97,-235.73,1
1400,24.67,93.49,-66.91,1
1401,24.68,-52.28,-80.78,1
1402,24.69,201.65,76.74,1
1403,24.71,116.36,62.26,1
1404,24.72,17.01,297.02,1
1405,24.73,-87.72,140.71,1
1406,24.75,57.87,-65.48,1
1407,24.76,-258.97,443.12,1
1408,24.77,-62.44,25.55,1
1409,24.78,-221.42,144.63,1
1410,24.8,-47.7,594.3,1
1411,24.81,82.4,386.03,1
1412,24.82,-53.58,130.53,1
1413,24.84,15.46,108.77,1
1414,24.85,250.6,156.09,1
1415,24.86,-190.6,439.41,1
1416,24.88,391.96,68.04,1
1417,24.89,-140.6,-32.03,1
1418,24.91,-94.65,175.71,1
1419,24.92,237.21,305.03,1
1420,24.93,1.26,-172.23,1
1421,24.95,21.75,-187.93,1
1422,24.96,-76.74,-22.21,1
1423,24.97,-26.59,1.85,1
1424,24.99,-28.97,-85.65,1
1425,25.0,22.49,-195.07,1
1426,25.01,77.27,-314.63,1
1427,25.03,141.43,-314.98,1
1428,25.04,172.59,-246.45,1
1429,25.05,159.93,-189.44,1
1430,25.07,156.84,-75.11,1
1431,25.08,65.93,12.95,1
1432,25.09,17.7,112.41,1
1433,25.11,-71.99,123.51,1
1434,25.12,-110.79,151.67,1
1435,25.13,-102.54,149.09,1
1436,25.15,-129.6,173.02,1
1437,25.16,-169.93,229.85,1
1438,25.17,-146.28,220.47,1
1439,25.19,-164.52,195.82,1
1440,25.2,-139.02,220.48,1
1441,25.21,-97.87,168.05,1
1442,25.23,-143.22,129.3,1
1443,25.24,-104.75,139.57,1
1444,25.25,-83.03,95.18,1
1445,25.27,-88.33,60.34,1
1446,25.28,-52.26,11.43,1
1447,25.29,-65.23,3.08,1
1448,25.31,-39.64,-17.81,1
1449,25.32,-29.69,-21.22,1
1450,25.33,-0.1,-77.55,1
1451,25.35,-24.96,-58.31,1
1452,25.36,5.96,-72.97,1
1453,25.37,42.24,-128.87,1
1454,25.38,18.87,-127.02,1
1455,25.4,19.78,-149.42,1
1456,25.41,23.83,-160.2,1
1457,25.42,-6.16,-137.72,1
1458,25.44,31.16,-150.65,1
1459,25.45,62.69,-152.51,1
1460,25.46,27.67,-146.45,1
1461,25.48,44.8,-170.11,1
1462,25.49,87.41,-144.79,1
1463,25.5,42.36,-120.47,1
1464,25.52,72.48,-129.37,1
1465,25.53,69.9,-96.78,1
1466,25.55,55.9,-143.16,1
1467,25.56,62.9,-131.1,1
1468,25.57,63.76,-66.33,1
1469,25.59,41.98,-98.53,1
1470,25.6,44.18,-121.87,1
1471,25.61,57.92,-57.55,1
1472,25.63,51.16,-62.46,1
1473,25.64,44.83,-67.48,1
1474,25.65,71.26,-39.86,1
1475,25.67,27.69,-63.8,1
1476,25.68,35.52,-31.82,1
1477,25.69,48.64,-4.46,1
1478,25.71,16.52,-4.63,1
1479,25.72,20.52,-4.87,1
1480,25.73,28.52,29.38,1
1481,25.75,3.21,-9.07,1
1482,25.76,17.88,27.66,1
1483,25.77,33.55,71.78,1
1484,25.79,-2.49,30.64,1
1485,25.8,3.5,58.63,1
1486,25.81,9.1,81.45,1
1487,25.83,-17.15,52.9,1
1488,25.84,-6.3,42.79,1
1489,25.85,8.93,73.95,1
1490,25.87,-15.57,48.17,1
1491,25.88,-9.21,50.36,1
1492,25.89,12.44,100.57,1
1493,25.91,-30.9,67.5,1
1494,25.92,-23.09,29.02,1
1495,25.93,-10.02,96.82,1
1496,25.95,-40.95,39.24,1
1497,25.96,-23.03,50.76,1
1498,25.97,8.99,51.76,1
1499,25.99,-47.57,52.07,1
1500,26.0,-19.28,46.28,1
1501,26.01,-8.13,86.5,1
1502,26.02,-37.51,30.54,1
1503,26.04,-14.48,32.69,1
1504,26.05,-19.58,76.06,1
1505,26.06,-22.35,26.56,1
1506,26.08,-21.83,35.58,1
1507,26.09,-0.18,50.44,1
1508,26.1,-32.21,7.1,1
1509,26.12,-9.34,26.72,1
1510,26.13,17.92,58.95,1
1511,26.14,-12.98,-12.27,1
1512,26.16,-6.33,-33.48,2
1513,26.17,4.22,51.79,2
1514,26.19,-37.08,10.29,2
1515,26.2,-12.49,-8.88,2
1516,26.21,24.0,8.36,2
1517,26.23,107.29,-36.98,2
1518,26.24,190.53,-11.13,2
1519,26.25,249.0,37.46,2
1520,26.27,154.49,-51.82,2
1521,26.28,130.99,-27.2,2
1522,26.29,80.9,49.95,2
1523,26.31,-36.0,-23.32,2
1524,26.32,-79.56,-23.57,2
1525,26.33,-116.34,15.61,2
1526,26.35,-165.5,-25.87,2
1527,26.36,-190.3,-36.6,2
1528,26.37,-157.52,17.0,2
1529,26.39,-217.21,-36.22,2
1530,26.4,-182.22,-33.85,2
1531,26.41,-158.2,30.8,2
1532,26.43,-163.79,-52.83,2
1533,26.44,-138.61,-18.68,2
1534,26.45,-98.91,31.61,2
1535,26.47,-103.74,-17.54,2
1536,26.48,-63.97,2.6,2
1537,26.49,-23.86,50.58,2
1538,26.51,-48.27,-38.07,2
1539,26.52,-22.95,-3.53,2
1540,26.53,9.94,27.88,2
1541,26.55,-3.44,-45.31,1
1542,26.56,29.92,-11.58,1
1543,26.57,41.49,22.67,1
1544,26.59,27.05,-36.97,1
1545,26.6,44.88,-30.43,1
1546,26.61,88.49,18.14,1
1547,26.63,59.02,-55.3,1
1548,26.64,83.28,-37.47,1
1549,26.65,90.04,15.32,1
1550,26.67,54.29,-37.34,1
1551,26.68,88.27,-24.35,1
1552,26.69,100.28,10.88,1
1553,26.7,71.21,-60.03,1
1554,26.72,93.69,-20.68,1
1555,26.73,104.27,24.8,1
1556,26.75,68.66,-48.22,1
1557,26.76,75.55,-21.92,1
1558,26.77,84.6,51.93,1
1559,26.78,54.57,-31.66,1
1560,26.8,80.91,-2.74,1
1561,26.81,89.17,43.83,1
1562,26.825,45.66,-32.72,1
1563,26.84,37.08,-0.27,1
1564,26.85,45.17,42.33,1
1565,26.87,11.31,-41.48,1
1566,26.88,21.78,-36.15,1
1567,26.89,38.52,29.17,1
1568,26.91,-12.63,-44.72,1
1569,26.92,-10.27,-4.11,1
1570,26.93,22.29,28.05,1
1571,26.95,-22.57,-38.35,1
1572,26.96,-5.03,-11.72,1
1573,26.97,3.13,45.54,1
1574,26.99,-25.9,-30.81,1
1575,27.0,-20.8,-13.54,1
1576,27.01,2.18,28.0,1
1577,27.03,-42.13,-17.13,1
1578,27.04,-27.32,9.35,1
1579,27.05,-15.32,57.09,1
1580,27.07,-44.75,-38.22,1
1581,27.08,-23.19,31.92,1
1582,27.09,-21.45,61.96,1
1583,27.11,-56.14,-3.74,1
1584,27.12,-35.27,14.76,1
1585,27.13,-7.77,49.65,1
1586,27.15,-35.47,-25.96,1
1587,27.16,-26.01,14.49,1
1588,27.17,-15.96,47.73,1
1589,27.19,-41.28,-16.93,1
1590,27.2,-44.25,3.23,1
1591,27.21,-12.87,44.76,1
1592,27.23,-36.24,-10.11,1
1593,27.24,-29.71,-5.78,1
1594,27.25,-6.74,31.98,1
1595,27.27,-29.96,-36.06,1
1596,27.28,-12.09,5.11,1
1597,27.29,-7.3,47.59,1
1598,27.3,-42.5,-28.13,1
1599,27.32,8.56,-3.21,1
1600,27.33,-9.34,53.4,1
1601,27.34,-36.58,-29.38,1
1602,27.36,0.16,-12.37,1
1603,27.37,2.57,30.85,1
1604,27.38,-24.98,-38.08,1
1605,27.4,-21.65,-0.15,1
1606,27.41,1.34,15.97,1
1607,27.42,-26.69,-21.5,1
1608,27.44,-0.07,1.0,1
1609,27.45,10.53,44.82,1
1610,27.46,-28.07,-27.27,1
1611,27.48,-8.48,-4.65,1
1612,27.49,20.42,37.83,1
1613,27.51,-7.59,-31.57,1
1614,27.52,2.6,-18.82,1
1615,27.53,17.54,29.91,1
1616,27.55,-8.64,-27.9,1
1617,27.56,10.23,-1.93,1
1618,27.57,21.33,14.1,1
1619,27.59,-21.28,-33.83,1
1620,27.6,11.11,-10.48,1
1621,27.61,32.43,25.24,1
1622,27.63,6.42,-31.05,1
1623,27.64,25.66,-7.86,1
1624,27.65,33.22,22.36,1
1625,27.67,-14.81,-5.94,1
1626,27.68,13.32,-2.52,1
1627,27.69,30.23,8.83,1
1628,27.71,-4.46,-42.82,1
1629,27.72,9.86,-20.43,1
1630,27.73,19.17,17.81,1
1631,27.75,-18.33,-13.06,1
1632,27.76,14.44,-4.69,1
1633,27.77,23.92,25.54,1
1634,27.79,1.28,-19.91,1
1635,27.8,13.14,-2.23,1
1636,27.81,26.24,16.29,1
1637,27.83,-11.39,-23.52,1
1638,27.84,12.72,-6.33,1
1639,27.85,20.47,10.9,1
1640,27.87,-4.61,-21.36,1
1641,27.88,-1.66,-21.86,1
1642,27.89,10.85,29.39,1
1643,27.91,-27.15,-5.34,1
1644,27.92,9.51,-3.28,1
1645,27.93,14.38,11.18,1
1646,27.94,-9.3,-6.92,1
1647,27.96,3.29,3.89,1
1648,27.97,17.08,17.92,1
1649,27.98,-22.96,-27.08,1
1650,28.0,3.74,9.64,1
1651,28.01,19.41,30.82,1
1652,28.02,-14.67,-18.58,1
1653,28.04,-1.84,-4.37,1
1654,28.05,-5.46,8.65,1
1655,28.06,-11.78,-16.63,1
1656,28.08,1.38,10.29,1
1657,28.09,17.89,23.03,1
1658,28.1,-13.14,4.79,1
1659,28.12,2.22,-8.68,1
1660,28.13,17.95,0.43,1
1661,28.15,-17.59,8.56,1
1662,28.16,-2.29,15.29,0
1663,28.17,2.4,16.98,0
1664,28.19,-15.41,4.49,0
1665,28.2,-20.93,-14.14,0
1666,28.21,-35.75,4.58,0
1667,28.23,-138.83,-9.74,0
1668,28.24,-169.28,-14.35,0
1669,28.25,-159.33,22.82,0
1670,28.27,-198.92,18.67,0
1671,28.28,-174.48,34.24,0
1672,28.29,-134.54,18.74,0
1673,28.31,-71.2,-33.42,0
1674,28.32,-50.02,-66.62,0
1675,28.33,-2.78,-74.31,0
1676,28.35,62.35,-75.3,0
1677,28.36,211.85,-31.62,0
1678,28.37,290.41,-18.69,0
1679,28.39,294.22,-15.52,0
1680,28.4,299.19,27.07,0
1681,28.41,297.36,27.75,0
1682,28.43,224.44,26.79,0
1683,28.44,228.39,32.19,0
1684,28.45,192.86,44.44,0
1685,28.47,118.57,50.26,0
1686,28.48,105.01,33.13,0
1687,28.49,108.37,10.83,0
1688,28.51,40.74,18.31,0
1689,28.52,28.56,-2.08,0
1690,28.53,5.16,8.42,0
1691,28.55,-51.37,9.67,1
1692,28.56,-52.85,3.14,1
1693,28.57,-60.2,-0.4,1
1694,28.58,-90.01,-3.14,1
1695,28.6,-83.08,-7.83,1
1696,28.61,-94.56,-21.36,1
1697,28.62,-123.64,27.9,1
1698,28.64,-100.22,-9.46,1
1699,28.65,-96.13,13.32,1
1700,28.67,-124.43,26.46,1
1701,28.68,-99.47,-4.35,1
1702,28.69,-97.1,-6.49,1
1703,28.7,-126.23,21.41,1
1704,28.72,-108.23,-4.77,1
1705,28.73,-76.01,-4.27,1
1706,28.75,-114.88,-2.6,1
1707,28.76,-80.05,-4.44,1
1708,28.77,-74.82,-0.52,1
1709,28.79,-86.62,20.68,1
1710,28.8,-61.27,-31.04,1
1711,28.81,-47.85,-15.17,1
1712,28.83,-67.01,4.87,1
1713,28.84,-32.06,-27.84,1
1714,28.85,-31.65,-32.37,1
1715,28.87,-46.23,18.06,1
1716,28.88,-25.64,-22.99,1
1717,28.89,-13.35,-16.33,1
1718,28.91,-17.3,-8.68,1
1719,28.92,-13.3,-19.44,1
1720,28.93,4.94,-15.33,1
1721,28.95,-2.5,14.03,1
1722,28.96,9.35,-8.95,1
1723,28.97,22.74,-9.96,1
1724,28.99,5.95,5.8,1
1725,29.0,20.57,-29.66,1
1726,29.01,36.43,0.44,1
1727,29.03,5.91,14.61,1
1728,29.04,48.45,-19.9,1
1729,29.05,51.16,-12.25,1
1730,29.07,24.63,19.92,1
1731,29.08,35.15,-13.08,1
1732,29.09,58.15,-13.58,1
1733,29.11,33.38,3.44,1
1734,29.12,40.4,-7.44,1
1735,29.13,53.24,1.06,1
1736,29.15,29.07,7.79,1
1737,29.16,49.24,-14.63,1
1738,29.17,35.56,4.1,1
1739,29.19,22.82,43.38,1
1740,29.2,51.63,-21.11,1
1741,29.21,47.7,14.3,1
1742,29.22,24.51,45.51,1
1743,29.24,45.78,-1.97,1
1744,29.25,39.18,-17.48,1
1745,29.26,25.48,22.23,1
1746,29.28,33.08,0.6,1
1747,29.29,35.47,6.38,1
1748,29.3,8.94,35.99,1
1749,29.32,26.99,-23.68,1
1750,29.33,27.96,-8.42,1
1751,29.34,9.21,29.52,1
1752,29.36,22.63,-9.95,1
1753,29.37,5.63,5.04,1
1754,29.38,3.54,23.92,1
1755,29.4,3.86,-31.89,1
1756,29.41,12.35,18.25,1
1757,29.425,-5.4,28.13,1
1758,29.44,0.69,-25.17,1
1759,29.45,17.31,-22.23,1
1760,29.47,-6.9,37.6,1
1761,29.48,-21.75,-8.51,1
1762,29.49,-1.17,-17.94,1
1763,29.51,-30.2,26.99,1
1764,29.52,-6.8,-27.47,1
1765,29.53,-6.01,20.18,1
1766,29.55,-16.39,22.85,1
1767,29.56,-16.53,-34.78,1
1768,29.57,0.49,7.85,1
1769,29.59,-16.28,31.48,1
1770,29.6,-19.15,-28.25,1
1771,29.61,-6.49,9.11,1
1772,29.63,-26.58,37.16,1
1773,29.64,-32.81,-32.08,1
1774,29.65,5.25,11.53,1
1775,29.67,-13.82,45.87,1
1776,29.68,-15.07,-39.27,1
1777,29.69,-0.9,-40.95,1
1778,29.71,-19.01,31.39,1
1779,29.72,-22.46,-42.12,1
1780,29.73,-4.09,-1.25,1
1781,29.75,-18.15,41.58,1
1782,29.76,-13.28,-29.85,1
1783,29.77,-4.65,-18.9,1
1784,29.79,-0.78,21.83,1
1785,29.8,-6.15,-25.16,1
1786,29.81,3.49,-6.17,1
1787,29.83,-13.53,43.8,1
1788,29.84,-5.35,-38.71,1
1789,29.85,-11.15,5.04,1
1790,29.86,-13.1,26.89,1
1791,29.88,2.51,-39.28,1
1792,29.89,8.79,-0.48,1
1793,29.9,3.44,7.73,1
1794,29.92,-3.72,-47.89,1
1795,29.93,-1.76,-0.95,1
1796,29.94,-6.27,27.22,1
1797,29.96,-6.29,-39.27,1
1798,29.97,9.63,1.95,1
1799,29.98,-6.19,49.52,1
1800,30.0,11.9,-43.93,1
1801,30.01,7.19,8.91,1
1802,30.02,2.55,59.31,1
1803,30.04,-2.55,-36.49,1
1804,30.05,-30.64,14.6,1
1805,30.06,-4.43,36.58,1
1806,30.08,-1.12,-24.28,1
1807,30.09,22.91,2.2,1
1808,30.11,-7.73,55.22,1
1809,30.12,2.22,-44.96,1
1810,30.13,13.66,13.68,1
1811,30.15,-4.79,29.66,1
1812,30.16,-8.51,-57.44,0
1813,30.17,15.23,-42.08,0
1814,30.19,5.23,1.84,0
1815,30.2,-2.16,7.18,0
1816,30.21,7.23,39.78,0
1817,30.23,3.98,67.66,0
1818,30.24,-33.47,-77.97,0
1819,30.25,-130.59,-43.38,0
1820,30.27,-204.64,-23.42,0
1821,30.28,-220.04,-79.68,0
1822,30.29,-184.6,-37.77,0
1823,30.31,-146.92,34.48,0
1824,30.32,-78.63,-37.94,0
1825,30.33,-23.87,24.13,0
1826,30.35,41.03,55.34,0
1827,30.36,99.72,-45.44,0
1828,30.37,162.32,35.46,0
1829,30.39,176.64,42.78,0
1830,30.4,189.71,28.88,0
1831,30.41,185.66,109.12,0
1832,30.43,217.37,122.75,0
1833,30.44,170.41,54.27,0
1834,30.45,160.36,-26.44,0
1835,30.47,179.5,-52.67,0
1836,30.48,172.54,-103.54,0
1837,30.49,152.06,-30.84,0
1838,30.5,136.14,-15.71,0
1839,30.52,100.55,-32.46,0
1840,30.53,69.09,-47.83,0
1841,30.54,47.82,40.13,0
1842,30.56,24.74,-40.47,1
1843,30.57,-0.97,-13.71,1
1844,30.58,-10.9,38.04,1
1845,30.6,-21.03,13.91,1
1846,30.61,-34.32,20.4,1
1847,30.62,-51.16,63.26,1
1848,30.64,-77.03,20.0,1
1849,30.65,-72.11,28.88,1
1850,30.67,-108.47,35.47,1
1851,30.68,-108.57,-20.86,1
1852,30.69,-103.12,-0.15,1
1853,30.7,-101.89,47.24,1
1854,30.72,-112.98,-28.55,1
1855,30.73,-113.16,-15.13,1
1856,30.75,-97.04,31.58,1
1857,30.76,-85.52,-28.64,1
1858,30.77,-104.26,-20.82,1
1859,30.79,-98.25,21.85,1
1860,30.8,-91.78,-19.96,1
1861,30.81,-75.08,-14.29,1
1862,30.83,-74.98,9.33,1
1863,30.84,-69.22,-31.09,1
1864,30.85,-63.36,-3.34,1
1865,30.87,-54.35,19.43,1
1866,30.88,-53.51,-35.12,1
1867,30.89,-41.4,-26.56,1
1868,30.91,-24.37,17.97,1
1869,30.92,-55.06,-23.53,1
1870,30.93,-46.95,-49.83,1
1871,30.95,-11.72,4.95,1
1872,30.96,-8.4,-29.15,1
1873,30.97,13.63,-6.72,1
1874,30.99,1.6,14.29,1
1875,31.0,-4.43,-19.5,1
1876,31.01,13.84,1.71,1
1877,31.03,27.17,-6.28,1
1878,31.04,37.7,-30.8,1
1879,31.05,42.4,-10.05,1
1880,31.07,30.08,29.1,1
1881,31.08,31.87,-21.29,1
1882,31.09,36.95,-9.34,1
1883,31.11,48.45,35.89,1
1884,31.12,28.73,-27.17,1
1885,31.13,39.19,-20.23,1
1886,31.14,48.47,24.59,1
1887,31.16,23.23,-14.9,1
1888,31.17,33.86,3.52,1
1889,31.18,46.13,17.11,1
1890,31.2,35.72,-8.84,1
1891,31.21,42.09,1.85,1
1892,31.22,52.81,21.41,1
1893,31.24,24.46,-5.03,1
1894,31.25,35.91,15.78,1
1895,31.26,39.64,19.04,1
1896,31.28,9.56,-22.75,1
1897,31.29,20.04,-6.2,1
1898,31.3,25.47,-2.59,1
1899,31.32,24.41,14.77,1
1900,31.33,21.8,18.83,1
1901,31.34,46.92,23.85,1
1902,31.36,13.13,-6.13,1
1903,31.37,34.32,27.71,1
1904,31.39,18.37,40.83,1
1905,31.4,-1.69,-0.13,1
1906,31.41,11.73,16.14,1
1907,31.43,2.0,19.65,1
1908,31.44,15.1,3.99,1
1909,31.45,7.1,-2.25,1
1910,31.47,24.2,29.98,1
1911,31.48,-14.35,1.59,1
1912,31.49,-6.07,3.05,1
1913,31.51,13.62,4.58,1
1914,31.52,-8.8,-0.86,1
1915,31.53,-7.81,-19.83,1
1916,31.55,15.83,-19.64,1
1917,31.56,-7.16,-10.58,1
1918,31.57,-19.24,-20.34,1
1919,31.59,4.59,19.03,1
1920,31.6,-17.74,2.53,1
1921,31.61,-11.01,0.35,1
1922,31.63,-6.59,-30.39,1
1923,31.64,-30.7,-3.96,1
1924,31.65,-17.44,-15.19,1
1925,31.67,-4.48,0.82,1
1926,31.68,-14.71,18.82,1
1927,31.69,-13.2,-24.53,1
1928,31.71,6.96,-17.06,1
1929,31.72,-18.86,16.63,1
1930,31.73,-15.21,-3.19,1
1931,31.75,-12.47,-2.06,1
1932,31.76,-12.19,-9.03,1
1933,31.77,-13.83,-2.82,1
1934,31.78,1.15,-3.04,1
1935,31.8,-12.23,14.29,1
1936,31.81,7.6,-15.9,1
1937,31.82,7.95,-14.87,1
1938,31.84,-26.78,8.48,1
1939,31.85,-23.39,-17.15,1
1940,31.86,-2.18,3.84,1
1941,31.88,-20.16,21.67,1
1942,31.89,-33.33,-2.03,1
1943,31.9,6.33,-8.35,1
1944,31.92,-28.03,26.68,1
1945,31.93,-1.34,-5.6,1
1946,31.94,11.44,-3.4,1
1947,31.96,-15.65,-7.75,1
1948,31.97,-18.03,-28.01,1
1949,31.98,18.05,4.58,1
1950,32.0,-25.04,5.04,1
1951,32.01,5.03,-16.43,1
1952,32.03,13.7,3.46,1
1953,32.04,-9.9,13.94,1
1954,32.05,-20.01,-7.1,1
1955,32.07,7.49,2.05,1
1956,32.08,4.31,31.46,1
1957,32.09,4.02,0.59,1
1958,32.11,17.15,-0.21,1
1959,32.12,8.26,10.34,1
1960,32.13,6.5,3.11,1
1961,32.15,21.98,-11.52,1
1962,32.16,6.27,64.04,2
1963,32.17,-15.46,-14.47,2
1964,32.19,33.57,-10.96,2
1965,32.2,-17.86,20.44,2
1966,32.21,105.37,23.6,2
1967,32.23,197.88,0.8,2
1968,32.24,206.16,52.55,2
1969,32.25,240.21,-24.32,2
1970,32.27,194.77,-23.73,2
1971,32.28,141.4,31.24,2
1972,32.29,77.25,-25.88,2
1973,32.31,54.8,3.94,2
1974,32.32,4.08,2.96,2
1975,32.33,-42.13,-52.99,2
1976,32.35,-95.32,-36.39,2
1977,32.36,-277.18,19.3,2
1978,32.37,-288.08,-57.3,2
1979,32.39,-307.56,-31.74,2
1980,32.4,-330.77,22.74,2
1981,32.41,-302.46,-20.56,2
1982,32.43,-249.32,-37.6,2
1983,32.44,-223.07,7.65,2
1984,32.45,-146.63,-7.82,2
1985,32.47,-72.16,-8.21,2
1986,32.48,-79.96,28.21,2
1987,32.49,-60.65,-12.88,2
1988,32.51,-17.61,-1.65,2
1989,32.52,-42.97,9.61,2
1990,32.53,-10.7,-33.95,2
1991,32.54,37.72,8.09,2
1992,32.56,45.23,61.3,1
1993,32.57,41.65,-15.52,1
1994,32.59,91.05,-0.17,1
1995,32.6,57.05,37.68,1
1996,32.61,89.27,-11.09,1
1997,32.63,107.14,-1.87,1
1998,32.64,88.2,48.7,1
1999,32.65,100.71,-20.18,1
2000,32.67,123.47,-9.4,1
2001,32.68,94.42,36.57,1
2002,32.69,115.08,-29.42,1
2003,32.71,135.23,-22.54,1
2004,32.72,108.29,43.74,1
2005,32.73,104.96,-14.44,1
2006,32.75,114.95,13.91,1
2007,32.76,79.39,50.7,1
2008,32.77,80.19,-29.26,1
2009,32.79,90.94,-10.35,1
2010,32.8,57.88,36.19,1
2011,32.81,68.87,-36.25,1
2012,32.83,73.2,-11.14,1
2013,32.84,43.09,37.42,1
2014,32.85,33.91,-20.72,1
2015,32.87,53.8,24.65,1
2016,32.88,7.34,31.55,1
2017,32.89,20.89,-28.91,1
2018,32.91,37.81,4.12,1
2019,32.92,13.61,37.36,1
2020,32.93,10.01,-50.25,1
2021,32.95,18.75,-3.82,1
2022,32.96,-30.6,32.07,1
2023,32.97,-10.97,-41.6,1
2024,32.99,-0.32,-10.41,1
2025,33.0,-32.06,26.47,1
2026,33.01,-32.5,-40.07,1
2027,33.03,-10.35,-6.41,1
2028,33.04,-56.13,32.62,1
2029,33.05,-38.39,-36.66,1
2030,33.06,-19.89,-6.22,1
2031,33.08,-55.02,27.4,1
2032,33.09,-54.43,-29.05,1
2033,33.11,-33.98,-24.63,1
2034,33.12,-63.44,44.61,1
2035,33.13,-42.05,-40.02,1
2036,33.15,-28.83,-2.08,1
2037,33.16,-52.22,39.69,1
2038,33.17,-26.9,-40.87,1
2039,33.19,-48.86,-9.82,1
2040,33.2,-56.55,14.22,1
2041,33.21,-40.38,-32.65,1
2042,33.22,-23.77,-19.85,1
2043,33.24,-55.06,35.77,1
2044,33.25,-41.56,-32.49,1
2045,33.27,-34.44,-8.54,1
2046,33.28,-42.29,32.11,1
2047,33.29,-36.68,-23.5,1
2048,33.31,7.7,21.52,1
2049,33.32,-21.58,39.76,1
2050,33.33,-19.9,-32.15,1
2051,33.35,-4.13,20.12,1
2052,33.36,-37.7,43.7,1
2053,33.37,2.08,-21.39,1
2054,33.39,10.94,-15.54,1
2055,33.4,-21.19,43.25,1
2056,33.41,-4.53,-27.9,1
2057,33.43,8.43,-1.45,1
2058,33.44,-18.95,33.48,1
2059,33.45,-18.76,-38.82,1
2060,33.47,4.25,-5.63,1
2061,33.48,-20.08,28.55,1
2062,33.49,18.63,-27.45,1
2063,33.51,31.52,4.35,1
2064,33.52,-7.35,43.49,1
2065,33.53,26.59,-21.17,1
2066,33.55,16.57,3.26,1
2067,33.56,2.94,31.58,1
2068,33.57,21.97,-1.01,1
2069,33.59,32.56,-17.6,1
2070,33.6,-7.15,49.67,1
2071,33.61,10.74,-19.36,1
2072,33.63,30.2,-13.45,1
2073,33.64,-15.73,11.15,1
2074,33.65,10.35,-8.37,1
2075,33.67,22.88,-3.51,1
2076,33.68,0.47,20.25,1
2077,33.69,13.31,-25.87,1
2078,33.71,32.42,2.06,1
2079,33.72,-5.86,27.95,1
2080,33.73,23.99,-26.49,1
2081,33.75,28.82,-5.21,1
2082,33.76,0.69,32.61,1
2083,33.77,14.34,-36.55,1
2084,33.79,19.8,1.32,1
2085,33.8,10.29,22.05,1
2086,33.81,17.86,-24.75,1
2087,33.83,29.96,-9.42,1
2088,33.84,-5.06,26.83,1
2089,33.85,2.05,-22.68,1
2090,33.87,20.16,-8.57,1
2091,33.88,-5.57,2.35,1
2092,33.89,10.22,-38.2,1
2093,33.9,17.36,3.77,1
2094,33.92,-21.43,15.25,1
2095,33.93,-1.94,-37.92,1
2096,33.95,27.36,1.77,1
2097,33.96,-12.58,7.76,1
2098,33.97,-2.04,-15.15,1
2099,33.99,15.32,-19.92,1
2100,34.0,-21.95,2.05,1
2101,34.01,-6.25,-0.5,1
2102,34.03,-7.28,-6.34,1
2103,34.04,-28.03,28.4,1
2104,34.05,-23.68,5.32,1
2105,34.07,22.08,17.45,1
2106,34.08,-26.33,36.81,1
2107,34.09,-4.49,-12.75,1
2108,34.11,18.79,2.9,1
2109,34.12,-23.64,35.36,1
2110,34.13,-4.96,7.85,1
2111,34.15,24.0,17.74,1
2112,34.16,-23.15,17.77,1
2113,34.17,-9.32,15.66,1
2114,34.19,9.32,214.2,1
2115,34.2,6.66,328.99,1
2116,34.21,138.6,157.01,1
2117,34.23,-399.03,-181.22,1
2118,34.24,-13.91,-181.79,1
2119,34.25,126.08,89.26,1
2120,34.27,-105.66,-87.05,1
2121,34.28,-123.84,245.46,1
2122,34.29,-266.09,54.02,1
2123,34.31,-154.69,24.47,1
2124,34.32,-121.34,132.31,1
2125,34.33,21.31,22.44,1
2126,34.35,-20.78,35.39,1
2127,34.36,-38.96,-42.18,1
2128,34.37,44.06,-63.98,1
2129,34.38,379.34,-73.78,1
2130,34.4,439.85,-127.55,1
2131,34.41,-109.53,-119.64,1
2132,34.43,181.86,-116.25,1
2133,34.44,104.84,-142.59,1
2134,34.45,14.12,-147.59,1
2135,34.47,203.29,-126.24,1
2136,34.48,254.66,-148.52,1
2137,34.49,88.24,-150.37,1
2138,34.51,-30.12,-120.95,1
2139,34.52,66.54,-153.03,1
2140,34.53,-29.88,-310.49,1
2141,34.54,7.26,-465.27,1
2142,34.56,31.26,63.77,1
2143,34.57,124.11,-76.05,1
2144,34.59,-19.94,-148.89,1
2145,34.6,-178.06,-227.0,1
2146,34.61,100.54,-115.24,1
2147,34.63,117.6,-34.17,1
2148,34.64,332.25,-92.74,1
2149,34.65,86.17,167.72,1
2150,34.67,-297.12,154.01,1
2151,34.68,-32.24,173.47,1
2152,34.69,-84.87,-11.84,1
2153,34.71,-50.54,-64.19,1
2154,34.72,273.7,160.94,1
2155,34.73,-248.13,217.53,1
2156,34.75,-92.89,-28.34,1
2157,34.76,-322.46,106.99,1
2158,34.77,-5.06,23.14,1
2159,34.79,-159.61,428.54,1
2160,34.8,-31.1,-95.83,1
2161,34.81,-76.13,132.25,1
2162,34.83,-22.46,392.24,1
2163,34.84,-229.93,37.66,1
2164,34.85,-84.84,-214.02,1
2165,34.87,-266.45,230.27,1
2166,34.88,79.02,32.92,1
2167,34.89,-146.38,465.95,1
2168,34.91,-189.11,156.52,1
2169,34.92,-204.45,445.58,1
2170,34.93,387.9,69.18,1
2171,34.95,-182.32,-67.0,1
2172,34.96,11.4,29.93,1
2173,34.97,117.9,40.54,1
2174,34.99,9.37,-107.95,1
2175,35.0,77.77,-283.05,1
2176,35.01,-157.7,-400.07,1
2177,35.03,91.54,-368.71,1
2178,35.04,98.99,-280.62,1
2179,35.05,183.32,-216.29,1
2180,35.06,171.61,-101.52,1
2181,35.08,217.61,-54.2,1
2182,35.09,112.18,-9.02,1
2183,35.11,67.4,66.57,1
2184,35.12,-28.31,88.61,1
2185,35.13,-56.67,107.25,1
2186,35.15,-86.67,159.23,1
2187,35.16,-112.92,161.64,1
2188,35.17,-93.07,160.71,1
2189,35.19,-113.35,235.23,1
2190,35.2,-88.92,340.3,1
2191,35.21,-73.15,393.66,1
2192,35.22,-69.26,354.61,1
2193,35.24,-82.48,308.79,1
2194,35.25,-39.46,306.89,1
2195,35.27,-14.03,262.91,1
2196,35.28,-42.23,206.75,1
2197,35.29,-3.12,145.55,1
2198,35.31,-13.92,60.26,1
2199,35.32,-2.05,40.06,1
2200,35.33,15.71,46.79,1
2201,35.35,33.14,-62.93,1
2202,35.36,40.62,-79.16,1
2203,35.37,55.17,-71.28,1
2204,35.39,93.06,-117.36,1
2205,35.4,62.05,-127.97,1
2206,35.41,29.53,-110.53,1
2207,35.43,78.33,-190.06,1
2208,35.44,42.54,-178.17,1
2209,35.45,40.43,-165.35,1
2210,35.47,44.47,-226.42,1
2211,35.48,30.96,-216.11,1
2212,35.49,36.2,-179.61,1
2213,35.51,33.94,-257.02,1
2214,35.52,28.79,-226.72,1
2215,35.53,10.87,-195.23,1
2216,35.55,49.82,-231.61,1
2217,35.56,13.9,-211.67,1
2218,35.57,16.76,-171.47,1
2219,35.59,31.83,-187.96,1
2220,35.6,17.81,-175.8,1
2221,35.61,16.01,-120.42,1
2222,35.63,48.64,-145.85,1
2223,35.64,11.22,-124.73,1
2224,35.65,23.07,-62.89,1
2225,35.67,25.44,-95.94,1
2226,35.68,16.97,-81.49,1
2227,35.69,2.19,-30.66,1
2228,35.71,14.88,-63.56,1
2229,35.72,0.37,-36.09,1
2230,35.73,-7.46,14.94,1
2231,35.75,16.55,-30.94,1
2232,35.76,19.86,-1.99,1
2233,35.77,12.25,34.08,1
2234,35.79,9.31,-4.99,1
2235,35.8,-38.67,22.72,1
2236,35.81,-3.88,45.29,1
2237,35.83,-15.04,27.46,1
2238,35.84,-25.66,60.56,1
2239,35.85,-8.85,124.7,1
2240,35.87,0.61,55.42,1
2241,35.88,-6.1,76.96,1
2242,35.89,1.14,125.54,1
2243,35.9,1.63,41.27,1
2244,35.92,-29.13,69.05,1
2245,35.93,-33.91,120.33,1
2246,35.95,-33.89,63.71,1
2247,35.96,-45.31,86.69,1
2248,35.97,-12.89,89.79,1
2249,35.99,0.97,53.23,1
2250,36.0,-15.4,62.18,1
2251,36.01,-23.87,115.91,1
2252,36.03,-4.29,30.83,1
2253,36.04,-12.18,83.62,1
2254,36.05,-36.36,110.95,1
2255,36.07,-18.57,42.73,1
2256,36.08,-34.35,56.3,1
2257,36.09,-5.4,98.22,1
2258,36.11,-12.86,48.84,1
2259,36.12,0.39,43.52,1
2260,36.13,20.23,91.04,1
2261,36.15,-17.25,9.54,1
2262,36.16,-13.33,8.22,2
2263,36.17,-6.68,51.19,2
2264,36.19,-12.67,-20.95,2
2265,36.2,-0.02,16.79,2
2266,36.21,-6.71,63.43,2
2267,36.23,-1.48,-26.51,2
2268,36.24,69.57,19.65,2
2269,36.25,118.87,76.58,2
2270,36.27,220.55,-11.12,2
2271,36.28,196.37,20.84,2
2272,36.29,175.19,38.25,2
2273,36.31,135.21,-51.76,2
2274,36.32,66.68,-54.37,2
2275,36.33,-31.14,-21.74,2
2276,36.35,-75.73,-79.86,2
2277,36.36,-131.55,-40.86,2
2278,36.37,-189.2,-8.1,2
2279,36.38,-164.88,-63.85,2
2280,36.4,-196.03,-15.07,2
2281,36.41,-206.93,25.78,2
2282,36.43,-190.77,-46.29,2
2283,36.44,-175.41,-0.56,2
2284,36.45,-145.3,42.17,2
2285,36.47,-100.81,-18.28,2
2286,36.48,-93.96,-1.08,2
2287,36.49,-89.3,46.94,2
2288,36.51,-56.1,-27.65,2
2289,36.52,-39.05,-5.56,2
2290,36.53,-33.65,46.97,2
2291,36.54,-26.75,-9.01,2
2292,36.56,19.01,-5.01,1
2293,36.57,21.29,8.27,1
2294,36.59,42.88,-46.42,1
2295,36.6,40.12,-30.0,1
2296,36.61,42.76,-16.43,1
2297,36.63,55.49,-48.88,1
2298,36.64,83.54,-48.91,1
2299,36.65,58.01,-1.07,1
2300,36.67,88.43,-55.68,1
2301,36.68,88.73,-49.77,1
2302,36.69,80.75,-3.21,1
2303,36.71,84.2,-39.07,1
2304,36.72,86.93,-14.37,1
2305,36.73,87.58,-0.26,1
2306,36.75,101.57,-79.57,1
2307,36.76,89.0,-30.99,1
2308,36.77,66.14,18.74,1
2309,36.79,54.64,-43.87,1
2310,36.8,61.44,-11.24,1
2311,36.81,52.65,8.78,1
2312,36.83,50.44,-22.09,1
2313,36.84,51.44,-13.24,1
2314,36.85,21.5,16.14,1
2315,36.87,39.15,-27.86,1
2316,36.88,32.56,-23.3,1
2317,36.89,14.64,27.41,1
2318,36.9,30.88,-31.66,1
2319,36.92,14.87,10.99,1
2320,36.93,-5.6,43.73,1
2321,36.95,11.18,-17.0,1
2322,36.96,-3.95,-8.7,1
2323,36.97,-5.73,35.93,1
2324,36.99,12.56,2.2,1
2325,37.0,10.85,9.43,1
2326,37.01,-42.41,44.41,1
2327,37.03,-2.87,-17.96,1
2328,37.04,-19.32,-1.03,1
2329,37.05,-18.09,46.49,1
2330,37.06,-9.97,-8.98,1
2331,37.08,2.4,-16.85,1
2332,37.09,-54.27,45.21,1
2333,37.11,-27.85,-4.42,1
2334,37.12,-40.21,8.58,1
2335,37.13,-30.29,32.64,1
2336,37.15,-27.51,-10.15,1
2337,37.16,-45.73,9.86,1
2338,37.17,-23.46,25.68,1
2339,37.19,-35.91,4.85,1
2340,37.2,-13.77,7.06,1
2341,37.21,-40.16,26.21,1
2342,37.225,-38.67,-0.55,1
2343,37.24,-21.86,-4.96,1
2344,37.25,-32.08,40.07,1
2345,37.27,-22.28,10.05,1
2346,37.28,-15.77,17.76,1
2347,37.29,-23.42,18.32,1
2348,37.31,-2.47,-11.05,1
2349,37.32,8.74,-16.15,1
2350,37.33,-32.23,12.7,1
2351,37.35,-15.97,6.87,1
2352,37.36,19.83,19.53,1
2353,37.37,-13.14,19.98,1
2354,37.39,-29.36,-17.12,1
2355,37.4,-22.42,11.3,1
2356,37.41,-29.01,4.76,1
2357,37.43,-21.91,-44.57,1
2358,37.44,11.52,-0.47,1
2359,37.45,-18.87,-7.86,1
2360,37.47,-13.42,-12.51,1
2361,37.48,5.75,-11.92,1
2362,37.49,-8.73,-9.37,1
2363,37.51,8.73,-13.15,1
2364,37.52,8.0,5.51,1
2365,37.53,-6.66,11.48,1
2366,37.54,-13.97,4.87,1
2367,37.56,22.56,2.73,1
2368,37.57,-1.79,11.95,1
2369,37.59,14.08,-13.34,1
2370,37.6,2.42,-0.68,1
2371,37.61,8.02,10.43,1
2372,37.63,0.6,-10.15,1
2373,37.64,16.61,-21.25,1
2374,37.65,1.89,6.81,1
2375,37.67,28.25,-6.95,1
2376,37.68,26.25,-15.12,1
2377,37.69,-14.28,9.35,1
2378,37.71,6.83,1.06,1
2379,37.72,18.99,-15.86,1
2380,37.73,-20.49,-8.36,1
2381,37.75,6.17,-5.92,1
2382,37.76,39.73,-5.13,1
2383,37.77,4.62,1.42,1
2384,37.79,20.43,2.11,1
2385,37.8,28.86,10.36,1
2386,37.81,4.26,5.13,1
2387,37.83,8.12,13.8,1
2388,37.84,23.94,-15.48,1
2389,37.85,-11.01,-20.85,1
2390,37.87,-5.05,-2.59,1
2391,37.88,27.67,19.34,1
2392,37.89,-18.32,-0.88,1
2393,37.91,19.63,22.64,1
2394,37.92,11.51,-10.37,1
2395,37.93,-7.56,-18.57,1
2396,37.95,8.93,10.46,1
2397,37.96,12.97,-28.83,1
2398,37.97,-2.46,-1.01,1
2399,37.99,-1.56,20.99,1
2400,38.0,2.17,-8.18,1
2401,38.01,-17.66,-22.6,1
2402,38.03,15.15,-2.54,1
2403,38.04,-8.6,10.17,1
2404,38.05,-12.33,-7.13,1
2405,38.07,-23.26,22.82,1
2406,38.08,26.38,-7.79,1
2407,38.09,-30.92,-24.92,1
2408,38.11,7.27,38.09,1
2409,38.12,20.7,0.96,1
2410,38.13,-4.27,19.08,1
2411,38.15,-2.5,48.45,1
2412,38.16,27.68,-1.56,0
2413,38.17,-39.61,6.99,0
2414,38.19,-2.37,9.93,0
2415,38.2,6.45,-3.18,0
2416,38.21,-24.36,8.69,0
2417,38.22,8.11,35.4,0
2418,38.24,30.57,-51.82,0
2419,38.25,-36.83,-23.44,0
2420,38.27,-70.96,27.39,0
2421,38.28,-160.91,-25.27,0
2422,38.29,-223.69,-25.44,0
2423,38.31,-237.81,-8.06,0
2424,38.32,-195.84,-46.6,0
2425,38.33,-148.69,-51.03,0
2426,38.35,-111.36,-18.35,0
2427,38.36,-43.05,-34.47,0
2428,38.37,-13.27,-17.99,0
2429,38.38,25.9,33.21,0
2430,38.4,166.19,0.19,0
2431,38.41,245.45,8.3,0
2432,38.43,313.28,53.98,0
2433,38.44,327.91,-4.5,0
2434,38.45,286.59,26.45,0
2435,38.47,275.09,48.65,0
2436,38.48,272.74,-0.03,0
2437,38.49,193.34,-8.74,0
2438,38.51,170.3,50.46,0
2439,38.52,130.92,5.45,0
2440,38.53,78.57,9.03,0
2441,38.55,49.7,34.83,0
2442,38.56,25.49,-20.39,1
2443,38.57,-32.06,1.43,1
2444,38.59,-40.16,39.76,1
2445,38.6,-23.01,-6.96,1
2446,38.61,-63.98,-2.89,1
2447,38.63,-52.07,43.63,1
2448,38.64,-67.47,-26.84,1
2449,38.65,-110.68,-20.12,1
2450,38.67,-112.98,13.35,1
2451,38.68,-82.37,-41.98,1
2452,38.69,-110.56,-12.54,1
2453,38.71,-104.32,20.73,1
2454,38.72,-91.1,-47.71,1
2455,38.73,-130.77,-22.63,1
2456,38.75,-104.55,18.19,1
2457,38.76,-84.89,-43.8,1
2458,38.77,-115.32,-20.12,1
2459,38.79,-93.78,1.74,1
2460,38.8,-71.25,-44.24,1
2461,38.81,-102.13,8.06,1
2462,38.83,-81.94,47.41,1
2463,38.84,-52.75,-22.29,1
2464,38.85,-79.99,-20.43,1
2465,38.87,-64.18,49.44,1
2466,38.88,-42.24,8.89,1
2467,38.89,-49.91,-4.98,1
2468,38.9,-34.06,15.9,1
2469,38.92,-2.48,-26.37,1
2470,38.93,-37.23,-7.12,1
2471,38.95,-21.39,40.49,1
2472,38.96,-5.18,-48.72,1
2473,38.97,-27.25,-18.7,1
2474,38.99,-6.0,53.94,1
2475,39.0,28.27,-22.33,1
2476,39.01,-3.91,0.72,1
2477,39.03,27.64,60.96,1
2478,39.04,42.95,-38.23,1
2479,39.05,5.32,-40.07,1
2480,39.06,39.37,33.92,1
2481,39.08,36.77,-30.46,1
2482,39.09,14.12,-7.85,1
2483,39.11,27.84,26.66,1
2484,39.12,44.3,-25.39,1
2485,39.13,26.24,3.91,1
2486,39.15,44.11,26.65,1
2487,39.16,62.87,-39.14,1
2488,39.17,41.65,3.63,1
2489,39.19,35.58,23.35,1
2490,39.2,65.78,-29.32,1
2491,39.21,11.48,6.89,1
2492,39.23,34.77,72.57,1
2493,39.24,47.71,-20.63,1
2494,39.25,19.06,6.56,1
2495,39.27,25.18,36.28,1
2496,39.28,59.88,-46.19,1
2497,39.29,18.16,-10.91,1
2498,39.31,35.78,30.35,1
2499,39.32,39.42,-46.88,1
2500,39.33,16.87,-17.97,1
2501,39.35,13.83,40.62,1
2502,39.36,32.49,-26.85,1
2503,39.37,4.06,-10.24,1
2504,39.39,11.7,19.43,1
2505,39.4,37.37,-46.42,1
2506,39.41,6.38,-0.73,1
2507,39.43,16.59,25.68,1
2508,39.44,26.86,-13.95,1
2509,39.45,-6.06,-0.49,1
2510,39.47,7.58,39.22,1
2511,39.48,36.67,-12.54,1
2512,39.49,-10.1,1.74,1
2513,39.51,8.92,41.15,1
2514,39.52,29.64,-23.31,1
2515,39.53,-30.44,22.56,1
2516,39.54,-4.61,47.97,1
2517,39.56,-3.86,-36.0,1
2518,39.57,-30.81,-12.66,1
2519,39.59,-10.18,29.69,1
2520,39.6,-2.84,-26.15,1
2521,39.61,-31.73,-23.07,1
2522,39.63,-23.02,37.4,1
2523,39.64,4.59,-34.52,1
2524,39.65,-39.64,10.73,1
2525,39.67,-17.9,28.77,1
2526,39.68,-13.77,-6.75,1
2527,39.69,-49.26,6.69,1
2528,39.71,-11.55,50.67,1
2529,39.72,16.21,-29.36,1
2530,39.73,-35.44,-3.73,1
2531,39.75,-8.95,32.74,1
2532,39.76,10.44,-15.84,1
2533,39.77,-18.36,-20.58,1
2534,39.79,2.08,15.76,1
2535,39.8,-6.11,-17.36,1
2536,39.81,-23.04,-28.85,1
2537,39.83,-16.54,23.06,1
2538,39.84,20.57,0.73,1
2539,39.85,-41.21,-7.73,1
2540,39.87,-2.59,19.48,1
2541,39.88,1.6,-6.95,1
2542,39.89,-28.89,2.48,1
2543,39.91,-12.2,9.53,1
2544,39.92,13.94,-59.53,1
2545,39.93,-16.07,4.1,1
2546,39.95,21.35,42.55,1
2547,39.96,4.06,-34.97,1
2548,39.97,-6.13,-17.64,1
2549,39.99,-5.52,27.0,1
2550,40.0,1.33,-11.72,1
2551,40.01,-14.72,-10.84,1
2552,40.03,-6.36,19.9,1
2553,40.04,11.69,-12.62,1
2554,40.05,-18.62,0.15,1
2555,40.07,-6.12,15.45,1
2556,40.08,12.63,-36.1,1
2557,40.09,-9.04,-2.77,1
2558,40.11,15.09,21.32,1
2559,40.12,16.2,-39.81,1
2560,40.13,-9.24,-18.91,1
2561,40.15,13.03,43.91,1
2562,40.16,11.84,-17.47,0
2563,40.17,1.36,-31.32,0
2564,40.19,2.06,11.33,0
2565,40.2,8.0,-57.6,0
2566,40.21,-26.85,-46.6,0
2567,40.22,-106.77,-33.0,0
2568,40.24,-177.18,-56.47,0
2569,40.25,-233.6,9.99,0
2570,40.27,-190.91,30.34,0
2571,40.28,-142.63,-15.79,0
2572,40.29,-104.03,38.12,0
2573,40.31,-10.82,59.36,0
2574,40.32,42.52,17.96,0
2575,40.33,75.51,-9.47,0
2576,40.35,146.66,62.39,0
2577,40.36,182.83,46.79,0
2578,40.37,162.34,8.49,0
2579,40.38,213.88,52.82,0
2580,40.4,221.49,11.33,0
2581,40.41,166.91,44.43,0
2582,40.43,190.5,39.57,0
2583,40.44,196.05,25.79,0
2584,40.45,135.09,-2.14,0
2585,40.47,125.92,20.4,0
2586,40.48,131.71,3.19,0
2587,40.49,70.33,1.71,0
2588,40.51,64.43,14.55,0
2589,40.52,43.96,3.0,0
2590,40.53,4.73,12.11,0
2591,40.55,1.35,3.46,0
2592,40.56,10.87,2.59,1
2593,40.57,-31.95,-28.19,1
2594,40.59,-57.81,-10.27,1
2595,40.6,-36.7,-11.96,1
2596,40.61,-73.96,-2.12,1
2597,40.63,-83.75,0.22,1
2598,40.64,-64.85,-15.53,1
2599,40.65,-105.51,-21.59,1
2600,40.67,-86.79,-12.72,1
2601,40.68,-73.41,-36.69,1
2602,40.69,-87.11,-25.73,1
2603,40.71,-97.2,-5.84,1
2604,40.72,-73.31,-28.21,1
2605,40.73,-121.3,-46.91,1
2606,40.75,-97.36,-20.05,1
2607,40.76,-80.91,-11.18,1
2608,40.77,-106.3,-12.38,1
2609,40.79,-83.96,-0.46,1
2610,40.8,-69.32,10.37,1
2611,40.81,-70.14,12.06,1
2612,40.83,-90.34,1.03,1
2613,40.84,-79.61,-15.41,1
2614,40.85,-70.29,-12.17,1
2615,40.87,-34.23,-29.17,1
2616,40.88,-9.21,-5.21,1
2617,40.89,-41.95,-34.36,1
2618,40.9,-14.54,-24.04,1
2619,40.92,12.47,-10.67,1
2620,40.93,-15.76,-5.9,1
2621,40.95,13.75,-2.09,1
2622,40.96,13.74,-6.3,1
2623,40.97,-5.41,-8.26,1
2624,40.99,27.28,-6.37,1
2625,41.0,31.89,7.31,1
2626,41.01,3.95,-8.16,1
2627,41.03,24.35,9.34,1
2628,41.04,35.25,22.85,1
2629,41.05,28.02,2.75,1
2630,41.06,25.96,5.48,1
2631,41.08,42.04,38.23,1
2632,41.09,18.05,3.24,1
2633,41.11,32.53,-14.39,1
2634,41.12,53.8,5.92,1
2635,41.13,34.86,-9.77,1
2636,41.15,41.59,-10.71,1
2637,41.16,49.16,45.45,1
2638,41.17,15.26,-2.81,1
2639,41.19,29.18,10.45,1
2640,41.2,46.36,15.56,1
2641,41.21,24.53,4.1,1
2642,41.23,42.57,18.74,1
2643,41.24,33.01,19.91,1
2644,41.25,11.6,-13.26,1
2645,41.27,31.71,-2.85,1
2646,41.28,29.58,29.42,1
2647,41.29,15.53,-9.2,1
2648,41.31,21.84,10.41,1
2649,41.32,32.61,55.29,1
2650,41.33,13.61,-1.44,1
2651,41.35,23.64,-14.28,1
2652,41.36,20.26,27.79,1
2653,41.37,19.88,8.95,1
2654,41.38,6.69,1.63,1
2655,41.4,17.73,5.13,1
2656,41.41,14.98,3.01,1
2657,41.43,2.99,-10.33,1
2658,41.44,17.35,40.2,1
2659,41.45,-10.56,3.28,1
2660,41.47,8.66,20.29,1
2661,41.48,2.16,59.33,1
2662,41.49,-6.06,-28.74,1
2663,41.51,2.54,-9.85,1
2664,41.52,-1.9,23.59,1
2665,41.53,-21.17,-28.85,1
2666,41.54,-8.36,-25.9,1
2667,41.56,11.28,21.98,1
2668,41.57,-8.85,0.38,1
2669,41.59,-17.6,-11.83,1
2670,41.6,-3.09,12.43,1
2671,41.61,-17.94,-11.28,1
2672,41.63,-14.76,-13.6,1
2673,41.64,-23.51,2.84,1
2674,41.65,-15.61,-40.71,1
2675,41.67,-8.53,-14.83,1
2676,41.68,-8.67,11.65,1
2677,41.69,-0.67,-38.57,1
2678,41.71,-6.19,-27.92,1
2679,41.72,-11.06,14.25,1
2680,41.73,-11.66,-22.42,1
2681,41.75,-26.09,-5.04,1
2682,41.76,-15.87,33.58,1
2683,41.77,-19.8,-24.91,1
2684,41.79,-14.82,-8.24,1
2685,41.8,-13.46,21.96,1
2686,41.81,-15.63,-24.16,1
2687,41.83,-12.18,-30.86,1
2688,41.84,0.28,27.94,1
2689,41.85,-0.56,-43.23,1
2690,41.87,-4.18,-9.23,1
2691,41.88,-13.53,49.5,1
2692,41.89,-24.17,-36.46,1
2693,41.91,-17.78,-37.38,1
2694,41.92,0.04,50.93,1
2695,41.93,-5.03,-31.2,1
2696,41.95,-0.86,-25.81,1
2697,41.96,4.59,6.47,1
2698,41.97,4.17,-23.96,1
2699,41.99,-0.12,2.29,1
2700,42.0,11.26,33.59,1
2701,42.01,3.8,-11.96,1
2702,42.03,11.69,-11.16,1
2703,42.04,13.37,31.23,1
2704,42.05,13.89,-22.3,1
2705,42.06,-25.69,-8.89,1
2706,42.08,4.94,38.4,1
2707,42.09,1.06,-24.59,1
2708,42.11,6.97,14.57,1
2709,42.12,-5.83,56.33,1
2710,42.13,6.58,-21.55,1
2711,42.15,1.31,-7.08,1
2712,42.16,-4.22,69.13,2
2713,42.17,8.53,-18.5,2
2714,42.19,-3.59,-10.57,2
2715,42.2,8.52,42.21,2
2716,42.21,2.96,-6.72,2
2717,42.22,16.73,5.37,2
2718,42.24,30.1,41.19,2
2719,42.25,60.46,-52.08,2
2720,42.27,145.46,6.0,2
2721,42.28,200.59,43.7,2
2722,42.29,221.37,-21.88,2
2723,42.31,193.5,13.28,2
2724,42.32,150.71,57.56,2
2725,42.33,122.24,4.92,2
2726,42.35,57.22,11.66,2
2727,42.36,12.98,6.52,2
2728,42.37,-2.22,-43.19,2
2729,42.38,-57.96,-23.63,2
2730,42.4,-147.6,21.09,2
2731,42.41,-266.15,-69.8,2
2732,42.43,-317.77,-21.2,2
2733,42.44,-334.25,3.71,2
2734,42.45,-302.03,-50.95,2
2735,42.47,-294.46,-38.95,2
2736,42.48,-245.8,27.81,2
2737,42.49,-195.49,-50.14,2
2738,42.51,-188.57,-6.36,2
2739,42.52,-126.62,25.64,2
2740,42.53,-85.15,-26.44,2
2741,42.55,-53.85,1.86,2
2742,42.56,-23.73,24.76,1
2743,42.57,-6.74,-37.11,1
2744,42.59,12.63,3.32,1
2745,42.6,51.32,53.41,1
2746,42.61,64.36,-37.1,1
2747,42.63,63.99,25.29,1
2748,42.64,97.82,52.7,1
2749,42.65,113.07,-1.97,1
2750,42.67,108.94,-14.96,1
2751,42.68,122.23,39.17,1
2752,42.69,121.95,-26.14,1
2753,42.71,118.2,-0.57,1
2754,42.72,130.15,26.89,1
2755,42.73,118.69,-19.83,1
2756,42.75,108.25,6.96,1
2757,42.76,111.23,37.54,1
2758,42.77,105.17,-21.77,1
2759,42.79,101.99,-2.95,1
2760,42.8,98.91,39.76,1
2761,42.81,91.36,-31.21,1
2762,42.83,83.68,1.52,1
2763,42.84,76.07,24.25,1
2764,42.85,75.89,-27.2,1
2765,42.87,69.98,-7.17,1
2766,42.88,56.66,28.1,1
2767,42.89,42.17,-32.42,1
2768,42.9,35.95,-4.52,1
2769,42.92,30.18,24.88,1
2770,42.93,24.19,-15.86,1
2771,42.95,-0.26,-24.11,1
2772,42.96,14.51,34.78,1
2773,42.97,4.47,-16.65,1
2774,42.99,-15.37,-6.0,1
2775,43.0,-16.04,31.02,1
2776,43.01,-0.06,-28.94,1
2777,43.03,-24.18,-21.67,1
2778,43.04,-28.19,22.96,1
2779,43.05,-18.72,-11.1,1
2780,43.06,-32.02,18.02,1
2781,43.08,-28.54,10.83,1
2782,43.09,-24.16,-16.23,1
2783,43.11,-38.23,2.29,1
2784,43.12,-42.75,33.82,1
2785,43.13,-47.02,-15.8,1
2786,43.15,-55.32,16.37,1
2787,43.16,-44.67,27.57,1
2788,43.17,-10.59,-42.36,1
2789,43.19,-18.96,-20.66,1
2790,43.2,-20.66,29.13,1
2791,43.21,-24.83,-42.58,1
2792,43.23,-51.02,-7.81,1
2793,43.24,-57.32,7.57,1
2794,43.25,-73.69,1.74,1
2795,43.27,-61.86,-12.15,1
2796,43.28,-69.3,16.47,1
2797,43.29,-49.89,-29.07,1
2798,43.31,-44.91,10.74,1
2799,43.32,-34.89,5.03,1
2800,43.33,-31.21,-40.61,1
2801,43.35,-32.85,5.22,1
2802,43.36,-28.48,52.36,1
2803,43.37,-21.78,19.9,1
2804,43.38,-33.0,15.23,1
2805,43.4,-28.32,28.47,1
2806,43.41,-7.26,7.19,1
2807,43.43,-11.36,3.99,1
2808,43.44,-6.53,13.78,1
2809,43.45,4.44,-5.5,1
2810,43.47,-11.67,-9.34,1
2811,43.48,2.78,5.62,1
2812,43.49,5.44,-22.69,1
2813,43.51,-7.09,-18.36,1
2814,43.52,7.56,-5.74,1
2815,43.53,20.16,-33.76,1
2816,43.54,7.3,-6.74,1
2817,43.56,-1.72,22.36,1
2818,43.57,19.37,-25.15,1
2819,43.59,21.2,-5.57,1
2820,43.6,16.01,13.23,1
2821,43.61,27.44,11.02,1
2822,43.63,14.5,-14.16,1
2823,43.64,16.55,6.28,1
2824,43.65,37.57,0.89,1
2825,43.67,27.1,-14.34,1
2826,43.68,7.6,13.26,1
2827,43.69,27.16,-7.96,1
2828,43.71,6.49,-18.17,1
2829,43.72,13.41,-3.27,1
2830,43.73,37.85,-4.53,1
2831,43.75,19.02,-15.76,1
2832,43.76,6.5,20.67,1
2833,43.77,26.57,9.78,1
2834,43.79,4.96,7.0,1
2835,43.8,10.77,15.02,1
2836,43.81,23.53,0.21,1
2837,43.83,12.47,-17.01,1
2838,43.84,3.79,19.85,1
2839,43.85,25.08,13.09,1
2840,43.87,-0.67,-10.99,1
2841,43.88,-1.32,-5.39,1
2842,43.89,15.17,21.31,1
2843,43.91,1.54,-18.15,1
2844,43.92,9.17,3.5,1
2845,43.93,18.91,0.2,1
2846,43.95,8.65,-7.2,1
2847,43.96,-5.54,2.48,1
2848,43.97,12.44,7.73,1
2849,43.99,-23.35,1.54,1
2850,44.0,2.3,-8.63,1
2851,44.01,1.22,-5.34,1
2852,44.03,-14.25,-7.33,1
2853,44.04,-9.32,-18.67,1
2854,44.05,2.84,10.67,1
2855,44.06,-44.39,-1.93,1
2856,44.08,-2.91,-2.74,1
2857,44.09,10.62,3.3,1
2858,44.11,-13.04,-10.64,1
2859,44.12,-2.56,10.24,1
2860,44.13,5.8,42.2,1
2861,44.15,-19.28,25.9,1
2862,44.16,11.81,104.41,1
2863,44.17,7.44,281.72,1
2864,44.19,-44.71,290.61,1
2865,44.2,-11.31,39.09,1
2866,44.21,-259.58,-177.91,1
2867,44.22,-184.26,268.5,1
2868,44.24,280.42,136.44,1
2869,44.25,132.15,132.84,1
2870,44.27,-273.98,78.54,1
2871,44.28,147.67,19.07,1
2872,44.29,-69.6,-33.37,1
2873,44.31,-257.11,-44.01,1
2874,44.32,-158.42,-92.3,1
2875,44.33,138.86,-121.65,1
2876,44.35,-211.5,-116.15,1
2877,44.36,-90.1,-149.07,1
2878,44.37,-51.16,-164.91,1
2879,44.385000000000005,170.68,-146.36,1
2880,44.4,75.81,-164.88,1
2881,44.41,462.39,-172.55,1
2882,44.43,22.52,-145.55,1
2883,44.44,269.95,-156.59,1
2884,44.45,-38.38,-155.22,1
2885,44.47,116.1,-123.55,1
2886,44.48,133.85,-130.6,1
2887,44.49,67.91,-126.74,1
2888,44.51,194.78,-90.32,1
2889,44.52,232.74,-95.21,1
2890,44.53,-112.53,-105.83,1
2891,44.55,57.58,-183.07,1
2892,44.56,-120.53,-371.39,1
2893,44.57,-204.34,-311.09,1
2894,44.59,1.48,-284.44,1
2895,44.6,212.3,192.87,1
2896,44.61,138.51,186.6,1
2897,44.63,263.15,61.48,1
2898,44.64,-184.02,-297.52,1
2899,44.65,-222.63,40.06,1
2900,44.67,286.65,321.41,1
2901,44.68,-135.0,313.1,1
2902,44.69,-247.97,192.04,1
2903,44.71,202.72,19.79,1
2904,44.72,-330.04,114.76,1
2905,44.73,-19.54,-119.9,1
2906,44.75,0.11,103.95,1
2907,44.76,-267.87,259.29,1
2908,44.77,183.92,160.41,1
2909,44.79,-403.49,-32.95,1
2910,44.8,-17.45,226.09,1
2911,44.81,-174.42,-236.3,1
2912,44.83,-126.29,269.81,1
2913,44.84,-83.88,97.23,1
2914,44.85,-247.28,348.07,1
2915,44.87,15.09,179.69,1
2916,44.88,33.88,-55.87,1
2917,44.89,50.9,8.11,1
2918,44.9,-106.79,158.44,1
2919,44.92,121.17,259.93,1
2920,44.93,221.6,-165.82,1
2921,44.95,154.26,-39.46,1
2922,44.96,-143.66,-139.15,1
2923,44.97,374.99,-164.9,1
2924,44.99,-22.63,-110.59,1
2925,45.0,62.98,-48.88,1
2926,45.01,114.57,-18.22,1
2927,45.03,159.23,49.02,1
2928,45.04,127.66,79.44,1
2929,45.05,181.77,90.93,1
2930,45.07,72.57,134.54,1
2931,45.08,36.27,145.27,1
2932,45.09,-55.96,137.61,1
2933,45.11,-96.83,164.29,1
2934,45.12,-135.65,159.15,1
2935,45.13,-160.61,139.75,1
2936,45.15,-199.44,154.84,1
2937,45.16,-170.8,142.01,1
2938,45.17,-131.82,114.14,1
2939,45.19,-146.91,120.57,1
2940,45.2,-120.99,123.91,1
2941,45.21,-91.62,169.29,1
2942,45.22,-106.81,237.1,1
2943,45.24,-54.8,240.51,1
2944,45.25,-29.71,262.42,1
2945,45.27,-31.9,148.51,1
2946,45.28,-29.33,116.63,1
2947,45.29,-4.35,82.94,1
2948,45.31,-28.94,2.35,1
2949,45.32,3.3,-28.39,1
2950,45.33,37.09,-33.46,1
2951,45.35,-0.46,-131.56,1
2952,45.36,30.13,-124.68,1
2953,45.37,49.18,-137.52,1
2954,45.38,27.55,-221.67,1
2955,45.4,55.55,-208.71,1
2956,45.41,58.46,-187.09,1
2957,45.43,62.16,-263.33,1
2958,45.44,62.51,-228.77,1
2959,45.45,75.43,-227.2,1
2960,45.47,45.81,-302.69,1
2961,45.48,60.5,-268.84,1
2962,45.49,79.73,-221.56,1
2963,45.51,37.81,-283.2,1
2964,45.52,54.3,-247.86,1
2965,45.53,124.0,-204.36,1
2966,45.54,49.5,-250.66,1
2967,45.56,73.13,-209.09,1
2968,45.57,65.14,-161.45,1
2969,45.59,31.41,-183.66,1
2970,45.6,30.87,-143.65,1
2971,45.61,36.29,-99.22,1
2972,45.63,-2.93,-116.33,1
2973,45.64,4.49,-96.09,1
2974,45.65,15.5,-46.98,1
2975,45.67,0.79,-89.07,1
2976,45.68,5.46,-37.96,1
2977,45.69,41.69,-2.3,1
2978,45.71,-11.67,-43.95,1
2979,45.72,-0.67,6.3,1
2980,45.73,24.16,58.77,1
2981,45.75,-17.36,-10.21,1
2982,45.76,-19.15,30.94,1
2983,45.77,-7.77,90.08,1
2984,45.79,-20.45,37.49,1
2985,45.8,4.25,88.99,1
2986,45.81,13.04,197.56,1
2987,45.83,-20.59,200.97,1
2988,45.84,-12.85,241.71,1
2989,45.85,-4.46,217.47,1
2990,45.87,-36.29,117.01,1
2991,45.88,-35.83,56.16,1
2992,45.89,-12.07,27.62,1
2993,45.9,-26.02,-38.48,1
2994,45.92,-8.16,-1.99,1
2995,45.93,19.12,44.53,1
2996,45.95,-20.44,-19.14,1
2997,45.96,3.95,5.48,1
2998,45.97,10.83,58.2,1
2999,45.99,-11.96,27.44,1
3000,46.0,-16.96,57.86,1
3001,46.01,6.77,106.12,1
3002,46.03,-20.99,50.14,1
3003,46.04,-19.83,67.75,1
3004,46.05,1.01,90.62,1
3005,46.06,-41.96,55.76,1
3006,46.08,-23.79,72.96,1
3007,46.09,10.51,93.07,1
3008,46.11,-20.32,47.7,1
3009,46.12,-18.79,105.82,1
3010,46.13,3.13,156.88,1
3011,46.15,-12.44,67.45,1
3012,46.16,-7.08,52.14,2
3013,46.17,16.19,56.23,2
3014,46.19,-25.35,14.88,2
3015,46.2,-10.83,16.58,2
3016,46.21,-1.89,22.96,2
3017,46.22,-32.97,12.8,2
3018,46.24,-11.75,-40.33,2
3019,46.25,-5.08,0.27,2
3020,46.27,-28.38,3.33,2
3021,46.28,69.08,5.21,2
3022,46.29,145.46,43.09,2
3023,46.31,188.87,-9.86,2
3024,46.32,206.35,-8.23,2
3025,46.33,158.59,-7.72,2
3026,46.35,94.71,-5.99,2
3027,46.36,38.84,13.2,2
3028,46.37,2.66,-4.39,2
3029,46.39,-89.96,-24.2,2
3030,46.4,-110.8,-17.74,2
3031,46.41,-147.73,-6.26,2
3032,46.43,-200.48,-48.64,2
3033,46.44,-178.6,-41.68,2
3034,46.45,-175.46,-16.73,2
3035,46.47,-177.44,-59.22,2
3036,46.48,-175.11,-30.11,2
3037,46.49,-135.93,-9.23,2
3038,46.51,-162.5,-48.95,2
3039,46.52,-102.47,-12.5,2
3040,46.53,-70.86,-13.1,2
3041,46.54,-109.86,-50.1,2
3042,46.56,-39.88,-35.52,1
3043,46.57,-12.41,-30.79,1
3044,46.59,-47.03,-47.35,1
3045,46.6,10.14,-43.21,1
3046,46.61,36.82,-28.0,1
3047,46.63,40.44,-33.98,1
3048,46.64,50.94,-29.34,1
3049,46.65,87.26,-29.03,1
3050,46.67,40.01,-27.26,1
3051,46.68,59.36,-11.23,1
3052,46.69,90.34,-15.61,1
3053,46.71,79.37,-32.33,1
3054,46.72,91.72,-23.03,1
3055,46.73,99.91,-16.23,1
3056,46.75,65.88,-15.37,1
3057,46.76,90.49,-1.63,1
3058,46.77,107.91,-7.17,1
3059,46.79,89.04,-3.46,1
3060,46.8,84.34,-2.26,1
3061,46.81,101.43,-4.64,1
3062,46.83,54.18,-2.6,1
3063,46.84,64.21,-2.87,1
3064,46.85,79.55,-0.34,1
3065,46.87,32.54,8.17,1
3066,46.88,59.45,18.23,1
3067,46.89,35.71,5.97,1
3068,46.9,21.5,7.71,1
3069,46.92,41.06,0.75,1
3070,46.93,41.32,-6.16,1
3071,46.95,-4.66,9.06,1
3072,46.96,11.3,10.43,1
3073,46.97,20.86,16.7,1
3074,46.99,1.19,7.08,1
3075,47.0,16.82,-0.7,1
3076,47.01,15.33,4.35,1
3077,47.03,-27.84,1.29,1
3078,47.04,0.85,-10.22,1
3079,47.05,-11.15,7.97,1
3080,47.07,-36.97,26.33,1
3081,47.08,-15.14,7.73,1
3082,47.09,-12.31,-8.04,1
3083,47.11,-35.0,26.63,1
3084,47.12,-27.74,16.28,1
3085,47.13,-23.66,18.52,1
3086,47.15,-50.75,20.64,1
3087,47.16,-28.02,3.29,1
3088,47.17,-25.94,4.04,1
3089,47.19,-53.02,32.14,1
3090,47.2,-18.33,0.49,1
3091,47.21,-15.75,-5.11,1
3092,47.22,-57.42,16.03,1
3093,47.24,-21.94,10.77,1
3094,47.25,-23.86,7.01,1
3095,47.27,-49.84,34.47,1
3096,47.28,-31.86,5.09,1
3097,47.29,-16.34,-17.58,1
3098,47.31,-47.64,11.08,1
3099,47.32,-24.95,-25.72,1
3100,47.33,0.95,-12.61,1
3101,47.35,-18.34,21.86,1
3102,47.36,-14.75,6.11,1
3103,47.37,-11.19,6.95,1
3104,47.38,-33.12,27.92,1
3105,47.4,3.1,1.52,1
3106,47.41,-4.97,-0.18,1
3107,47.43,-19.72,20.3,1
3108,47.44,-11.16,-16.43,1
3109,47.45,10.74,-5.94,1
3110,47.47,-26.62,10.84,1
3111,47.48,-19.63,-25.33,1
3112,47.49,4.33,-14.28,1
3113,47.51,-3.42,12.85,1
3114,47.52,-3.45,-19.68,1
3115,47.53,2.39,-16.78,1
3116,47.54,-5.99,1.52,1
3117,47.56,0.57,-22.99,1
3118,47.57,3.53,-1.41,1
3119,47.59,-13.09,3.06,1
3120,47.6,-0.36,-15.06,1
3121,47.61,11.62,-18.7,1
3122,47.63,-3.64,25.28,1
3123,47.64,26.38,-17.23,1
3124,47.65,29.53,-29.56,1
3125,47.67,-6.91,1.04,1
3126,47.68,15.02,-5.77,1
3127,47.69,36.89,-14.73,1
3128,47.71,3.35,23.12,1
3129,47.72,16.24,4.72,1
3130,47.73,16.51,-14.49,1
3131,47.75,-6.68,34.74,1
3132,47.76,6.61,-10.88,1
3133,47.77,8.56,-20.89,1
3134,47.79,14.5,22.35,1
3135,47.8,-3.28,-24.75,1
3136,47.81,24.88,-6.45,1
3137,47.83,0.29,32.46,1
3138,47.84,13.59,-14.32,1
3139,47.85,5.36,-1.25,1
3140,47.87,11.05,38.75,1
3141,47.88,2.74,-10.84,1
3142,47.89,14.52,-17.57,1
3143,47.9,-15.6,37.28,1
3144,47.92,-6.23,-8.9,1
3145,47.93,18.64,5.79,1
3146,47.95,2.67,12.59,1
3147,47.96,7.57,-34.16,1
3148,47.97,24.98,-25.54,1
3149,47.99,-5.99,35.0,1
3150,48.0,-7.02,-26.73,1
3151,48.01,17.23,-9.24,1
3152,48.03,-16.42,8.38,1
3153,48.04,4.81,-25.58,1
3154,48.05,11.27,-12.34,1
3155,48.06,-6.37,23.34,1
3156,48.08,-18.91,-21.51,1
3157,48.09,16.56,3.48,1
3158,48.11,-5.77,50.75,1
3159,48.12,9.64,-15.26,1
3160,48.13,13.21,0.57,1
3161,48.15,-33.78,67.48,1
3162,48.16,-2.77,-0.17,0
3163,48.17,8.64,-12.18,0
3164,48.19,-13.33,48.29,0
3165,48.2,-0.26,-17.52,0
3166,48.21,-66.75,21.8,0
3167,48.22,-148.26,25.61,0
3168,48.24,-189.32,-40.08,0
3169,48.25,-200.0,-58.86,0
3170,48.27,-182.58,-49.76,0
3171,48.28,-163.53,-94.75,0
3172,48.29,-123.66,-69.85,0
3173,48.31,-57.67,-17.19,0
3174,48.32,-29.97,-46.37,0
3175,48.33,43.44,1.62,0
3176,48.35,101.21,53.17,0
3177,48.36,213.52,5.88,0
3178,48.37,303.73,39.28,0
3179,48.39,300.19,90.36,0
3180,48.4,297.66,7.99,0
3181,48.41,277.68,31.48,0
3182,48.43,247.15,55.46,0
3183,48.44,199.0,-2.5,0
3184,48.45,173.37,17.51,0
3185,48.47,118.58,50.43,0
3186,48.48,87.69,-13.39,0
3187,48.49,73.86,24.2,0
3188,48.51,34.71,37.36,0
3189,48.52,10.38,-1.73,0
3190,48.53,-12.1,-10.35,0
3191,48.54,-39.41,43.04,0
3192,48.56,-40.27,-21.96,1
3193,48.57,-65.12,-13.34,1
3194,48.59,-106.96,31.44,1
3195,48.6,-108.58,-37.29,1
3196,48.61,-86.27,-16.3,1
3197,48.63,-105.83,21.44,1
3198,48.64,-118.87,-44.62,1
3199,48.65,-96.85,-15.93,1
3200,48.67,-110.88,23.09,1
3201,48.68,-113.14,-44.67,1
3202,48.69,-91.88,-16.66,1
3203,48.71,-102.82,25.04,1
3204,48.72,-99.12,-35.93,1
3205,48.73,-90.54,-7.11,1
3206,48.75,-98.89,21.49,1
3207,48.76,-90.65,-31.76,1
3208,48.77,-64.94,-20.48,1
3209,48.79,-63.21,28.51,1
3210,48.8,-65.97,-45.41,1
3211,48.81,-66.3,-5.55,1
3212,48.83,-59.13,39.45,1
3213,48.84,-39.71,-28.38,1
3214,48.85,-33.06,-28.38,1
3215,48.87,-39.29,22.39,1
3216,48.88,-13.49,-34.3,1
3217,48.89,-10.97,13.82,1
3218,48.9,-11.63,34.35,1
3219,48.92,-11.05,-21.45,1
3220,48.93,2.19,13.86,1
3221,48.95,8.9,14.62,1
3222,48.96,5.12,-19.67,1
3223,48.97,12.55,-13.71,1
3224,48.99,41.86,2.92,1
3225,49.0,8.71,-56.64,1
3226,49.01,48.46,-4.47,1
3227,49.03,30.94,17.07,1
3228,49.04,21.12,-20.47,1
3229,49.05,42.67,7.42,1
3230,49.06,33.86,30.7,1
3231,49.08,37.13,-9.32,1
3232,49.09,43.12,-22.91,1
3233,49.11,43.53,35.98,1
3234,49.12,44.01,-9.96,1
3235,49.13,37.07,8.75,1
3236,49.15,34.01,43.13,1
3237,49.16,33.6,-9.84,1
3238,49.17,34.25,-15.51,1
3239,49.19,53.47,23.26,1
3240,49.2,44.84,-24.1,1
3241,49.21,32.85,-7.5,1
3242,49.22,27.79,17.08,1
3243,49.24,22.68,-23.72,1
3244,49.25,27.95,6.04,1
3245,49.27,34.57,9.93,1
3246,49.28,23.74,-9.45,1
3247,49.29,27.54,2.51,1
3248,49.31,28.89,27.62,1
3249,49.32,-0.34,-16.54,1
3250,49.33,19.02,12.02,1
3251,49.35,22.75,26.87,1
3252,49.36,-2.29,1.12,1
3253,49.37,17.52,23.94,1
3254,49.38,15.5,15.34,1
3255,49.4,1.08,-2.65,1
3256,49.41,4.66,-6.41,1
3257,49.43,10.02,15.2,1
3258,49.44,-11.78,-2.61,1
3259,49.45,16.91,5.82,1
3260,49.47,2.2,26.98,1
3261,49.48,-17.72,5.81,1
3262,49.49,-10.49,12.84,1
3263,49.51,-0.08,1.67,1
3264,49.52,-23.63,-11.41,1
3265,49.53,-8.27,-7.6,1
3266,49.54,-6.61,26.18,1
3267,49.56,-11.93,-4.53,1
3268,49.57,-12.17,-1.67,1
3269,49.59,-2.42,8.58,1
3270,49.6,-22.82,-7.81,1
3271,49.61,-6.11,-15.43,1
3272,49.63,-1.34,33.55,1
3273,49.64,-9.99,-26.97,1
3274,49.65,-3.72,-26.04,1
3275,49.67,-12.55,-7.35,1
3276,49.68,-19.52,-25.05,1
3277,49.69,-20.52,-14.51,1
3278,49.71,-8.27,2.3,1
3279,49.72,-18.0,-16.13,1
3280,49.73,-0.99,-11.39,1
3281,49.75,-8.62,11.32,1
3282,49.76,-5.03,-15.6,1
3283,49.77,-11.21,-10.78,1
3284,49.79,-18.15,4.22,1
3285,49.8,-31.05,-9.56,1
3286,49.81,-5.21,-19.12,1
3287,49.83,0.47,-0.9,1
3288,49.84,-13.89,7.21,1
3289,49.85,-2.46,-2.87,1
3290,49.87,3.02,-0.76,1
3291,49.88,-24.85,8.85,1
3292,49.89,-10.89,-4.0,1
3293,49.9,-2.14,-6.94,1
3294,49.92,-7.81,-12.69,1
3295,49.93,-0.21,2.36,1
3296,49.95,8.28,2.61,1
3297,49.96,-21.34,12.18,1
3298,49.97,-6.13,5.68,1
3299,49.99,9.6,22.94,1
3300,50.0,-6.86,-0.9,1
3301,50.01,4.3,-19.22,1
3302,50.03,13.69,16.54,1
3303,50.04,12.95,-9.2,1
3304,50.05,-6.43,-23.01,1
3305,50.06,11.9,1.23,1
3306,50.08,-25.07,19.88,1
3307,50.09,-0.72,-8.93,1
3308,50.11,8.6,13.52,1
3309,50.12,6.54,18.05,1
3310,50.13,6.26,-7.05,1
3311,50.15,27.58,-12.67,1
3312,50.16,0.36,10.38,0
3313,50.17,6.53,3.16,0
3314,50.19,25.27,-33.71,0
3315,50.2,6.2,-18.22,0
3316,50.21,2.57,-21.33,0
3317,50.22,-63.67,-25.42,0
3318,50.24,-189.06,-23.06,0
3319,50.25,-227.28,-6.83,0
3320,50.27,-207.08,-41.97,0
3321,50.28,-193.95,-26.18,0
3322,50.29,-120.43,-17.55,0
3323,50.31,-36.6,4.22,0
3324,50.32,-16.97,59.63,0
3325,50.33,91.75,51.78,0
3326,50.35,134.91,57.67,0
3327,50.36,154.86,100.34,0
3328,50.37,195.67,45.59,0
3329,50.38,220.89,21.73,0
3330,50.4,182.05,49.49,0
3331,50.41,194.98,6.78,0
3332,50.43,198.01,5.79,0
3333,50.44,178.31,22.11,0
3334,50.45,171.15,-23.18,0
3335,50.47,143.57,-3.4,0
3336,50.48,97.1,31.51,0
3337,50.49,97.85,26.32,0
3338,50.51,76.6,-8.87,0
3339,50.52,36.25,9.77,0
3340,50.53,24.3,-26.1,0
3341,50.54,25.94,-7.91,0
3342,50.56,-23.28,-0.57,1
3343,50.57,-30.52,-8.24,1
3344,50.59,-39.62,-35.83,1
3345,50.6,-59.08,-3.33,1
3346,50.61,-44.93,-16.65,1
3347,50.63,-58.86,-28.94,1
3348,50.64,-77.79,10.25,1
3349,50.65,-82.95,-17.84,1
3350,50.67,-69.93,-20.85,1
3351,50.68,-105.72,-2.84,1
3352,50.69,-111.54,-20.03,1
3353,50.71,-93.57,2.32,1
3354,50.72,-103.24,-17.55,1
3355,50.73,-102.09,-14.77,1
3356,50.75,-72.8,-19.23,1
3357,50.76,-116.23,23.55,1
3358,50.77,-97.48,-42.45,1
3359,50.79,-66.67,-25.11,1
3360,50.8,-84.55,7.37,1
3361,50.81,-53.06,-16.18,1
3362,50.83,-35.11,-44.12,1
3363,50.84,-68.54,35.9,1
3364,50.85,-45.92,-18.1,1
3365,50.87,-10.65,-10.92,1
3366,50.88,-46.4,28.1,1
3367,50.89,-44.99,-37.96,1
3368,50.91,-8.55,-13.51,1
3369,50.92,-23.02,30.14,1
3370,50.93,-24.44,-31.17,1
3371,50.95,5.35,-22.69,1
3372,50.96,-17.04,41.45,1
3373,50.97,-2.41,-23.11,1
3374,50.99,25.92,-10.68,1
3375,51.0,2.45,21.62,1
3376,51.01,23.32,-27.26,1
3377,51.03,32.13,3.42,1
3378,51.04,25.93,42.16,1
3379,51.05,27.54,-24.31,1
3380,51.06,32.58,-15.7,1
3381,51.08,8.8,47.35,1
3382,51.09,23.42,-18.43,1
3383,51.11,43.55,-12.09,1
3384,51.12,22.85,31.83,1
3385,51.13,24.98,-27.91,1
3386,51.15,54.11,-24.36,1
3387,51.16,-14.74,35.25,1
3388,51.17,22.45,-22.64,1
3389,51.19,48.52,7.86,1
3390,51.2,41.17,20.35,1
3391,51.21,32.39,-0.15,1
3392,51.22,48.92,-2.9,1
3393,51.24,25.38,41.27,1
3394,51.25,39.93,-43.34,1
3395,51.27,65.48,12.97,1
3396,51.28,14.98,69.85,1
3397,51.29,28.8,-9.01,1
3398,51.31,43.62,9.12,1
3399,51.32,-3.21,50.17,1
3400,51.33,21.36,1.35,1
3401,51.35,41.22,17.4,1
3402,51.36,21.95,57.43,1
3403,51.37,19.44,-6.39,1
3404,51.38,26.45,5.17,1
3405,51.4,-4.92,32.42,1
3406,51.41,10.71,-44.96,1
3407,51.43,19.22,-2.98,1
3408,51.44,-7.59,49.54,1
3409,51.45,7.94,-29.06,1
3410,51.47,19.71,-1.66,1
3411,51.48,-18.31,19.72,1
3412,51.49,-14.83,-34.54,1
3413,51.51,9.52,-10.45,1
3414,51.52,-15.61,37.36,1
3415,51.53,-7.17,-42.71,1
3416,51.55,-2.52,-6.23,1
3417,51.56,-20.66,21.31,1
3418,51.57,-9.64,-10.83,1
3419,51.59,18.69,-6.98,1
3420,51.6,-29.9,22.02,1
3421,51.61,-9.57,-58.46,1
3422,51.63,-1.61,-8.91,1
3423,51.64,-17.74,25.42,1
3424,51.65,-9.78,-27.54,1
3425,51.67,-4.71,-26.65,1
3426,51.68,-22.26,22.54,1
3427,51.69,-21.51,-31.94,1
3428,51.71,3.67,-20.22,1
3429,51.72,-26.75,32.4,1
3430,51.73,-6.51,-38.29,1
3431,51.75,0.6,-26.61,1
3432,51.76,-23.27,17.03,1
3433,51.77,-16.73,-12.65,1
3434,51.79,-2.78,15.18,1
3435,51.8,-34.8,19.08,1
3436,51.81,-14.9,-29.34,1
3437,51.83,17.2,-2.86,1
3438,51.84,-0.66,44.36,1
3439,51.85,-19.95,-48.06,1
3440,51.87,6.12,-28.57,1
3441,51.88,-3.84,40.37,1
3442,51.89,-3.84,-31.2,1
3443,51.9,13.06,2.8,1
3444,51.92,-14.58,19.97,1
3445,51.93,2.18,-10.97,1
3446,51.95,0.9,3.84,1
3447,51.96,-10.09,46.66,1
3448,51.97,-3.4,-9.44,1
3449,51.99,2.41,-9.56,1
3450,52.0,-9.53,24.77,1
3451,52.01,-1.02,-33.05,1
3452,52.03,15.01,6.22,1
3453,52.04,-13.34,32.18,1
3454,52.05,-5.35,-22.39,1
3455,52.06,13.57,-3.85,1
3456,52.08,-36.99,18.44,1
3457,52.09,-21.87,-20.68,1
3458,52.11,19.35,-7.15,1
3459,52.12,-19.39,12.25,1
3460,52.13,-6.14,0.31,1
3461,52.15,43.95,9.9,1
3462,52.16,-30.61,19.76,2
3463,52.17,12.63,-50.27,2
3464,52.19,31.95,6.25,2
3465,52.2,4.68,44.55,2
3466,52.21,6.11,-8.39,2
3467,52.23,17.85,19.19,2
3468,52.24,-24.35,58.25,2
3469,52.25,110.63,26.19,2
3470,52.27,182.13,19.63,2
3471,52.28,215.5,54.55,2
3472,52.29,220.95,19.72,2
3473,52.31,201.37,11.91,2
3474,52.32,151.61,13.83,2
3475,52.33,87.02,-41.29,2
3476,52.35,54.83,-50.36,2
3477,52.36,17.5,-30.44,2
3478,52.37,-32.35,-67.31,2
3479,52.38,-67.12,-57.75,2
3480,52.4,-209.13,2.63,2
3481,52.41,-302.55,-74.06,2
3482,52.43,-301.61,-57.26,2
3483,52.44,-360.02,9.77,2
3484,52.45,-305.09,-19.75,2
3485,52.47,-249.24,-4.15,2
3486,52.48,-241.01,9.4,2
3487,52.49,-171.68,-11.15,2
3488,52.51,-132.88,9.85,2
3489,52.52,-126.17,25.29,2
3490,52.53,-68.36,-9.59,2
3491,52.54,-29.46,2.39,2
3492,52.56,-20.97,34.77,1
3493,52.57,43.48,-11.33,1
3494,52.59,76.18,19.97,1
3495,52.6,37.36,34.58,1
3496,52.61,71.61,3.79,1
3497,52.63,93.45,-9.46,1
3498,52.64,63.79,32.33,1
3499,52.65,78.96,6.2,1
3500,52.67,97.53,6.72,1
3501,52.68,75.92,2.2,1
3502,52.69,88.32,-9.31,1
3503,52.71,108.21,17.86,1
3504,52.72,99.37,37.5,1
3505,52.73,109.71,1.91,1
3506,52.75,118.83,21.87,1
3507,52.76,93.19,20.99,1
3508,52.77,101.54,-4.16,1
3509,52.79,110.47,6.9,1
3510,52.8,79.19,8.29,1
3511,52.81,88.41,1.38,1
3512,52.83,102.92,2.72,1
3513,52.84,55.75,14.38,1
3514,52.85,63.64,-1.73,1
3515,52.87,74.02,-4.98,1
3516,52.88,37.97,-28.99,1
3517,52.89,58.93,-8.82,1
3518,52.9,77.92,9.9,1
3519,52.92,17.57,2.48,1
3520,52.93,13.34,-6.79,1
3521,52.95,39.65,-18.89,1
3522,52.96,-13.19,-19.12,1
3523,52.97,12.03,-7.6,1
3524,52.99,3.1,-18.64,1
3525,53.0,-15.83,2.18,1
3526,53.01,-0.62,5.39,1
3527,53.03,-12.42,-10.75,1
3528,53.04,-31.69,-10.37,1
3529,53.05,-28.96,3.87,1
3530,53.06,-16.25,-11.39,1
3531,53.08,-36.11,-13.79,1
3532,53.09,-36.59,0.22,1
3533,53.11,-22.26,6.35,1
3534,53.12,-58.04,10.76,1
3535,53.13,-42.21,-14.53,1
3536,53.15,-39.5,6.28,1
3537,53.16,-58.39,0.54,1
3538,53.17,-40.89,13.54,1
3539,53.19,-31.88,-1.32,1
3540,53.2,-65.09,19.05,1
3541,53.21,-25.93,26.98,1
3542,53.22,-39.13,1.43,1
3543,53.24,-50.56,-0.42,1
3544,53.25,-28.74,16.59,1
3545,53.27,-19.71,-0.27,1
3546,53.28,-55.52,-3.68,1
3547,53.29,-41.65,-3.33,1
3548,53.31,-22.24,-5.58,1
3549,53.32,-43.76,8.29,1
3550,53.33,-38.2,-18.38,1
3551,53.35,-8.52,-16.2,1
3552,53.36,-27.75,-31.49,1
3553,53.37,-0.9,28.71,1
3554,53.38,-16.13,10.5,1
3555,53.4,-21.66,-12.02,1
3556,53.41,-11.36,3.96,1
3557,53.43,8.7,-25.86,1
3558,53.44,-17.19,-2.06,1
3559,53.45,-9.29,19.7,1
3560,53.47,-10.41,-9.23,1
3561,53.48,-36.38,-21.23,1
3562,53.49,-12.12,13.91,1
3563,53.51,20.84,4.85,1
3564,53.52,6.08,-12.97,1
3565,53.53,4.33,23.35,1
3566,53.54,12.36,-11.18,1
3567,53.56,0.2,-17.68,1
3568,53.57,26.34,13.2,1
3569,53.59,15.25,-1.18,1
3570,53.6,-0.05,-0.81,1
3571,53.61,1.99,25.03,1
3572,53.63,18.63,-2.02,1
3573,53.64,8.25,-27.65,1
3574,53.65,9.76,23.89,1
3575,53.67,21.13,1.73,1
3576,53.68,0.24,-10.08,1
3577,53.69,12.87,26.15,1
3578,53.71,21.01,-11.61,1
3579,53.72,-2.93,-32.5,1
3580,53.73,23.16,7.27,1
3581,53.75,23.44,-33.7,1
3582,53.76,5.72,-11.78,1
3583,53.77,10.06,30.65,1
3584,53.79,25.16,9.53,1
3585,53.8,-1.42,-22.92,1
3586,53.81,12.01,33.19,1
3587,53.83,29.25,6.36,1
3588,53.84,12.12,-0.38,1
3589,53.85,12.8,23.96,1
3590,53.87,-2.28,-17.16,1
3591,53.88,-7.55,-14.93,1
3592,53.89,2.03,13.78,1
3593,53.9,12.65,-15.35,1
3594,53.92,5.49,5.66,1
3595,53.93,7.18,16.41,1
3596,53.95,9.8,-24.79,1
3597,53.96,-6.3,-14.91,1
3598,53.97,5.48,19.71,1
3599,53.99,22.04,-8.71,1
3600,54.0,-10.02,-16.89,1
3601,54.01,2.05,59.42,1
3602,54.03,16.03,-9.81,1
3603,54.04,2.0,-7.09,1
3604,54.05,-8.96,27.31,1
3605,54.06,0.22,-9.9,1
3606,54.08,-23.48,-12.67,1
3607,54.09,-1.52,32.58,1
3608,54.11,-9.16,-29.14,1
3609,54.12,-9.84,-8.21,1
3610,54.13,20.65,51.64,1
3611,54.15,9.79,31.15,1
3612,54.16,16.72,86.36,1
3613,54.17,0.03,116.71,1
3614,54.19,-13.35,75.93,1
3615,54.2,3.03,312.84,1
3616,54.21,74.44,-179.46,1
3617,54.22,-84.51,-39.52,1
3618,54.24,10.6,165.58,1
3619,54.25,-208.6,252.97,1
3620,54.27,-211.92,179.81,1
3621,54.28,428.83,129.67,1
3622,54.29,-87.88,47.07,1
3623,54.31,-30.78,20.48,1
3624,54.32,-231.41,-28.47,1
3625,54.33,134.81,-76.98,1
3626,54.35,-362.76,-88.33,1
3627,54.36,-60.86,-115.61,1
3628,54.37,-204.9,-148.77,1
3629,54.38,-59.17,-144.2,1
3630,54.4,133.52,-155.93,1
3631,54.41,117.08,-175.95,1
3632,54.43,403.91,-161.15,1
3633,54.44,138.76,-161.38,1
3634,54.45,209.19,-172.86,1
3635,54.47,-15.42,-150.81,1
3636,54.48,135.09,-143.45,1
3637,54.49,-21.3,-149.89,1
3638,54.51,222.19,-124.29,1
3639,54.52,-221.06,-111.78,1
3640,54.53,14.2,-115.25,1
3641,54.54,-52.42,-87.53,1
3642,54.56,344.49,-90.57,1
3643,54.57,75.32,-172.34,1
3644,54.59,112.25,-271.04,1
3645,54.6,46.78,-330.21,1
3646,54.61,27.19,-116.24,1
3647,54.63,10.64,-29.82,1
3648,54.64,57.67,-118.35,1
3649,54.65,99.97,36.84,1
3650,54.67,-293.83,170.62,1
3651,54.68,88.81,229.02,1
3652,54.69,-119.79,123.66,1
3653,54.71,-3.89,178.19,1
3654,54.72,-156.45,230.47,1
3655,54.73,220.62,-113.75,1
3656,54.75,-274.92,-70.92,1
3657,54.76,-391.87,-91.73,1
3658,54.77,-224.73,-59.39,1
3659,54.79,-238.59,414.9,1
3660,54.8,-179.12,294.83,1
3661,54.81,-63.21,108.23,1
3662,54.83,-54.86,210.21,1
3663,54.84,-118.55,128.82,1
3664,54.85,-133.15,239.24,1
3665,54.87,-122.33,-66.36,1
3666,54.88,-58.14,-32.86,1
3667,54.89,-59.19,58.16,1
3668,54.9,42.31,189.35,1
3669,54.92,197.44,225.55,1
3670,54.93,185.83,420.91,1
3671,54.95,88.49,77.73,1
3672,54.96,-6.25,-20.98,1
3673,54.97,180.64,-25.59,1
3674,54.99,76.9,-238.46,1
3675,55.0,123.27,-257.53,1
3676,55.01,245.55,-193.44,1
3677,55.03,78.29,-121.16,1
3678,55.04,153.02,-42.38,1
3679,55.05,183.61,-13.18,1
3680,55.06,228.42,41.19,1
3681,55.08,236.66,87.81,1
3682,55.09,162.41,93.2,1
3683,55.11,70.02,123.55,1
3684,55.12,24.97,151.02,1
3685,55.13,-48.65,138.12,1
3686,55.15,-83.43,152.34,1
3687,55.16,-103.0,165.05,1
3688,55.17,-141.56,140.29,1
3689,55.19,-128.25,142.12,1
3690,55.2,-135.35,187.61,1
3691,55.21,-134.12,233.83,1
3692,55.22,-117.67,248.83,1
3693,55.24,-125.03,310.1,1
3694,55.25,-126.03,301.96,1
3695,55.27,-111.45,190.13,1
3696,55.28,-79.23,164.02,1
3697,55.29,-71.77,149.46,1
3698,55.31,-56.88,46.57,1
3699,55.32,-52.36,9.68,1
3700,55.33,-27.2,24.87,1
3701,55.35,-22.59,-67.05,1
3702,55.36,-10.92,-109.39,1
3703,55.37,-26.06,-116.28,1
3704,55.38,8.46,-187.99,1
3705,55.4,-0.42,-184.23,1
3706,55.41,3.35,-191.51,1
3707,55.43,0.49,-261.67,1
3708,55.44,24.22,-250.03,1
3709,55.45,7.82,-252.2,1
3710,55.47,9.92,-279.41,1
3711,55.48,13.3,-271.56,1
3712,55.49,17.65,-234.92,1
3713,55.51,13.35,-277.99,1
3714,55.52,27.83,-259.52,1
3715,55.53,24.91,-223.88,1
3716,55.54,35.68,-227.57,1
3717,55.56,35.68,-202.95,1
3718,55.57,27.31,-165.54,1
3719,55.59,38.57,-181.63,1
3720,55.6,45.21,-158.38,1
3721,55.61,14.96,-120.57,1
3722,55.63,30.64,-128.45,1
3723,55.64,41.15,-112.21,1
3724,55.65,22.41,-81.88,1
3725,55.67,26.22,-89.3,1
3726,55.68,44.86,-66.33,1
3727,55.69,15.52,-21.47,1
3728,55.71,35.42,-21.79,1
3729,55.72,28.47,-18.84,1
3730,55.73,20.96,-0.88,1
3731,55.75,3.89,14.84,1
3732,55.76,18.26,18.91,1
3733,55.77,12.92,46.6,1
3734,55.79,21.36,24.91,1
3735,55.8,23.46,66.44,1
3736,55.81,-2.01,71.07,1
3737,55.83,12.54,69.38,1
3738,55.84,21.17,73.67,1
3739,55.85,5.55,112.98,1
3740,55.87,0.81,94.21,1
3741,55.88,-8.29,106.3,1
3742,55.89,5.19,129.36,1
3743,55.9,2.21,97.17,1
3744,55.92,11.03,105.71,1
3745,55.93,-3.41,93.27,1
3746,55.95,-2.87,87.23,1
3747,55.96,7.62,103.27,1
3748,55.97,-14.04,113.16,1
3749,55.99,-13.93,99.25,1
3750,56.0,2.0,121.93,1
3751,56.01,-16.95,108.78,1
3752,56.03,-4.04,62.64,1
3753,56.04,-4.75,72.41,1
3754,56.05,-25.72,96.88,1
3755,56.06,-15.99,87.3,1
3756,56.08,-4.01,80.41,1
3757,56.09,-30.33,61.24,1
3758,56.11,-34.08,63.79,1
3759,56.12,6.87,26.26,1
3760,56.13,-33.25,60.8,1
3761,56.15,-5.21,17.24,1
3762,56.16,5.22,44.41,2
3763,56.17,-9.98,57.86,2
3764,56.19,0.17,27.25,2
3765,56.2,-2.19,20.62,2
3766,56.21,-20.04,-10.02,2
3767,56.22,107.35,-3.26,2
3768,56.24,188.4,-47.75,2
3769,56.25,219.2,-6.8,2
3770,56.27,198.06,-12.06,2
3771,56.28,166.05,-45.38,2
3772,56.29,65.71,-23.9,2
3773,56.31,-15.82,6.67,2
3774,56.32,-70.48,-5.18,2
3775,56.33,-130.09,-3.47,2
3776,56.35,-160.09,-0.72,2
3777,56.36,-157.21,0.49,2
3778,56.37,-187.86,-6.87,2
3779,56.38,-191.16,-7.8,2
3780,56.4,-161.3,-49.58,2
3781,56.41,-184.56,-26.23,2
3782,56.43,-137.7,-7.22,2
3783,56.44,-126.93,-41.19,2
3784,56.45,-130.8,-46.02,2
3785,56.47,-94.8,-25.54,2
3786,56.48,-74.73,-41.99,2
3787,56.49,-80.95,-44.8,2
3788,56.51,-51.14,-14.87,2
3789,56.52,-24.85,-39.43,2
3790,56.53,-39.85,-30.92,2
3791,56.54,9.38,-25.03,2
3792,56.56,27.64,-49.27,1
3793,56.57,2.02,-42.17,1
3794,56.59,41.14,-5.83,1
3795,56.6,70.14,-21.09,1
3796,56.61,54.05,-41.58,1
3797,56.63,57.76,-6.13,1
3798,56.64,87.89,-36.84,1
3799,56.65,61.98,-27.8,1
3800,56.67,86.39,-1.78,1
3801,56.68,101.42,-40.88,1
3802,56.69,73.87,-32.2,1
3803,56.71,81.85,-6.22,1
3804,56.72,107.95,-25.34,1
3805,56.73,75.82,-12.88,1
3806,56.75,76.35,4.5,1
3807,56.76,103.1,-22.18,1
3808,56.77,66.97,-17.44,1
3809,56.79,71.73,5.17,1
3810,56.8,71.01,-17.59,1
3811,56.81,51.84,-17.13,1
3812,56.83,38.5,9.77,1
3813,56.84,57.55,-9.79,1
3814,56.85,24.21,2.46,1
3815,56.87,40.52,20.43,1
3816,56.88,22.03,6.04,1
3817,56.89,-2.78,19.9,1
3818,56.9,5.33,53.46,1
3819,56.92,33.32,12.75,1
3820,56.93,-2.72,19.38,1
3821,56.95,4.66,44.67,1
3822,56.96,11.81,15.59,1
3823,56.97,-18.97,12.04,1
3824,56.99,-10.54,44.48,1
3825,57.0,0.4,4.05,1
3826,57.01,-28.47,27.4,1
3827,57.03,-9.92,37.53,1
3828,57.04,2.29,-4.74,1
3829,57.05,-44.72,1.27,1
3830,57.06,-29.55,23.92,1
3831,57.08,1.34,-8.25,1
3832,57.09,-43.19,14.14,1
3833,57.11,-26.72,32.13,1
3834,57.12,-20.73,-13.24,1
3835,57.13,-59.29,-6.36,1
3836,57.15,-36.6,28.09,1
3837,57.16,-23.24,-8.15,1
3838,57.17,-44.39,-10.37,1
3839,57.19,-36.08,34.13,1
3840,57.2,-2.92,-8.34,1
3841,57.21,-31.99,-12.94,1
3842,57.22,-34.62,11.91,1
3843,57.24,-8.29,-19.59,1
3844,57.25,-53.17,-12.29,1
3845,57.27,-26.63,38.54,1
3846,57.28,1.74,-15.63,1
3847,57.29,-26.54,-2.27,1
3848,57.31,-21.58,19.68,1
3849,57.32,5.12,-22.98,1
3850,57.33,-28.15,-21.72,1
3851,57.35,-16.12,25.84,1
3852,57.36,0.92,-27.06,1
3853,57.37,-35.74,-7.31,1
3854,57.38,-28.44,34.18,1
3855,57.4,-1.66,-24.25,1
3856,57.41,-34.67,-23.85,1
3857,57.43,-14.6,26.36,1
3858,57.44,8.62,-30.57,1
3859,57.45,-8.72,-5.56,1
3860,57.47,6.88,19.22,1
3861,57.48,28.25,-24.51,1
3862,57.49,7.77,-35.41,1
3863,57.51,3.51,28.92,1
3864,57.52,24.65,-23.28,1
3865,57.53,-34.43,-1.42,1
3866,57.54,-6.25,34.38,1
3867,57.56,16.18,-22.72,1
3868,57.57,-11.36,-18.99,1
3869,57.59,23.92,20.38,1
3870,57.6,31.91,-40.52,1
3871,57.61,-4.4,-11.93,1
3872,57.63,7.93,20.39,1
3873,57.64,33.86,-35.83,1
3874,57.65,-18.66,-1.2,1
3875,57.67,8.11,36.95,1
3876,57.68,41.99,-17.71,1
3877,57.69,-8.93,16.37,1
3878,57.71,19.91,37.7,1
3879,57.72,9.69,-27.78,1
3880,57.73,6.66,3.45,1
3881,57.75,21.15,44.2,1
3882,57.76,38.7,-33.75,1
3883,57.77,-12.5,-3.11,1
3884,57.79,-2.51,19.16,1
3885,57.8,19.64,-41.49,1
3886,57.81,-15.16,-6.13,1
3887,57.83,-3.81,24.09,1
3888,57.84,5.75,-26.93,1
3889,57.85,-11.98,-2.3,1
3890,57.87,4.38,32.15,1
3891,57.88,28.44,-24.55,1
3892,57.89,-18.18,-9.08,1
3893,57.9,12.7,37.49,1
3894,57.92,18.84,-4.2,1
3895,57.93,-11.52,20.84,1
3896,57.95,7.92,30.52,1
3897,57.96,18.06,-28.95,1
3898,57.97,-31.71,-4.32,1
3899,57.99,12.42,32.58,1
3900,58.0,26.71,-13.85,1
3901,58.01,-3.52,-21.15,1
3902,58.025000000000006,8.47,23.6,1
3903,58.04,17.5,-26.97,1
3904,58.05,-17.93,-12.83,1
3905,58.06,-3.02,41.26,1
3906,58.08,-9.2,-42.29,1
3907,58.09,-23.64,-14.75,1
3908,58.11,8.35,23.57,1
3909,58.12,3.21,-16.86,1
3910,58.13,-12.48,9.19,1
3911,58.15,3.84,29.37,1
3912,58.16,17.14,-34.73,0
3913,58.17,-10.64,-6.5,0
3914,58.19,-1.99,53.63,0
3915,58.2,-13.88,9.12,0
3916,58.21,-33.23,64.96,0
3917,58.22,-64.51,106.19,0
3918,58.24,-80.17,-3.0,0
3919,58.25,-185.88,-34.87,0
3920,58.27,-187.11,-52.04,0
3921,58.28,-156.84,-128.82,0
3922,58.29,-187.75,-105.54,0
3923,58.31,-129.23,-78.57,0
3924,58.32,-79.45,-91.6,0
3925,58.33,-39.31,-30.26,0
3926,58.35,5.28,25.11,0
3927,58.36,105.44,10.04,0
3928,58.37,168.79,31.57,0
3929,58.38,256.5,84.42,0
3930,58.4,312.57,27.1,0
3931,58.41,268.39,42.73,0
3932,58.43,274.76,61.09,0
3933,58.44,256.58,20.38,0
3934,58.45,205.16,15.34,0
3935,58.47,185.23,47.27,0
3936,58.48,158.55,7.94,0
3937,58.49,88.04,17.83,0
3938,58.51,82.23,21.56,0
3939,58.52,66.52,-30.92,0
3940,58.53,-1.64,4.85,0
3941,58.54,-0.28,21.33,0
3942,58.56,-23.79,-16.38,1
3943,58.57,-102.25,-5.23,1
3944,58.59,-92.34,21.54,1
3945,58.6,-75.67,-6.29,1
3946,58.61,-102.29,-1.03,1
3947,58.63,-79.28,14.13,1
3948,58.64,-73.1,-10.49,1
3949,58.65,-103.36,-11.52,1
3950,58.66,-87.63,38.74,1
3951,58.68,-58.73,-8.59,1
3952,58.69,-114.68,-19.97,1
3953,58.71,-91.87,6.98,1
3954,58.72,-69.29,-11.75,1
3955,58.73,-111.36,12.44,1
3956,58.75,-95.06,6.12,1
3957,58.76,-74.31,-16.88,1
3958,58.77,-102.66,-4.55,1
3959,58.79,-68.43,-5.34,1
3960,58.8,-65.97,-19.36,1
3961,58.81,-80.56,-16.67,1
3962,58.83,-63.14,10.48,1
3963,58.84,-29.27,-22.04,1
3964,58.85,-76.55,-32.85,1
3965,58.87,-42.55,0.37,1
3966,58.88,-17.7,-14.46,1
3967,58.89,-42.41,-15.82,1
3968,58.9,-22.55,-8.02,1
3969,58.92,6.82,-9.68,1
3970,58.93,-26.34,-11.33,1
3971,58.95,-12.94,-2.81,1
3972,58.96,23.58,-13.85,1
3973,58.97,-15.74,12.89,1
3974,58.99,25.56,10.54,1
3975,59.0,28.38,-2.45,1
3976,59.01,11.6,4.66,1
3977,59.03,9.95,-1.22,1
3978,59.04,48.21,-20.87,1
3979,59.05,2.49,22.91,1
3980,59.06,35.53,16.96,1
3981,59.08,39.84,1.22,1
3982,59.09,35.62,-2.17,1
3983,59.11,33.2,17.89,1
3984,59.12,47.89,1.64,1
3985,59.13,22.16,5.53,1
3986,59.15,39.67,12.7,1
3987,59.16,60.21,1.46,1
3988,59.17,18.89,-13.12,1
3989,59.19,44.61,-6.16,1
3990,59.2,54.5,-8.62,1
3991,59.21,4.12,1.07,1
3992,59.22,27.32,6.0,1
3993,59.24,46.27,-8.47,1
3994,59.25,10.1,10.76,1
3995,59.27,35.44,11.14,1
3996,59.28,57.6,-6.67,1
3997,59.29,22.81,8.56,1
3998,59.3,27.61,-5.02,1
3999,59.32,32.96,2.11,1
4000,59.33,6.08,-0.32,1
4001,59.35,31.48,-11.51,1
4002,59.36,20.93,17.96,1
4003,59.37,-0.04,-8.44,1
4004,59.38,13.09,-8.5,1
4005,59.4,24.15,8.19,1
4006,59.41,-8.55,-10.51,1
4007,59.43,10.89,-1.64,1
4008,59.44,18.15,33.54,1
4009,59.45,-8.31,5.37,1
4010,59.47,12.79,-3.44,1
4011,59.48,16.1,-6.71,1
4012,59.49,-2.59,1.18,1
4013,59.51,9.79,-12.35,1
4014,59.52,17.29,1.37,1
4015,59.53,-26.98,6.84,1
4016,59.54,-6.25,3.06,1
4017,59.56,2.04,-0.19,1
4018,59.57,-39.96,-12.74,1
4019,59.59,-18.69,-14.81,1
4020,59.6,-8.05,1.58,1
4021,59.61,-50.31,-11.86,1
4022,59.63,-14.39,-4.81,1
4023,59.64,-0.08,39.22,1
4024,59.65,-32.13,14.61,1
4025,59.67,-2.88,-5.7,1
4026,59.68,-5.53,15.95,1
4027,59.69,-22.17,-10.91,1
4028,59.71,-7.96,0.98,1
4029,59.72,-3.37,19.05,1
4030,59.73,-34.69,-15.62,1
4031,59.75,-0.72,-8.2,1
4032,59.76,9.61,12.41,1
4033,59.77,-28.73,-15.7,1
4034,59.79,-20.7,-8.0,1
4035,59.8,-10.49,34.79,1
4036,59.81,-13.84,-32.79,1
4037,59.83,-14.31,-10.53,1
4038,59.84,-2.37,20.5,1
4039,59.85,-26.36,-16.72,1
4040,59.87,3.6,-23.03,1
4041,59.88,16.3,45.63,1
4042,59.89,-11.35,17.46,1
4043,59.9,-4.57,1.37,1
4044,59.92,8.95,24.86,1
4045,59.93,-13.38,-2.98,1
4046,59.94,-1.28,-12.16,1
4047,59.96,9.48,4.84,1
4048,59.97,-11.36,-27.72,1
4049,59.985,4.07,-25.68,1
4050,60.0,8.41,1.63,1
4051,60.01,-9.55,-6.13,1
4052,60.03,8.09,-13.55,1
4053,60.04,26.97,21.88,1
4054,60.05,-16.92,-15.71,1
4055,60.06,-5.21,4.65,1
4056,60.08,-6.34,22.03,1
4057,60.09,-25.77,-24.89,1
4058,60.11,-5.83,-10.47,1
4059,60.12,11.57,24.17,1
4060,60.13,-3.63,-15.6,1
4061,60.15,15.19,-3.03,1
4062,60.16,18.13,24.42,0
4063,60.17,6.99,-8.54,0
4064,60.19,14.41,-44.42,0
4065,60.2,17.35,-21.92,0
4066,60.21,-14.26,-21.2,0
4067,60.22,-45.7,-77.23,0
4068,60.24,-122.72,-0.72,0
4069,60.25,-222.31,-66.25,0
4070,60.27,-226.4,-38.52,0
4071,60.28,-163.7,25.93,0
4072,60.29,-138.15,8.02,0
4073,60.31,-57.32,42.29,0
4074,60.32,3.33,81.02,0
4075,60.33,39.01,1.49,0
4076,60.35,103.51,38.24,0
4077,60.36,152.38,89.65,0
4078,60.37,175.37,15.43,0
4079,60.38,201.05,46.59,0
4080,60.4,229.15,60.72,0
4081,60.41,202.94,33.13,0
4082,60.43,203.98,14.96,0
4083,60.44,182.36,56.35,0
4084,60.45,149.5,-36.48,0
4085,60.47,138.48,11.45,0
4086,60.48,122.78,10.42,0
4087,60.49,93.29,-14.74,0
4088,60.51,78.52,-25.37,0
4089,60.52,70.66,40.89,0
4090,60.53,33.2,-19.42,0
4091,60.54,13.08,-20.89,0
4092,60.56,0.76,19.56,1
4093,60.57,-27.44,-43.65,1
4094,60.58,-40.16,-28.08,1
4095,60.6,-29.59,24.87,1
4096,60.61,-65.41,-45.37,1
4097,60.62,-59.69,-27.44,1
4098,60.64,-64.6,16.04,1
4099,60.65,-85.28,-36.56,1
4100,60.67,-94.47,-11.03,1
4101,60.68,-82.2,21.29,1
4102,60.69,-108.94,-35.37,1
4103,60.71,-106.6,-18.05,1
4104,60.72,-112.5,12.59,1
4105,60.73,-131.86,-53.43,1
4106,60.75,-128.21,-37.43,1
4107,60.76,-108.78,29.78,1
4108,60.77,-112.22,-55.21,1
4109,60.79,-68.9,-40.99,1
4110,60.8,-56.59,18.78,1
4111,60.81,-44.67,-30.16,1
4112,60.83,-55.12,3.17,1
4113,60.84,-33.39,25.82,1
4114,60.85,-54.16,-17.61,1
4115,60.87,-32.96,-9.02,1
4116,60.88,-38.49,3.41,1
4117,60.89,-26.74,-34.08,1
4118,60.9,-35.0,-9.88,1
4119,60.92,-21.97,18.63,1
4120,60.93,-2.42,-25.04,1
4121,60.95,1.19,9.13,1
4122,60.96,7.01,44.95,1
4123,60.97,-5.67,-21.85,1
4124,60.99,-7.04,2.05,1
4125,61.0,0.21,32.25,1
4126,61.01,4.52,-15.44,1
4127,61.03,-9.64,27.63,1
4128,61.04,29.12,50.8,1
4129,61.05,15.35,-9.95,1
4130,61.06,31.67,3.09,1
4131,61.08,50.63,26.55,1
4132,61.09,43.35,-27.03,1
4133,61.11,42.2,-15.08,1
4134,61.12,56.73,43.26,1
4135,61.13,46.84,-13.07,1
4136,61.15,49.74,11.39,1
4137,61.16,51.62,31.53,1
4138,61.17,25.5,-6.73,1
4139,61.19,25.62,36.8,1
4140,61.2,38.21,31.1,1
4141,61.21,41.2,-36.44,1
4142,61.22,55.41,-7.16,1
4143,61.24,36.04,37.5,1
4144,61.25,47.6,-18.16,1
4145,61.26,23.67,-14.77,1
4146,61.28,27.04,27.68,1
4147,61.29,12.01,-32.03,1
4148,61.31,24.81,4.8,1
4149,61.32,24.72,14.59,1
4150,61.33,15.07,-16.99,1
4151,61.35,7.22,-9.58,1
4152,61.36,9.22,27.52,1
4153,61.37,10.46,-5.6,1
4154,61.38,5.33,-23.26,1
4155,61.4,18.18,14.01,1
4156,61.41,18.52,-3.28,1
4157,61.43,-21.81,2.8,1
4158,61.44,6.42,29.69,1
4159,61.45,-0.32,-22.34,1
4160,61.47,2.0,-8.28,1
4161,61.48,2.99,23.19,1
4162,61.49,10.92,-28.69,1
4163,61.51,-11.07,6.42,1
4164,61.52,1.71,28.91,1
4165,61.53,-2.14,-21.74,1
4166,61.54,-21.27,3.32,1
4167,61.56,4.04,16.73,1
4168,61.57,-3.49,-9.41,1
4169,61.59,-2.08,-20.7,1
4170,61.6,-10.17,30.14,1
4171,61.61,-5.82,-13.27,1
4172,61.63,-15.51,-1.82,1
4173,61.64,-12.77,0.79,1
4174,61.65,-9.76,-33.63,1
4175,61.67,-18.08,-14.54,1
4176,61.68,-13.96,21.59,1
4177,61.69,-3.15,-19.68,1
4178,61.71,-16.77,-14.31,1
4179,61.72,-7.92,6.53,1
4180,61.73,-19.83,-12.31,1
4181,61.75,-19.02,9.38,1
4182,61.76,-0.17,34.39,1
4183,61.77,-3.9,-13.7,1
4184,61.79,-32.33,4.61,1
4185,61.8,-6.16,-1.31,1
4186,61.81,5.94,-27.45,1
4187,61.83,-1.28,11.03,1
4188,61.84,2.82,0.13,1
4189,61.85,-17.28,-20.34,1
4190,61.86,-6.07,-18.1,1
4191,61.88,-10.71,14.12,1
4192,61.89,-0.69,9.98,1
4193,61.9,-8.87,13.82,1
4194,61.92,-9.76,3.41,1
4195,61.93,-7.13,2.72,1
4196,61.95,-15.89,0.95,1
4197,61.96,-7.65,-6.57,1
4198,61.97,12.59,-17.94,1
4199,61.99,-1.99,7.56,1
4200,62.0,-5.69,4.84,1
4201,62.01,13.17,0.83,1
4202,62.03,-8.6,3.67,1
4203,62.04,6.15,1.87,1
4204,62.05,0.32,-8.58,1
4205,62.06,8.32,13.33,1
4206,62.08,-4.81,14.92,1
4207,62.09,-7.55,-7.76,1
4208,62.11,-3.89,6.67,1
4209,62.12,7.56,23.97,1
4210,62.13,3.91,-4.31,1
4211,62.15,5.63,-14.09,1
4212,62.16,3.2,7.65,2
4213,62.17,26.96,-20.61,2
4214,62.19,-5.43,19.34,2
4215,62.2,-13.74,32.76,2
4216,62.21,0.45,-0.27,2
4217,62.22,-5.48,-5.74,2
4218,62.24,2.68,37.37,2
4219,62.25,5.44,34.24,2
4220,62.27,118.48,53.9,2
4221,62.28,177.75,34.53,2
4222,62.29,237.34,20.46,2
4223,62.31,208.99,-4.78,2
4224,62.32,190.02,-43.88,2
4225,62.33,154.45,-51.17,2
4226,62.35,93.57,-65.21,2
4227,62.36,39.38,-81.34,2
4228,62.37,22.34,-55.92,2
4229,62.38,-28.21,-36.87,2
4230,62.4,-68.16,-42.66,2
4231,62.41,-108.93,-13.99,2
4232,62.43,-266.95,-10.22,2
4233,62.44,-303.61,-4.32,2
4234,62.45,-340.58,-1.42,2
4235,62.47,-334.52,-16.88,2
4236,62.48,-303.85,-25.08,2
4237,62.49,-258.92,16.7,2
4238,62.5,-228.77,6.94,2
4239,62.52,-185.57,19.3,2
4240,62.53,-123.11,27.6,2
4241,62.54,-94.68,26.38,2
4242,62.56,-55.82,9.36,1
4243,62.57,-13.27,12.3,1
4244,62.585,-14.26,1.11,1
4245,62.6,29.33,-12.56,1
4246,62.61,58.97,9.31,1
4247,62.63,41.91,-4.67,1
4248,62.64,94.04,-6.05,1
4249,62.65,112.18,19.17,1
4250,62.67,81.86,4.66,1
4251,62.68,102.06,-4.69,1
4252,62.69,120.98,21.75,1
4253,62.71,104.19,11.66,1
4254,62.72,118.24,17.98,1
4255,62.73,140.89,36.79,1
4256,62.75,92.54,21.78,1
4257,62.76,126.41,8.99,1
4258,62.77,130.23,48.31,1
4259,62.79,109.97,28.04,1
4260,62.8,108.02,-1.4,1
4261,62.81,106.23,22.41,1
4262,62.83,91.74,-0.46,1
4263,62.84,101.04,-6.76,1
4264,62.85,84.07,24.13,1
4265,62.87,73.0,-5.35,1
4266,62.88,63.12,-25.1,1
4267,62.89,70.35,20.43,1
4268,62.9,38.86,4.16,1
4269,62.92,42.6,1.52,1
4270,62.93,52.88,5.57,1
4271,62.95,11.36,-19.75,1
4272,62.96,13.3,-18.2,1
4273,62.97,24.7,20.29,1
4274,62.99,-2.41,-8.48,1
4275,63.0,2.16,-15.36,1
4276,63.01,18.19,11.4,1
4277,63.03,-19.49,-28.65,1
4278,63.04,-31.18,-30.75,1
4279,63.05,-8.25,9.22,1
4280,63.06,-44.7,-37.39,1
4281,63.08,-29.46,-6.94,1
4282,63.09,-25.53,28.35,1
4283,63.11,-60.15,-1.81,1
4284,63.12,-66.49,-18.16,1
4285,63.13,-34.45,15.19,1
4286,63.14,-53.56,-7.71,1
4287,63.16,-50.29,-22.38,1
4288,63.17,-25.36,12.69,1
4289,63.18,-47.68,-16.82,1
4290,63.2,-41.95,-20.7,1
4291,63.21,-39.69,25.88,1
4292,63.22,-54.21,-15.73,1
4293,63.24,-56.32,-0.28,1
4294,63.25,-10.45,36.88,1
4295,63.27,-52.67,-20.39,1
4296,63.28,-47.57,-21.28,1
4297,63.29,-23.06,24.39,1
4298,63.31,-42.79,-9.94,1
4299,63.32,-48.73,-33.68,1
4300,63.33,-28.97,23.21,1
4301,63.35,-37.02,-12.04,1
4302,63.36,-41.13,-18.35,1
4303,63.37,-5.8,28.03,1
4304,63.38,-31.22,-21.7,1
4305,63.4,-28.53,-9.32,1
4306,63.41,4.8,37.7,1
4307,63.43,-31.88,-27.26,1
4308,63.44,-21.76,-16.24,1
4309,63.45,-3.39,31.0,1
4310,63.47,-28.81,-31.18,1
4311,63.48,-5.55,-24.59,1
4312,63.49,4.77,23.55,1
4313,63.51,-13.94,-2.85,1
4314,63.52,16.37,9.53,1
4315,63.53,22.6,29.73,1
4316,63.54,-0.12,-32.31,1
4317,63.56,-5.81,-16.97,1
4318,63.57,29.79,39.63,1
4319,63.59,2.03,-23.47,1
4320,63.6,13.37,-18.38,1
4321,63.61,13.95,38.44,1
4322,63.63,-12.29,-20.29,1
4323,63.64,16.09,10.65,1
4324,63.65,38.32,20.46,1
4325,63.67,-3.07,-21.32,1
4326,63.68,9.92,-2.94,1
4327,63.69,30.11,45.73,1
4328,63.71,1.06,-4.05,1
4329,63.72,22.8,11.79,1
4330,63.73,31.29,27.27,1
4331,63.75,4.4,-32.93,1
4332,63.76,2.33,-11.73,1
4333,63.77,43.22,40.66,1
4334,63.78,11.52,-20.6,1
4335,63.8,18.94,-17.06,1
4336,63.81,33.44,40.42,1
4337,63.82,-4.6,-9.38,1
4338,63.84,9.68,-13.1,1
4339,63.85,32.82,22.14,1
4340,63.86,0.12,-10.43,1
4341,63.88,12.13,-9.36,1
4342,63.89,19.94,29.76,1
4343,63.9,-13.52,-30.34,1
4344,63.92,-1.63,5.55,1
4345,63.93,16.87,47.37,1
4346,63.95,-10.7,-32.58,1
4347,63.96,5.35,-36.38,1
4348,63.97,25.84,37.55,1
4349,63.99,-19.45,-26.75,1
4350,64.0,10.78,-8.9,1
4351,64.01,18.15,10.41,1
4352,64.02,-19.24,-13.05,1
4353,64.04,-14.75,11.22,1
4354,64.05,22.98,33.8,1
4355,64.06,0.43,-34.55,1
4356,64.08,-13.87,-5.77,1
4357,64.09,0.89,10.4,1
4358,64.11,-8.29,-45.75,1
4359,64.12,3.14,13.9,1
4360,64.13,28.01,45.25,1
4361,64.14,-1.72,-5.68,1
4362,64.16,-17.04,-8.83,1
4363,64.17,9.46,180.87,1
4364,64.18,-30.36,233.4,1
4365,64.2,-5.85,313.74,1
4366,64.21,28.99,31.12,1
4367,64.22,4.71,-68.05,1
4368,64.24,-55.35,180.46,1
4369,64.25,-144.84,144.69,1
4370,64.26,-128.85,97.17,1
4371,64.28,-242.79,74.15,1
4372,64.29,315.05,-4.27,1
4373,64.3,-339.97,-33.08,1
4374,64.32,-144.56,-53.16,1
4375,64.33,-55.01,-105.27,1
4376,64.34,-148.77,-119.19,1
4377,64.36,-73.53,-120.32,1
4378,64.37,107.98,-159.2,1
4379,64.38,-53.61,-158.44,1
4380,64.4,223.5,-147.69,1
4381,64.41,163.3,-172.35,1
4382,64.42,271.2,-163.33,1
4383,64.44,401.54,-143.53,1
4384,64.45,-104.7,-162.04,1
4385,64.46,165.93,-147.65,1
4386,64.48,83.63,-119.79,1
4387,64.49,112.85,-134.54,1
4388,64.5,48.17,-116.5,1
4389,64.52,213.82,-85.94,1
4390,64.53,1.88,-97.8,1
4391,64.54,171.44,-105.63,1
4392,64.56,-95.76,-122.11,1
4393,64.57,81.85,-135.64,1
4394,64.58,-50.9,7.51,1
4395,64.6,-60.68,-204.62,1
4396,64.61,-21.9,-338.66,1
4397,64.62,43.29,21.2,1
4398,64.64,-20.57,-69.93,1
4399,64.65,145.71,72.78,1
4400,64.66,-257.61,-184.15,1
4401,64.68,-148.57,19.27,1
4402,64.69,-206.92,318.1,1
4403,64.7,104.88,-15.21,1
4404,64.72,-75.99,173.25,1
4405,64.73,-79.17,118.2,1
4406,64.75,139.09,-76.41,1
4407,64.76,-153.62,253.72,1
4408,64.77,327.48,173.76,1
4409,64.79,-72.95,291.98,1
4410,64.8,-280.47,111.6,1
4411,64.81,-49.74,190.84,1
4412,64.82,-268.03,499.28,1
4413,64.84,146.88,255.36,1
4414,64.85,-177.57,162.83,1
4415,64.86,42.36,-22.73,1
4416,64.88,-2.83,-94.09,1
4417,64.89,221.62,90.29,1
4418,64.9,-31.79,130.74,1
4419,64.92,-334.05,-128.21,1
4420,64.93,-85.86,-21.5,1
4421,64.94,72.09,-163.69,1
4422,64.96,124.08,-229.49,1
4423,64.97,-127.14,-253.26,1
4424,64.98,132.65,-153.72,1
4425,65.0,-93.43,-63.03,1
4426,65.01,133.36,-20.24,1
4427,65.02,65.55,30.64,1
4428,65.04,157.1,98.92,1
4429,65.05,157.47,109.1,1
4430,65.06,77.82,135.66,1
4431,65.08,27.83,180.1,1
4432,65.09,-29.5,169.02,1
4433,65.1,-96.08,176.81,1
4434,65.12,-109.26,204.03,1
4435,65.13,-116.94,177.43,1
4436,65.14,-143.8,171.67,1
4437,65.16,-115.96,187.7,1
4438,65.17,-105.16,153.45,1
4439,65.18,-130.9,148.92,1
4440,65.2,-83.77,238.37,1
4441,65.21,-84.41,295.87,1
4442,65.22,-92.1,259.16,1
4443,65.24,-62.89,267.41,1
4444,65.25,-42.93,225.2,1
4445,65.26,-45.07,158.86,1
4446,65.28,-1.38,94.0,1
4447,65.29,25.11,65.15,1
4448,65.3,-11.51,0.15,1
4449,65.32,8.97,-53.06,1
4450,65.33,59.25,-76.01,1
4451,65.34,57.13,-128.01,1
4452,65.36,84.04,-125.69,1
4453,65.37,71.87,-146.48,1
4454,65.38,39.91,-203.55,1
4455,65.4,31.08,-191.47,1
4456,65.41,42.1,-241.76,1
4457,65.43,24.55,-267.47,1
4458,65.44,71.24,-239.34,1
4459,65.45,82.43,-250.29,1
4460,65.46,21.62,-232.48,1
4461,65.48,54.69,-251.2,1
4462,65.49,69.12,-229.05,1
4463,65.5,31.43,-210.83,1
4464,65.52,36.72,-210.69,1
4465,65.53,61.48,-235.32,1
4466,65.54,46.92,-211.06,1
4467,65.56,51.17,-216.16,1
4468,65.57,57.07,-189.94,1
4469,65.58,50.0,-171.13,1
4470,65.6,36.32,-141.58,1
4471,65.61,65.84,-116.58,1
4472,65.62,24.53,-107.9,1
4473,65.64,21.19,-121.44,1
4474,65.65,41.12,-76.92,1
4475,65.66,-0.88,-49.55,1
4476,65.68,20.4,-72.99,1
4477,65.69,14.43,-91.12,1
4478,65.7,6.3,-16.28,1
4479,65.72,2.54,-11.61,1
4480,65.73,25.58,-37.86,1
4481,65.74,-12.84,17.29,1
4482,65.76,-2.8,35.85,1
4483,65.77,7.51,29.43,1
4484,65.78,-14.09,37.81,1
4485,65.8,-3.86,57.05,1
4486,65.81,-6.46,73.6,1
4487,65.82,-24.29,89.42,1
4488,65.84,-18.35,78.45,1
4489,65.85,-12.89,86.63,1
4490,65.86,-21.91,129.0,1
4491,65.88,-22.63,83.89,1
4492,65.89,3.26,85.8,1
4493,65.9,-21.51,123.96,1
4494,65.92,-17.91,99.86,1
4495,65.93,-23.65,99.31,1
4496,65.94,-37.19,135.98,1
4497,65.96,-19.92,102.83,1
4498,65.97,-15.64,132.64,1
4499,65.98,-13.01,113.2,1
4500,66.0,-12.12,101.59,1
4501,66.01,-2.35,92.28,1
4502,66.02,-37.78,135.64,1
4503,66.04,-22.23,50.71,1
4504,66.05,-7.1,58.93,1
4505,66.06,-41.76,97.73,1
4506,66.08,-25.04,60.72,1
4507,66.09,-14.13,48.95,1
4508,66.11,-46.99,87.98,1
4509,66.12,-11.51,33.71,1
4510,66.13,-13.33,34.46,1
4511,66.14,-36.56,73.25,1
4512,66.16,-8.6,36.53,2
4513,66.17,3.35,8.84,2
4514,66.18,-18.86,69.87,2
4515,66.2,14.77,42.62,2
4516,66.21,-5.68,25.13,2
4517,66.22,56.87,86.77,2
4518,66.24,180.82,29.1,2
4519,66.25,215.01,-23.8,2
4520,66.26,202.5,3.23,2
4521,66.28,189.72,-12.22,2
4522,66.29,131.49,-47.9,2
4523,66.3,54.96,-24.08,2
4524,66.32,-35.65,-72.74,2
4525,66.33,-73.7,-22.54,2
4526,66.34,-116.96,-14.49,2
4527,66.36,-181.63,-50.9,2
4528,66.37,-168.66,-53.22,2
4529,66.38,-187.04,-49.07,2
4530,66.4,-196.57,-86.07,2
4531,66.41,-169.74,-76.41,2
4532,66.42,-192.46,-31.64,2
4533,66.44,-161.84,-84.16,2
4534,66.45,-145.27,-77.63,2
4535,66.46,-141.09,-26.83,2
4536,66.48,-97.33,-52.35,2
4537,66.49,-61.57,-59.57,2
4538,66.5,-72.57,-3.15,2
4539,66.52,-35.08,-43.88,2
4540,66.53,-17.52,-45.55,2
4541,66.54,-20.13,0.93,2
4542,66.56,3.56,-45.27,1
4543,66.57,50.75,-14.76,1
4544,66.58,47.31,27.41,1
4545,66.6,74.19,-40.96,1
4546,66.61,81.83,-34.63,1
4547,66.62,52.11,4.96,1
4548,66.64,74.16,-29.78,1
4549,66.65,78.13,-30.99,1
4550,66.66,91.54,25.77,1
4551,66.68,102.84,-5.14,1
4552,66.69,111.56,-8.46,1
4553,66.7,82.18,17.17,1
4554,66.72,97.99,-0.39,1
4555,66.73,90.93,16.48,1
4556,66.75,73.5,52.04,1
4557,66.76,85.81,-25.03,1
4558,66.77,83.0,18.24,1
4559,66.79,67.29,44.12,1
4560,66.8,74.09,-7.57,1
4561,66.81,101.04,10.03,1
4562,66.82,40.04,50.97,1
4563,66.84,56.61,-4.72,1
4564,66.85,46.43,-14.53,1
4565,66.86,34.21,48.5,1
4566,66.88,58.73,-15.7,1
4567,66.89,27.87,2.55,1
4568,66.9,3.85,42.35,1
4569,66.92,-6.73,13.72,1
4570,66.93,22.47,17.25,1
4571,66.94,-4.08,49.26,1
4572,66.96,24.8,-17.05,1
4573,66.97,-25.1,16.82,1
4574,66.98,-8.39,35.77,1
4575,67.0,-19.32,-37.53,1
4576,67.01,-3.75,14.59,1
4577,67.02,-32.29,61.91,1
4578,67.04,-34.57,-20.54,1
4579,67.05,-29.93,5.78,1
4580,67.06,-3.27,16.48,1
4581,67.08,-22.21,-39.51,1
4582,67.09,-18.9,-14.03,1
4583,67.1,-48.05,22.96,1
4584,67.12,-43.04,-31.39,1
4585,67.13,-32.75,-18.45,1
4586,67.14,-58.31,9.36,1
4587,67.16,-50.21,-57.52,1
4588,67.17,-17.35,4.78,1
4589,67.18,-53.58,37.65,1
4590,67.2,-47.46,-25.03,1
4591,67.21,-8.22,-13.68,1
4592,67.22,-32.74,49.15,1
4593,67.24,-46.57,-15.39,1
4594,67.25,-27.84,-32.75,1
4595,67.26,-53.43,13.56,1
4596,67.28,-13.98,-25.44,1
4597,67.29,-12.03,-6.79,1
4598,67.3,-24.02,20.45,1
4599,67.32,-29.93,-28.51,1
4600,67.33,-12.6,-24.59,1
4601,67.34,-26.58,11.78,1
4602,67.36,-7.63,-27.51,1
4603,67.37,-4.25,-8.82,1
4604,67.38,-12.42,25.35,1
4605,67.4,-33.78,-19.51,1
4606,67.41,-12.67,-20.79,1
4607,67.43,-5.98,26.16,1
4608,67.44,-15.16,-10.97,1
4609,67.45,6.58,-7.16,1
4610,67.46,-12.12,34.34,1
4611,67.48,-1.93,-18.14,1
4612,67.49,15.4,2.79,1
4613,67.5,8.09,15.67,1
4614,67.52,-7.63,-37.35,1
4615,67.53,24.43,6.22,1
4616,67.54,-3.54,28.7,1
4617,67.56,-6.99,-7.24,1
4618,67.57,3.84,2.04,1
4619,67.58,17.68,19.77,1
4620,67.6,11.6,-19.85,1
4621,67.61,26.43,-3.97,1
4622,67.62,15.1,8.44,1
4623,67.64,18.61,-3.81,1
4624,67.65,15.87,3.55,1
4625,67.66,9.36,18.92,1
4626,67.68,11.3,-2.77,1
4627,67.69,30.55,7.31,1
4628,67.7,6.49,28.36,1
4629,67.72,28.92,-14.73,1
4630,67.73,3.81,5.25,1
4631,67.74,14.22,34.54,1
4632,67.76,6.97,-27.79,1
4633,67.77,12.89,-24.65,1
4634,67.78,-9.16,21.29,1
4635,67.8,4.31,-11.95,1
4636,67.81,9.22,-3.79,1
4637,67.82,16.79,21.03,1
4638,67.84,4.33,5.91,1
4639,67.85,11.75,-7.71,1
4640,67.86,10.78,21.54,1
4641,67.88,9.17,-40.95,1
4642,67.89,3.21,-1.48,1
4643,67.9,25.58,23.76,1
4644,67.92,-21.8,-12.79,1
4645,67.93,27.22,9.1,1
4646,67.94,-5.87,13.49,1
4647,67.96,-0.49,-13.34,1
4648,67.97,6.83,0.6,1
4649,67.98,12.69,25.43,1
4650,68.0,0.01,-6.22,1
4651,68.01,7.58,-4.05,1
4652,68.02,-16.68,20.38,1
4653,68.04,-6.78,-10.08,1
4654,68.05,-5.81,-2.3,1
4655,68.06,10.53,20.77,1
4656,68.08,-3.13,-21.27,1
4657,68.09,-26.93,-10.78,1
4658,68.11,-4.35,18.2,1
4659,68.12,2.23,-13.48,1
4660,68.13,2.85,-12.83,1
4661,68.14,9.52,4.48,1
4662,68.16,-3.81,24.19,0
4663,68.17,-6.92,27.04,0
4664,68.18,16.28,32.22,0
4665,68.2,-15.97,21.88,0
4666,68.21,-93.51,45.7,0
4667,68.22,-136.82,56.94,0
4668,68.24,-224.89,-39.86,0
4669,68.25,-212.99,-86.41,0
4670,68.26,-187.8,-111.6,0
4671,68.28,-165.25,-119.56,0
4672,68.29,-120.21,-102.7,0
4673,68.3,-54.48,-64.79,0
4674,68.32,-25.36,-15.56,0
4675,68.33,25.87,4.71,0
4676,68.34,123.5,20.1,0
4677,68.36,234.65,23.26,0
4678,68.37,282.17,29.47,0
4679,68.38,333.09,24.39,0
4680,68.4,289.72,23.95,0
4681,68.41,275.4,23.73,0
4682,68.42,244.36,45.38,0
4683,68.44,203.61,35.14,0
4684,68.45,172.39,32.24,0
4685,68.46,133.21,36.77,0
4686,68.48,82.53,57.96,0
4687,68.49,57.03,-1.72,0
4688,68.5,35.51,16.52,0
4689,68.52,-6.88,38.42,0
4690,68.53,-35.02,-2.57,0
4691,68.54,-23.09,17.94,0
4692,68.56,-62.33,31.53,1
4693,68.57,-65.92,18.05,1
4694,68.58,-80.6,-5.01,1
4695,68.6,-91.95,-10.86,1
4696,68.61,-98.96,10.28,1
4697,68.62,-105.97,2.23,1
4698,68.64,-109.29,-3.62,1
4699,68.65,-105.3,-31.83,1
4700,68.66,-69.92,-29.47,1
4701,68.68,-120.16,16.48,1
4702,68.69,-105.98,-16.75,1
4703,68.7,-114.4,-19.59,1
4704,68.72,-101.3,16.92,1
4705,68.73,-88.18,-10.86,1
4706,68.75,-64.7,-6.72,1
4707,68.76,-95.83,-2.13,1
4708,68.77,-75.1,-39.08,1
4709,68.79,-66.69,-35.7,1
4710,68.8,-125.34,-24.71,1
4711,68.81,-82.11,-27.65,1
4712,68.82,-56.27,-16.35,1
4713,68.84,-35.54,6.27,1
4714,68.85,-17.7,5.44,1
4715,68.86,-0.88,-6.89,1
4716,68.88,-2.45,3.13,1
4717,68.89,-4.57,4.91,1
4718,68.9,16.14,-7.12,1
4719,68.92,-0.78,25.32,1
4720,68.93,16.28,4.27,1
4721,68.94,25.15,-3.78,1
4722,68.96,-4.34,20.11,1
4723,68.97,20.88,6.59,1
4724,68.98,28.55,-7.84,1
4725,69.0,3.8,24.07,1
4726,69.01,31.61,-9.03,1
4727,69.02,47.13,-12.55,1
4728,69.04,19.97,16.81,1
4729,69.05,22.04,5.84,1
4730,69.06,55.97,-14.85,1
4731,69.08,23.39,14.21,1
4732,69.09,44.04,-9.34,1
4733,69.11,46.61,-34.22,1
4734,69.12,15.26,7.28,1
4735,69.13,28.71,-13.89,1
4736,69.14,43.21,-14.47,1
4737,69.16,22.22,14.75,1
4738,69.17,30.46,-14.43,1
4739,69.18,51.35,-19.32,1
4740,69.2,29.88,19.69,1
4741,69.21,24.6,1.19,1
4742,69.22,58.65,-1.6,1
4743,69.24,15.68,32.63,1
4744,69.25,32.3,-7.84,1
4745,69.26,45.4,-11.86,1
4746,69.28,15.11,39.01,1
4747,69.29,27.1,-6.99,1
4748,69.3,34.9,-20.56,1
