,Timestamp,Data1,Data2,Label
0,6.0,10.28,17.82,1
1,6.01,16.23,-12.01,1
2,6.03,-44.72,-3.32,1
3,6.04,16.72,9.99,1
4,6.05,3.85,-5.35,1
5,6.07,-33.53,-7.06,1
6,6.08,18.19,-12.23,1
7,6.09,11.58,-9.41,1
8,6.11,-19.46,13.21,1
9,6.12,16.84,-26.04,1
10,6.13,17.63,-5.47,1
11,6.15,-5.18,14.02,2
12,6.16,91.77,7.36,2
13,6.17,183.83,-8.32,2
14,6.19,201.87,45.77,2
15,6.2,212.1,12.42,2
16,6.21,188.83,8.45,2
17,6.23,119.56,29.61,2
18,6.24,76.8,-21.63,2
19,6.25,-6.23,-19.66,2
20,6.27,-141.02,-91.17,2
21,6.28,-139.79,-120.83,2
22,6.29,-179.66,-81.69,2
23,6.31,-265.5,-66.85,2
24,6.32,-208.3,-52.89,2
25,6.33,-185.47,-18.39,2
26,6.35,-218.09,23.02,2
27,6.36,-154.35,52.3,2
28,6.37,-118.44,32.62,2
29,6.39,-150.78,61.72,2
30,6.4,-85.59,62.4,2
31,6.41,-65.9,82.5,2
32,6.43,-93.87,77.95,2
33,6.44,-57.38,72.98,2
34,6.45,-21.21,74.26,2
35,6.47,-65.32,47.9,2
36,6.48,13.73,56.31,2
37,6.49,38.67,56.78,2
38,6.51,-11.83,31.96,2
39,6.52,69.89,29.64,2
40,6.53,83.01,-8.32,2
41,6.55,35.99,-0.91,2
42,6.56,103.5,5.27,1
43,6.57,98.15,-11.73,1
44,6.59,52.19,-37.38,1
45,6.6,111.62,-8.52,1
46,6.61,125.76,-6.16,1
47,6.63,42.78,-26.23,1
48,6.64,111.97,-6.99,1
49,6.65,93.93,-3.36,1
50,6.67,36.71,-60.97,1
51,6.68,85.83,-28.01,1
52,6.69,99.92,-33.69,1
53,6.71,21.81,-37.66,1
54,6.72,78.68,-25.53,1
55,6.73,73.32,-34.92,1
56,6.75,26.0,-52.84,1
57,6.76,68.07,-8.29,1
58,6.77,58.44,-20.26,1
59,6.79,6.96,-56.2,1
60,6.8,52.17,-29.34,1
61,6.81,27.25,-15.02,1
62,6.83,-26.65,-57.3,1
63,6.84,25.44,-22.03,1
64,6.85,38.25,8.87,1
65,6.87,-31.57,-19.09,1
66,6.88,7.31,8.48,1
67,6.89,6.24,-0.6,1
68,6.91,-37.09,-16.42,1
69,6.92,-2.97,18.25,1
70,6.93,-2.36,6.19,1
71,6.95,-30.7,-6.44,1
72,6.96,-6.51,22.83,1
73,6.97,6.3,18.9,1
74,6.99,-64.55,-9.69,1
75,7.0,-14.99,14.73,1
76,7.01,1.36,32.83,1
77,7.03,-50.8,-15.35,1
78,7.04,-22.1,9.81,1
79,7.05,4.51,-3.96,1
80,7.07,-66.81,-10.57,1
81,7.08,6.98,24.31,1
82,7.09,-6.43,34.27,1
83,7.11,-62.08,-5.64,1
84,7.12,-16.71,32.1,1
85,7.13,0.07,20.2,1
86,7.15,-62.09,-10.03,1
87,7.16,-9.24,7.75,1
88,7.17,-10.29,12.51,1
89,7.19,-68.39,-2.86,1
90,7.2,-14.0,24.22,1
91,7.21,-15.93,35.7,1
92,7.23,-70.61,-7.45,1
93,7.24,-7.13,22.97,1
94,7.25,7.96,20.39,1
95,7.27,-34.73,-3.83,1
96,7.28,-22.07,29.11,1
97,7.29,-8.51,9.79,1
98,7.31,-53.79,-16.34,1
99,7.32,7.28,29.78,1
100,7.33,6.36,22.64,1
101,7.35,-32.39,-21.91,1
102,7.36,3.89,18.0,1
103,7.37,23.72,9.1,1
104,7.39,-28.62,-23.41,1
105,7.4,6.36,0.58,1
106,7.41,24.57,-3.02,1
107,7.43,-29.42,-20.08,1
108,7.44,19.75,17.19,1
109,7.45,14.44,-6.43,1
110,7.47,-16.63,-29.52,1
111,7.48,8.89,8.0,1
112,7.49,19.5,11.91,1
113,7.51,-25.61,-26.77,1
114,7.52,14.43,-2.37,1
115,7.53,30.54,2.35,1
116,7.55,-20.34,-23.84,1
117,7.56,25.09,11.18,1
118,7.57,23.75,18.88,1
119,7.59,-26.18,-11.41,1
120,7.6,30.71,12.38,1
121,7.61,39.37,1.67,1
122,7.63,-14.48,-35.64,1
123,7.64,27.99,8.09,1
124,7.65,16.28,9.86,1
125,7.67,-2.62,-46.4,1
126,7.68,19.09,14.56,1
127,7.69,12.01,-2.81,1
128,7.71,-19.36,-27.17,1
129,7.72,11.15,8.56,1
130,7.73,36.52,19.2,1
131,7.75,-15.65,-30.18,1
132,7.76,3.13,18.82,1
133,7.77,16.38,13.36,1
134,7.79,-23.12,-40.25,1
135,7.8,22.85,8.83,1
136,7.81,23.82,-4.19,1
137,7.83,-17.65,-30.47,1
138,7.84,2.38,15.8,1
139,7.85,17.82,-4.15,1
140,7.87,-36.6,-12.6,1
141,7.88,11.03,15.08,1
142,7.89,26.16,6.29,1
143,7.91,-24.79,-8.33,1
144,7.92,15.11,1.97,1
145,7.93,23.45,15.11,1
146,7.95,-22.57,-18.79,1
147,7.96,10.32,12.43,1
148,7.97,29.46,-5.03,1
149,7.99,-18.89,-24.34,1
150,8.0,0.08,-6.58,1
151,8.01,0.88,9.06,1
152,8.03,-28.36,-28.72,1
153,8.04,11.36,34.72,1
154,8.05,8.23,23.95,1
155,8.07,-30.02,-20.25,1
156,8.08,35.38,16.88,1
157,8.09,15.92,16.87,1
158,8.11,-9.66,-7.32,1
159,8.12,7.25,23.5,1
160,8.13,13.89,6.02,1
161,8.15,-32.3,-9.95,0
162,8.16,3.37,45.59,0
163,8.17,13.51,33.4,0
164,8.19,-118.84,-31.15,0
165,8.2,-153.8,22.58,0
166,8.21,-163.45,28.3,0
167,8.23,-228.24,16.9,0
168,8.24,-171.2,76.06,0
169,8.25,-145.3,105.71,0
170,8.27,-103.21,89.29,0
171,8.28,-72.14,103.91,0
172,8.29,-37.37,17.91,0
173,8.31,23.54,-83.1,0
174,8.32,72.78,-131.85,0
175,8.33,188.73,-185.16,0
176,8.35,183.82,-200.37,0
177,8.36,267.54,-168.2,0
178,8.37,301.79,-132.18,0
179,8.39,289.74,-106.53,0
180,8.4,281.52,-44.83,0
181,8.41,274.56,-23.24,0
182,8.43,199.96,-3.48,0
183,8.44,191.3,42.94,0
184,8.45,152.25,47.04,0
185,8.47,76.19,51.66,0
186,8.48,62.35,71.01,0
187,8.49,44.68,65.58,0
188,8.51,-21.13,45.6,0
189,8.52,-24.59,57.36,0
190,8.53,-43.22,60.61,0
191,8.55,-85.65,32.56,1
192,8.56,-75.15,52.29,1
193,8.57,-90.78,41.55,1
194,8.59,-103.49,20.45,1
195,8.6,-108.4,37.86,1
196,8.61,-104.59,42.71,1
197,8.63,-148.25,5.29,1
198,8.64,-135.39,31.93,1
199,8.65,-120.36,24.46,1
200,8.67,-138.52,18.54,1
201,8.68,-122.63,49.72,1
202,8.69,-98.51,36.81,1
203,8.71,-125.23,-0.94,1
204,8.72,-108.53,4.59,1
205,8.73,-88.82,-0.54,1
206,8.75,-78.45,-17.14,1
207,8.76,-69.15,0.05,1
208,8.77,-69.17,-2.95,1
209,8.79,-83.76,-20.07,1
210,8.8,-59.48,18.34,1
211,8.81,-38.4,-7.91,1
212,8.83,-45.0,-18.15,1
213,8.84,-32.5,-19.39,1
214,8.85,-3.03,-11.24,1
215,8.87,-32.37,-21.57,1
216,8.88,2.78,-20.31,1
217,8.89,10.9,-12.05,1
218,8.91,1.29,-13.78,1
219,8.92,12.1,-8.65,1
220,8.93,25.18,-9.92,1
221,8.95,-3.51,-16.66,1
222,8.96,26.35,-12.96,1
223,8.97,39.89,-0.71,1
224,8.99,15.7,-17.75,1
225,9.0,23.63,-38.75,1
226,9.01,56.94,-27.08,1
227,9.03,41.67,-18.95,1
228,9.04,28.78,-12.95,1
229,9.05,67.18,-9.53,1
230,9.07,29.5,-22.81,1
231,9.08,36.83,-15.16,1
232,9.09,47.83,1.35,1
233,9.11,42.95,-18.52,1
234,9.12,35.52,0.26,1
235,9.13,57.43,4.4,1
236,9.15,35.07,-25.71,1
237,9.16,49.21,-13.42,1
238,9.17,51.87,-8.57,1
239,9.19,30.52,7.01,1
240,9.2,29.59,8.47,1
241,9.21,49.54,-1.42,1
242,9.23,31.72,-1.46,1
243,9.24,14.88,12.53,1
244,9.25,30.91,18.95,1
245,9.27,-0.67,15.74,1
246,9.28,6.01,-3.92,1
247,9.29,22.94,-2.76,1
248,9.31,17.34,7.61,1
249,9.32,10.54,-0.49,1
250,9.33,30.54,-2.07,1
251,9.35,23.61,-9.51,1
252,9.36,25.92,-14.03,1
253,9.37,13.49,-1.32,1
254,9.39,7.13,1.77,1
255,9.4,5.52,-3.65,1
256,9.41,11.03,2.66,1
257,9.43,-9.69,17.89,1
258,9.44,0.88,17.37,1
259,9.45,7.62,8.45,1
260,9.47,-3.97,24.59,1
261,9.48,-20.88,9.15,1
262,9.49,-16.46,25.79,1
263,9.51,-29.5,14.39,1
264,9.52,-25.48,11.62,1
265,9.53,-11.19,10.49,1
266,9.55,-9.17,22.85,1
267,9.56,-20.08,-18.79,1
268,9.57,-1.64,17.48,1
269,9.59,-0.33,15.58,1
270,9.6,-43.65,6.01,1
271,9.61,-0.91,6.36,1
272,9.63,-20.52,11.57,1
273,9.64,-29.45,-6.54,1
274,9.65,-5.78,4.97,1
275,9.67,-3.61,-1.52,1
276,9.68,-24.57,-13.55,1
277,9.69,-3.57,4.63,1
278,9.71,-10.83,6.27,1
279,9.72,-33.56,-9.19,1
280,9.73,-1.44,-4.51,1
281,9.75,-19.43,7.82,1
282,9.76,-25.81,-14.88,1
283,9.77,-1.72,-4.49,1
284,9.79,2.64,8.32,1
285,9.8,-30.59,-13.48,1
286,9.81,-0.9,1.29,1
287,9.83,10.69,-3.46,1
288,9.84,-11.95,-16.5,1
289,9.85,1.21,14.8,1
290,9.87,10.35,7.46,1
291,9.88,-12.62,-22.25,1
292,9.89,20.87,7.28,1
293,9.91,0.56,9.92,1
294,9.92,-20.86,-9.56,1
295,9.93,5.18,-7.11,1
296,9.95,-12.08,-6.37,1
297,9.96,-24.25,-30.61,1
298,9.97,13.46,9.05,1
299,9.99,18.96,0.47,1
300,10.0,-26.67,-17.49,1
301,10.01,-6.05,12.18,1
302,10.03,2.66,-3.64,1
303,10.04,5.06,-4.33,1
304,10.05,15.15,6.68,1
305,10.07,21.66,-2.07,1
306,10.08,0.47,-17.23,1
307,10.09,6.66,12.37,1
308,10.11,14.44,-0.06,1
309,10.12,-1.52,-12.31,1
310,10.13,-5.13,8.94,1
311,10.15,30.25,6.17,0
312,10.16,-18.24,-23.0,0
313,10.17,-78.78,1.42,0
314,10.19,-182.22,12.18,0
315,10.2,-247.99,-54.38,0
316,10.21,-202.95,-5.96,0
317,10.23,-162.51,-14.93,0
318,10.24,-94.76,-81.58,0
319,10.25,-49.9,-18.56,0
320,10.27,45.16,-15.48,0
321,10.28,80.28,-20.22,0
322,10.29,154.55,-2.0,0
323,10.31,161.19,24.15,0
324,10.32,205.08,29.03,0
325,10.33,198.94,58.64,0
326,10.35,218.09,57.75,0
327,10.36,180.37,23.82,0
328,10.37,192.06,73.66,0
329,10.39,181.73,41.13,0
330,10.4,123.08,1.39,0
331,10.41,126.74,43.36,0
332,10.43,108.47,20.98,0
333,10.44,62.18,-9.66,0
334,10.45,74.18,37.69,0
335,10.47,50.23,9.6,0
336,10.48,6.27,-28.48,0
337,10.49,10.88,19.62,0
338,10.51,3.12,13.91,0
339,10.52,-67.34,-29.76,0
340,10.53,-13.51,10.46,0
341,10.55,-16.67,-4.2,1
342,10.56,-71.31,-39.72,1
343,10.57,-47.84,11.8,1
344,10.59,-64.23,18.74,1
345,10.6,-95.39,-32.84,1
346,10.61,-85.53,11.26,1
347,10.63,-83.1,9.4,1
348,10.64,-122.24,-25.4,1
349,10.65,-77.29,10.21,1
350,10.67,-99.98,-2.17,1
351,10.68,-114.14,-33.83,1
352,10.69,-99.99,2.02,1
353,10.71,-74.05,1.42,1
354,10.72,-105.76,-51.68,1
355,10.73,-68.87,-9.61,1
356,10.75,-87.97,3.83,1
357,10.76,-99.34,-29.05,1
358,10.77,-79.31,-18.35,1
359,10.79,-21.57,7.95,1
360,10.8,-67.65,-37.14,1
361,10.81,-20.32,0.75,1
362,10.83,-22.88,-3.72,1
363,10.84,-40.29,-24.01,1
364,10.85,-8.8,0.29,1
365,10.87,19.01,-3.68,1
366,10.88,-18.46,-14.09,1
367,10.89,-10.21,5.46,1
368,10.91,17.74,-10.13,1
369,10.92,-22.6,-25.33,1
370,10.93,-1.5,-0.01,1
371,10.95,31.03,1.69,1
372,10.96,-3.18,-16.27,1
373,10.97,24.97,9.47,1
374,10.99,43.05,11.58,1
375,11.0,15.22,-24.87,1
376,11.01,42.22,6.91,1
377,11.03,41.75,0.15,1
378,11.04,4.09,-22.81,1
379,11.05,40.55,8.61,1
380,11.07,28.7,20.53,1
381,11.08,16.41,-21.42,1
382,11.09,44.47,3.06,1
383,11.11,54.12,29.95,1
384,11.12,19.94,-11.92,1
385,11.13,48.09,24.15,1
386,11.15,45.35,21.64,1
387,11.16,12.46,-6.16,1
388,11.17,47.86,16.82,1
389,11.19,48.36,10.82,1
390,11.2,10.67,-8.78,1
391,11.21,38.67,21.97,1
392,11.23,53.87,18.51,1
393,11.24,1.95,-19.54,1
394,11.25,31.51,11.66,1
395,11.27,43.92,22.26,1
396,11.28,9.69,-19.2,1
397,11.29,27.3,16.96,1
398,11.31,38.29,26.49,1
399,11.32,-12.45,-13.5,1
400,11.33,6.26,15.61,1
401,11.35,18.7,19.85,1
402,11.36,-15.7,-21.84,1
403,11.37,25.59,15.78,1
404,11.39,20.6,10.7,1
405,11.4,-18.97,-5.24,1
406,11.41,10.73,22.68,1
407,11.43,30.2,20.22,1
408,11.44,-30.15,-6.32,1
409,11.45,-3.36,18.07,1
410,11.47,5.9,15.28,1
411,11.48,-19.51,-1.42,1
412,11.49,-11.24,21.05,1
413,11.51,-3.99,5.31,1
414,11.52,-30.81,-24.48,1
415,11.53,8.39,-0.25,1
416,11.55,-8.94,-8.17,1
417,11.56,-46.2,-23.55,1
418,11.57,-7.89,7.45,1
419,11.59,9.26,-3.89,1
420,11.6,-44.0,-28.38,1
421,11.61,-3.35,0.46,1
422,11.63,-2.74,6.85,1
423,11.64,-36.22,-13.84,1
424,11.65,-5.88,2.59,1
425,11.67,4.77,8.79,1
426,11.68,-35.94,-21.03,1
427,11.69,-2.26,11.69,1
428,11.71,13.03,-1.73,1
429,11.72,-40.55,-26.56,1
430,11.73,-0.28,-4.35,1
431,11.75,14.1,3.1,1
432,11.76,-20.78,-15.78,1
433,11.77,5.35,-5.3,1
434,11.79,19.23,-8.67,1
435,11.8,-38.09,-17.82,1
436,11.81,3.0,20.31,1
437,11.83,3.73,-8.13,1
438,11.84,-29.67,-29.9,1
439,11.85,16.74,9.55,1
440,11.87,16.98,-3.52,1
441,11.88,-37.45,-11.07,1
442,11.89,7.1,13.71,1
443,11.91,13.85,-16.07,1
444,11.92,-26.5,-10.19,1
445,11.93,1.2,18.78,1
446,11.95,23.58,7.73,1
447,11.96,-30.4,3.29,1
448,11.97,13.19,-3.19,1
449,11.99,7.04,-6.62,1
450,12.0,-28.59,-11.58,1
451,12.01,-13.77,4.02,1
452,12.03,19.65,19.23,1
453,12.04,-37.0,2.63,1
454,12.05,13.18,17.91,1
455,12.07,35.99,4.62,1
456,12.08,-27.15,-2.6,1
457,12.09,25.43,11.07,1
458,12.11,34.95,8.11,1
459,12.12,-28.98,1.68,1
460,12.13,7.58,3.14,1
461,12.15,26.86,11.49,2
462,12.16,-25.4,2.86,2
463,12.17,49.24,13.79,2
464,12.19,111.67,2.17,2
465,12.2,154.94,5.57,2
466,12.21,239.66,23.38,2
467,12.23,235.41,36.24,2
468,12.24,189.25,19.63,2
469,12.25,121.28,21.41,2
470,12.27,82.77,-1.23,2
471,12.28,46.4,-23.58,2
472,12.29,-8.61,-29.42,2
473,12.31,-32.19,-46.09,2
474,12.32,-57.91,-41.88,2
475,12.33,-141.7,-35.2,2
476,12.35,-249.76,-33.94,2
477,12.36,-359.2,-23.66,2
478,12.37,-316.15,-31.84,2
479,12.39,-297.7,-14.87,2
480,12.4,-325.74,-4.26,2
481,12.41,-247.21,11.4,2
482,12.43,-208.72,6.78,2
483,12.44,-218.98,-9.46,2
484,12.45,-135.87,-9.42,2
485,12.47,-72.33,3.94,2
486,12.48,-100.49,6.58,2
487,12.49,-3.63,11.64,2
488,12.51,31.25,2.88,2
489,12.52,19.17,14.25,2
490,12.53,77.81,14.68,2
491,12.55,95.39,16.06,1
492,12.56,69.98,18.68,1
493,12.57,119.53,4.2,1
494,12.59,142.42,20.35,1
495,12.6,107.26,30.34,1
496,12.61,145.74,16.97,1
497,12.63,142.5,14.42,1
498,12.64,91.15,7.94,1
499,12.65,145.18,-12.52,1
500,12.67,140.16,12.41,1
501,12.68,81.24,4.03,1
502,12.69,120.58,-8.74,1
503,12.71,120.55,6.8,1
504,12.72,81.0,-5.58,1
505,12.73,94.84,-5.07,1
506,12.75,92.05,4.87,1
507,12.76,53.49,0.45,1
508,12.77,75.82,-6.73,1
509,12.79,80.87,-1.67,1
510,12.8,29.24,-3.53,1
511,12.81,64.41,-12.98,1
512,12.83,58.43,-0.9,1
513,12.84,-3.93,13.43,1
514,12.85,41.46,8.62,1
515,12.87,31.93,3.26,1
516,12.88,-17.07,-12.57,1
517,12.89,28.27,-9.11,1
518,12.91,25.38,6.95,1
519,12.92,-40.08,-1.4,1
520,12.93,-1.92,-7.69,1
521,12.95,-4.63,18.38,1
522,12.96,-63.38,-7.93,1
523,12.97,-11.56,-24.89,1
524,12.99,9.86,2.24,1
525,13.0,-56.84,34.4,1
526,13.01,-25.98,-12.92,1
527,13.03,-31.91,8.29,1
528,13.04,-73.16,-0.43,1
529,13.05,-29.44,-21.85,1
530,13.07,-27.64,16.22,1
531,13.08,-70.89,17.68,1
532,13.09,-31.69,-17.06,1
533,13.11,-22.56,-5.26,1
534,13.12,-73.11,-19.06,1
535,13.13,-31.7,-20.37,1
536,13.15,-41.86,16.54,1
537,13.16,-67.65,13.83,1
538,13.17,-24.58,-28.58,1
539,13.19,-19.18,17.48,1
540,13.2,-73.82,8.27,1
541,13.21,-25.5,-26.33,1
542,13.23,-28.96,-5.57,1
543,13.24,-64.33,2.62,1
544,13.25,-17.74,-2.33,1
545,13.27,2.58,5.45,1
546,13.28,-54.0,16.34,1
547,13.29,-0.73,-22.99,1
548,13.31,5.44,4.24,1
549,13.32,-43.15,6.74,1
550,13.33,11.16,-21.5,1
551,13.35,8.19,18.92,1
552,13.36,-23.05,7.47,1
553,13.37,1.25,-30.45,1
554,13.39,11.77,14.85,1
555,13.4,-27.37,19.31,1
556,13.41,6.02,-21.76,1
557,13.43,16.15,18.73,1
558,13.44,-9.62,6.85,1
559,13.45,11.28,-34.05,1
560,13.47,16.23,10.58,1
561,13.48,-12.46,0.29,1
562,13.49,14.28,-23.57,1
563,13.51,17.25,13.89,1
564,13.52,-18.84,30.74,1
565,13.53,13.61,-35.59,1
566,13.55,49.88,13.58,1
567,13.56,-7.02,5.62,1
568,13.57,6.49,-24.94,1
569,13.59,14.06,14.65,1
570,13.6,-22.66,2.95,1
571,13.61,12.72,-7.17,1
572,13.63,24.36,31.34,1
573,13.64,-0.23,6.95,1
574,13.65,25.02,-24.2,1
575,13.67,31.68,3.63,1
576,13.68,-15.64,16.22,1
577,13.69,12.39,-18.42,1
578,13.71,27.8,17.46,1
579,13.72,-19.94,18.79,1
580,13.73,14.84,-1.55,1
581,13.75,31.78,10.41,1
582,13.76,-19.72,25.24,1
583,13.77,20.09,-7.99,1
584,13.79,32.71,7.97,1
585,13.8,-12.81,2.84,1
586,13.81,17.81,-39.46,1
587,13.83,32.72,8.42,1
588,13.84,-17.16,9.69,1
589,13.85,16.14,-14.06,1
590,13.87,15.87,16.56,1
591,13.88,-26.2,11.27,1
592,13.89,-4.09,-26.67,1
593,13.91,28.61,13.16,1
594,13.92,-29.26,-7.86,1
595,13.93,14.6,-43.74,1
596,13.95,11.38,8.24,1
597,13.96,-23.9,6.71,1
598,13.97,5.97,-29.12,1
599,13.99,31.52,14.54,1
600,14.0,-8.94,13.96,1
601,14.01,21.57,-29.6,1
602,14.03,6.63,-1.21,1
603,14.04,-38.36,10.19,1
604,14.05,14.53,-21.35,1
605,14.07,12.28,12.82,1
606,14.08,-26.06,9.4,1
607,14.09,7.91,-24.72,1
608,14.11,10.43,23.42,1
609,14.12,-25.17,4.35,1
610,14.13,-1.18,3.8,1
611,14.15,-2.29,43.66,1
612,14.16,3.53,41.46,1
613,14.17,-125.5,12.24,1
614,14.19,-276.36,143.73,1
615,14.2,176.82,335.09,1
616,14.21,35.88,-6.59,1
617,14.23,-197.88,121.16,1
618,14.24,80.54,169.18,1
619,14.25,-314.35,-37.9,1
620,14.27,-130.57,259.3,1
621,14.28,-140.21,54.93,1
622,14.29,18.32,64.01,1
623,14.31,-118.01,11.53,1
624,14.32,-14.6,-40.29,1
625,14.33,-24.94,-76.48,1
626,14.35,17.03,-80.71,1
627,14.36,58.32,-126.37,1
628,14.37,64.7,-140.79,1
629,14.39,80.51,-131.28,1
630,14.4,116.95,-162.23,1
631,14.41,109.3,-166.31,1
632,14.43,162.64,-145.75,1
633,14.44,423.96,-167.82,1
634,14.45,16.19,-161.35,1
635,14.47,110.0,-134.48,1
636,14.48,73.39,-150.14,1
637,14.49,81.73,-138.47,1
638,14.51,64.39,-137.2,1
639,14.52,90.0,-221.5,1
640,14.53,72.2,-109.93,1
641,14.55,108.73,-87.2,1
642,14.56,98.43,-177.59,1
643,14.57,305.94,-113.1,1
644,14.59,102.73,-136.88,1
645,14.6,29.31,-228.35,1
646,14.61,37.92,-257.81,1
647,14.63,279.62,259.08,1
648,14.64,-139.45,-129.84,1
649,14.65,-95.86,3.24,1
650,14.67,-38.33,333.37,1
651,14.68,296.33,-104.89,1
652,14.69,-221.54,-454.33,1
653,14.71,-136.88,117.27,1
654,14.72,36.34,279.82,1
655,14.73,-226.03,181.99,1
656,14.75,2.03,182.55,1
657,14.76,-248.2,86.61,1
658,14.77,14.76,170.7,1
659,14.79,113.88,186.82,1
660,14.8,-120.57,233.55,1
661,14.81,-69.27,378.73,1
662,14.83,-14.47,363.09,1
663,14.84,-196.23,197.01,1
664,14.85,-102.74,121.71,1
665,14.87,-59.65,-198.45,1
666,14.88,-75.31,53.01,1
667,14.89,11.23,-235.34,1
668,14.91,69.16,-246.66,1
669,14.92,134.21,-204.63,1
670,14.93,209.84,-131.12,1
671,14.95,145.82,-30.48,1
672,14.96,77.91,12.76,1
673,14.97,-9.49,56.03,1
674,14.99,-63.99,124.68,1
675,15.0,-185.99,140.8,1
676,15.01,-218.04,156.55,1
677,15.03,-241.57,201.97,1
678,15.04,-258.41,196.16,1
679,15.05,-265.02,191.98,1
680,15.07,-244.46,221.27,1
681,15.08,-243.99,200.23,1
682,15.09,-203.86,182.97,1
683,15.11,-170.37,199.77,1
684,15.12,-173.95,171.16,1
685,15.13,-131.23,151.41,1
686,15.15,-109.36,239.36,1
687,15.16,-92.48,337.52,1
688,15.17,-72.96,316.58,1
689,15.19,2.29,337.86,1
690,15.2,-42.79,286.5,1
691,15.21,21.14,172.31,1
692,15.23,36.87,114.61,1
693,15.24,24.75,90.3,1
694,15.25,49.96,3.29,1
695,15.27,81.9,-46.08,1
696,15.28,59.07,-83.82,1
697,15.29,90.42,-149.95,1
698,15.31,107.8,-188.73,1
699,15.32,96.62,-195.63,1
700,15.33,102.12,-239.21,1
701,15.35,131.3,-243.51,1
702,15.36,90.36,-269.53,1
703,15.37,98.9,-287.51,1
704,15.39,128.75,-292.82,1
705,15.4,105.73,-289.82,1
706,15.41,97.73,-292.22,1
707,15.43,112.66,-289.33,1
708,15.44,106.61,-286.31,1
709,15.45,104.06,-279.83,1
710,15.47,106.98,-286.38,1
711,15.48,75.07,-269.45,1
712,15.49,93.08,-215.58,1
713,15.51,104.46,-224.86,1
714,15.52,72.12,-194.89,1
715,15.53,73.7,-167.77,1
716,15.55,91.46,-175.12,1
717,15.56,60.7,-140.63,1
718,15.57,41.63,-137.73,1
719,15.59,63.69,-115.3,1
720,15.6,28.26,-67.22,1
721,15.61,46.68,-82.0,1
722,15.63,49.25,-79.54,1
723,15.64,33.85,-5.23,1
724,15.65,23.11,27.59,1
725,15.67,18.43,12.48,1
726,15.68,-6.73,20.48,1
727,15.69,-16.1,48.34,1
728,15.71,7.67,33.55,1
729,15.72,-9.36,74.08,1
730,15.73,-19.54,61.92,1
731,15.75,-5.48,71.15,1
732,15.76,-23.73,83.62,1
733,15.77,-33.88,115.44,1
734,15.79,-17.62,95.76,1
735,15.8,-16.24,130.33,1
736,15.81,-25.51,113.18,1
737,15.83,-27.52,86.75,1
738,15.84,-25.02,131.59,1
739,15.85,-37.31,137.31,1
740,15.87,-34.02,96.89,1
741,15.88,-38.69,107.51,1
742,15.89,-51.73,147.26,1
743,15.91,-24.04,129.31,1
744,15.92,-30.93,123.44,1
745,15.93,-61.73,132.43,1
746,15.95,-35.18,106.3,1
747,15.96,-43.04,111.12,1
748,15.97,-46.5,100.67,1
749,15.99,-27.5,61.91,1
750,16.0,-33.63,99.46,1
751,16.01,-47.52,115.12,1
752,16.03,-42.07,60.96,1
753,16.04,-37.19,57.82,1
754,16.05,-36.37,96.95,1
755,16.07,-10.86,13.0,1
756,16.08,-2.74,33.62,1
757,16.09,-40.88,48.55,1
758,16.11,-6.05,12.81,1
759,16.12,0.33,27.39,1
760,16.13,-42.06,18.12,1
761,16.15,-3.03,6.34,1
762,16.16,5.75,14.55,2
763,16.17,66.79,27.09,2
764,16.19,195.65,-23.58,2
765,16.2,207.86,45.57,2
766,16.21,188.14,24.53,2
767,16.23,160.43,-70.13,2
768,16.24,120.45,-54.1,2
769,16.25,27.33,-44.57,2
770,16.27,-18.57,-93.68,2
771,16.28,-103.36,-80.52,2
772,16.29,-158.66,-67.76,2
773,16.31,-172.64,-93.7,2
774,16.32,-206.21,-66.26,2
775,16.33,-213.02,-48.45,2
776,16.35,-183.79,-63.7,2
777,16.36,-185.69,-10.34,2
778,16.37,-159.1,15.95,2
779,16.39,-134.48,-36.2,2
780,16.4,-100.81,22.13,2
781,16.41,-121.95,25.46,2
782,16.425,-58.1,-17.29,2
783,16.44,-48.66,16.37,2
784,16.45,-87.33,40.39,2
785,16.47,-4.24,-33.32,2
786,16.48,-2.14,20.4,2
787,16.49,-4.41,17.04,2
788,16.51,34.88,-32.43,2
789,16.52,36.21,11.13,2
790,16.53,38.27,-1.97,2
791,16.55,73.94,-59.8,1
792,16.56,82.82,-7.14,1
793,16.57,71.88,-9.03,1
794,16.59,94.8,-74.79,1
795,16.6,102.69,-25.39,1
796,16.61,89.59,-6.03,1
797,16.63,98.79,-58.13,1
798,16.64,94.63,-29.25,1
799,16.65,68.25,-21.54,1
800,16.67,104.82,-58.6,1
801,16.68,106.2,-6.51,1
802,16.69,60.48,-23.38,1
803,16.71,105.73,-53.21,1
804,16.72,89.43,-13.53,1
805,16.73,59.99,-13.58,1
806,16.75,65.31,-52.63,1
807,16.76,73.06,-8.7,1
808,16.77,24.58,-13.94,1
809,16.79,40.57,-64.8,1
810,16.8,51.49,-0.82,1
811,16.81,29.27,22.59,1
812,16.83,23.55,-6.12,1
813,16.84,21.49,11.05,1
814,16.85,13.72,24.87,1
815,16.87,24.0,-19.5,1
816,16.88,26.68,28.65,1
817,16.89,3.41,37.92,1
818,16.91,9.28,-11.11,1
819,16.92,0.23,29.48,1
820,16.93,-33.93,42.92,1
821,16.95,-10.36,-25.08,1
822,16.96,-13.83,24.98,1
823,16.97,-39.35,38.0,1
824,16.99,-30.62,-3.61,1
825,17.0,-21.22,14.82,1
826,17.01,-58.2,40.69,1
827,17.03,-16.94,-2.91,1
828,17.04,-23.41,27.89,1
829,17.05,-47.24,28.25,1
830,17.06,-43.08,-12.78,1
831,17.08,-33.21,28.84,1
832,17.09,-59.79,49.02,1
833,17.11,-23.77,-9.3,1
834,17.12,-32.61,31.83,1
835,17.13,-62.81,46.61,1
836,17.15,-22.94,-17.02,1
837,17.16,-17.74,27.78,1
838,17.17,-62.83,33.15,1
839,17.19,-10.54,-5.02,1
840,17.2,-19.08,7.52,1
841,17.21,-55.73,40.09,1
842,17.23,-16.48,-15.47,1
843,17.24,-12.85,13.58,1
844,17.25,-44.22,14.48,1
845,17.27,-7.26,-8.08,1
846,17.28,-1.09,8.52,1
847,17.29,-32.92,8.92,1
848,17.31,-9.4,-40.08,1
849,17.32,0.83,12.82,1
850,17.33,-41.07,23.42,1
851,17.35,-8.46,-41.94,1
852,17.36,8.1,-11.7,1
853,17.37,-30.96,20.79,1
854,17.39,13.73,-35.91,1
855,17.4,16.89,2.42,1
856,17.41,-21.23,9.75,1
857,17.43,8.42,-18.89,1
858,17.44,32.65,-1.55,1
859,17.45,-22.93,12.14,1
860,17.47,33.0,-27.01,1
861,17.48,20.61,-7.63,1
862,17.49,-0.96,9.87,1
863,17.51,21.64,-39.74,1
864,17.52,32.49,2.1,1
865,17.53,-35.57,25.93,1
866,17.55,33.85,-38.47,1
867,17.56,29.97,-16.15,1
868,17.57,-16.04,19.92,1
869,17.59,14.13,-22.26,1
870,17.6,22.06,7.52,1
871,17.61,-29.52,-3.72,1
872,17.63,19.01,-13.57,1
873,17.64,24.45,19.64,1
874,17.65,-18.6,-0.57,1
875,17.67,21.53,-34.5,1
876,17.68,31.27,5.18,1
877,17.69,-21.29,5.94,1
878,17.7,19.44,-35.55,1
879,17.72,20.83,1.14,1
880,17.73,-16.6,15.58,1
881,17.75,9.08,-16.19,1
882,17.76,32.06,-17.37,1
883,17.77,-17.82,14.8,1
884,17.79,12.54,-3.79,1
885,17.8,11.05,2.32,1
886,17.81,-2.79,2.92,1
887,17.83,13.28,11.62,1
888,17.84,27.35,6.71,1
889,17.85,-22.81,6.87,1
890,17.87,28.49,-28.2,1
891,17.88,22.74,7.78,1
892,17.89,-20.35,13.87,1
893,17.91,28.55,-19.62,1
894,17.92,13.54,-5.06,1
895,17.93,-40.9,15.65,1
896,17.95,3.99,2.84,1
897,17.96,23.33,5.16,1
898,17.97,-28.57,5.46,1
899,17.99,5.11,0.46,1
900,18.0,14.33,7.3,1
901,18.01,-49.72,-0.71,1
902,18.03,15.38,-19.49,1
903,18.04,-0.81,-6.4,1
904,18.05,-35.82,10.71,1
905,18.07,26.64,-13.21,1
906,18.08,25.72,25.73,1
907,18.09,-27.98,18.6,1
908,18.11,29.16,-1.21,1
909,18.12,11.03,-14.38,1
910,18.13,-27.85,27.47,1
911,18.15,12.79,9.83,1
912,18.16,15.89,1.56,0
913,18.17,-18.53,2.81,0
914,18.19,22.08,19.34,0
915,18.2,-79.95,62.84,0
916,18.21,-182.02,98.78,0
917,18.23,-153.04,143.6,0
918,18.24,-173.86,122.22,0
919,18.25,-234.43,55.41,0
920,18.27,-155.52,-63.55,0
921,18.28,-107.26,-120.53,0
922,18.29,-88.45,-153.53,0
923,18.31,-33.59,-206.69,0
924,18.32,39.99,-194.37,0
925,18.33,54.35,-147.39,0
926,18.34,163.79,-102.02,0
927,18.36,228.72,-66.98,0
928,18.37,247.34,-15.79,0
929,18.39,306.54,14.93,0
930,18.4,306.82,35.57,0
931,18.41,241.4,38.0,0
932,18.43,241.29,38.61,0
933,18.44,215.45,78.99,0
934,18.45,137.04,60.85,0
935,18.47,141.02,58.68,0
936,18.48,126.54,47.71,0
937,18.49,39.93,66.41,0
938,18.51,32.75,48.98,0
939,18.52,26.99,46.4,0
940,18.53,-47.65,41.06,0
941,18.55,-27.11,50.53,1
942,18.56,-81.09,35.11,1
943,18.57,-143.9,26.15,1
944,18.59,-94.75,21.06,1
945,18.6,-75.07,-1.69,1
946,18.61,-143.75,14.29,1
947,18.63,-96.79,4.9,1
948,18.64,-93.89,-4.86,1
949,18.65,-142.35,3.98,1
950,18.67,-102.35,3.49,1
951,18.68,-83.13,-23.15,1
952,18.69,-128.5,19.19,1
953,18.71,-79.07,23.84,1
954,18.72,-82.05,-22.72,1
955,18.73,-128.45,-9.02,1
956,18.75,-66.84,3.87,1
957,18.76,-62.44,-21.11,1
958,18.77,-98.84,-9.76,1
959,18.79,-46.18,-11.78,1
960,18.8,-45.14,-17.3,1
961,18.81,-94.14,-4.61,1
962,18.83,-38.31,-7.07,1
963,18.84,-34.03,-27.28,1
964,18.85,-62.48,3.51,1
965,18.87,-3.74,-1.71,1
966,18.88,10.18,-19.33,1
967,18.89,-46.82,-13.08,1
968,18.91,14.07,-10.21,1
969,18.92,7.6,-48.24,1
970,18.93,-21.56,-28.22,1
971,18.95,13.38,2.35,1
972,18.96,32.19,-21.12,1
973,18.97,-21.18,8.92,1
974,18.98,37.57,-12.96,1
975,19.0,62.95,-19.53,1
976,19.01,7.16,5.99,1
977,19.025,46.44,11.5,1
978,19.04,52.58,-29.08,1
979,19.05,7.18,15.13,1
980,19.07,40.06,11.6,1
981,19.08,64.63,-26.06,1
982,19.09,7.53,-10.63,1
983,19.11,73.24,23.15,1
984,19.12,59.31,4.08,1
985,19.13,-8.77,9.81,1
986,19.15,54.85,20.51,1
987,19.16,64.39,-3.95,1
988,19.17,4.21,11.66,1
989,19.19,49.64,27.03,1
990,19.2,56.55,-30.18,1
991,19.21,6.43,19.52,1
992,19.23,53.55,10.1,1
993,19.24,55.86,-28.67,1
994,19.25,-0.35,2.6,1
995,19.27,31.53,14.18,1
996,19.28,38.31,-46.37,1
997,19.29,-2.06,3.31,1
998,19.31,40.64,17.37,1
999,19.32,34.21,-33.13,1
1000,19.33,-24.54,4.6,1
1001,19.35,29.09,4.35,1
1002,19.36,34.55,-24.43,1
1003,19.37,-23.9,20.62,1
1004,19.39,13.49,9.77,1
1005,19.4,15.0,-34.6,1
1006,19.41,-21.73,42.83,1
1007,19.43,12.28,36.2,1
1008,19.44,16.56,-9.6,1
1009,19.45,-45.28,22.06,1
1010,19.47,3.64,27.75,1
1011,19.48,11.73,-19.83,1
1012,19.49,-35.87,4.35,1
1013,19.51,8.82,23.11,1
1014,19.52,12.25,-17.41,1
1015,19.53,-39.06,12.37,1
1016,19.55,-5.78,9.88,1
1017,19.56,-2.02,-30.53,1
1018,19.57,-44.67,18.62,1
1019,19.59,-17.27,28.8,1
1020,19.6,-0.17,-29.9,1
1021,19.61,-40.06,5.31,1
1022,19.62,2.02,23.68,1
1023,19.64,4.89,-30.46,1
1024,19.65,-43.24,13.66,1
1025,19.67,9.42,18.1,1
1026,19.68,4.08,-30.06,1
1027,19.69,-42.57,12.15,1
1028,19.71,4.87,18.27,1
1029,19.72,13.6,-29.0,1
1030,19.73,-40.11,4.15,1
1031,19.75,-11.73,24.43,1
1032,19.76,7.44,-42.96,1
1033,19.77,-32.26,17.58,1
1034,19.79,-5.46,9.51,1
1035,19.8,9.13,-33.15,1
1036,19.81,-29.79,5.05,1
1037,19.83,5.77,29.8,1
1038,19.84,7.9,-26.37,1
1039,19.85,-30.77,7.96,1
1040,19.87,6.42,23.82,1
1041,19.88,11.43,-23.71,1
1042,19.89,-21.44,7.42,1
1043,19.91,-0.04,7.77,1
1044,19.92,13.18,-43.74,1
1045,19.93,-26.99,14.4,1
1046,19.95,15.07,22.59,1
1047,19.96,17.85,-29.58,1
1048,19.97,-32.65,-7.21,1
1049,19.99,9.71,18.23,1
1050,20.0,19.9,-51.51,1
1051,20.01,-24.4,-10.42,1
1052,20.03,18.35,23.62,1
1053,20.04,-1.49,-25.26,1
1054,20.05,-26.86,15.51,1
1055,20.07,4.08,30.62,1
1056,20.08,27.0,-14.2,1
1057,20.09,-5.71,29.61,1
1058,20.11,18.31,15.69,1
1059,20.12,20.53,-26.95,1
1060,20.13,-5.83,18.99,1
1061,20.15,-6.69,25.17,1
1062,20.16,14.09,-24.05,0
1063,20.17,-16.61,12.88,0
1064,20.19,13.88,34.69,0
1065,20.2,30.88,-35.82,0
1066,20.21,-13.08,-8.47,0
1067,20.23,4.39,8.13,0
1068,20.24,44.92,-35.61,0
1069,20.25,-14.48,-1.26,0
1070,20.26,18.26,15.07,0
1071,20.28,0.17,-42.65,0
1072,20.29,-10.98,-2.86,0
1073,20.3,7.01,43.74,0
1074,20.32,-1.2,-39.29,0
1075,20.33,-111.35,-24.47,0
1076,20.35,-168.63,23.59,0
1077,20.36,-216.31,-75.27,0
1078,20.37,-246.28,-36.34,0
1079,20.39,-186.54,-16.64,0
1080,20.4,-112.01,-76.33,0
1081,20.41,-75.17,-25.56,0
1082,20.43,13.21,15.37,0
1083,20.44,74.72,-4.79,0
1084,20.45,85.73,25.28,0
1085,20.47,160.43,55.94,0
1086,20.48,193.97,21.62,0
1087,20.49,182.21,46.22,0
1088,20.51,210.79,71.26,0
1089,20.52,218.78,34.27,0
1090,20.53,183.59,66.64,0
1091,20.55,197.59,62.78,1
1092,20.56,189.63,7.24,1
1093,20.57,129.09,41.02,1
1094,20.59,134.12,41.73,1
1095,20.6,105.42,-5.42,1
1096,20.61,59.38,27.58,1
1097,20.63,65.32,19.85,1
1098,20.64,63.82,-18.66,1
1099,20.65,15.73,5.69,1
1100,20.67,17.83,4.79,1
1101,20.68,3.77,-17.38,1
1102,20.69,-34.09,15.87,1
1103,20.71,-41.12,12.58,1
1104,20.72,-48.49,-28.81,1
1105,20.73,-97.9,-18.24,1
1106,20.75,-72.53,-23.69,1
1107,20.76,-79.53,-23.96,1
1108,20.77,-126.23,-1.37,1
1109,20.79,-100.8,7.23,1
1110,20.8,-76.25,-27.33,1
1111,20.81,-135.41,-13.82,1
1112,20.83,-113.23,-16.21,1
1113,20.84,-89.02,-41.48,1
1114,20.85,-115.42,-25.79,1
1115,20.87,-89.68,-15.68,1
1116,20.88,-80.42,-39.2,1
1117,20.89,-94.93,-16.6,1
1118,20.9,-79.76,4.92,1
1119,20.92,-66.77,-37.83,1
1120,20.93,-94.62,-8.78,1
1121,20.94,-74.86,-17.68,1
1122,20.96,-39.18,-37.99,1
1123,20.97,-60.8,-27.29,1
1124,20.99,-37.0,0.01,1
1125,21.0,-11.13,-17.77,1
1126,21.01,-25.45,7.29,1
1127,21.03,-16.51,-6.03,1
1128,21.04,-0.31,-32.91,1
1129,21.05,-3.59,6.08,1
1130,21.07,3.84,4.54,1
1131,21.08,8.44,-9.91,1
1132,21.09,-0.48,14.5,1
1133,21.11,8.43,8.76,1
1134,21.12,26.61,-5.15,1
1135,21.13,-11.76,-0.85,1
1136,21.15,28.6,22.43,1
1137,21.16,42.4,10.17,1
1138,21.17,24.2,13.96,1
1139,21.19,28.11,8.76,1
1140,21.2,48.32,-4.9,1
1141,21.21,38.53,14.64,1
1142,21.23,30.97,9.74,1
1143,21.24,42.69,-0.63,1
1144,21.25,23.25,21.35,1
1145,21.27,47.87,20.19,1
1146,21.28,36.96,9.96,1
1147,21.29,21.15,6.61,1
1148,21.31,30.74,5.26,1
1149,21.32,70.4,5.64,1
1150,21.33,21.13,8.62,1
1151,21.35,24.3,13.65,1
1152,21.36,47.88,5.42,1
1153,21.37,40.65,1.07,1
1154,21.39,26.9,15.41,1
1155,21.4,39.88,12.49,1
1156,21.41,18.59,6.92,1
1157,21.43,28.84,8.43,1
1158,21.44,24.74,21.02,1
1159,21.45,7.13,-3.97,1
1160,21.47,23.05,12.02,1
1161,21.48,11.59,5.67,1
1162,21.49,13.72,3.09,1
1163,21.51,8.94,5.82,1
1164,21.52,26.91,4.2,1
1165,21.53,1.57,2.8,1
1166,21.54,16.31,-3.83,1
1167,21.56,9.04,-10.94,1
1168,21.57,-11.06,-17.81,1
1169,21.58,-9.52,-2.13,1
1170,21.6,14.43,-8.49,1
1171,21.61,-13.03,-0.78,1
1172,21.625,-9.45,12.64,1
1173,21.64,1.51,8.15,1
1174,21.65,-9.6,-24.71,1
1175,21.67,0.89,1.36,1
1176,21.68,9.62,7.62,1
1177,21.69,-4.4,4.16,1
1178,21.71,-20.19,-2.41,1
1179,21.72,-0.34,7.29,1
1180,21.73,-12.15,-5.46,1
1181,21.75,-29.87,17.38,1
1182,21.76,-5.77,6.8,1
1183,21.77,-21.66,-12.07,1
1184,21.79,-21.53,10.58,1
1185,21.8,-7.49,-4.69,1
1186,21.81,-19.45,-14.57,1
1187,21.83,-11.22,-8.99,1
1188,21.84,-5.48,3.39,1
1189,21.85,-8.82,-7.27,1
1190,21.87,-18.86,-0.21,1
1191,21.88,-0.4,-6.37,1
1192,21.89,-6.69,-23.9,1
1193,21.91,-18.33,-3.73,1
1194,21.92,1.61,6.07,1
1195,21.93,-20.9,-26.52,1
1196,21.95,-16.56,11.3,1
1197,21.96,-2.77,-9.92,1
1198,21.97,1.71,-14.03,1
1199,21.99,-20.08,-1.51,1
1200,22.0,-0.1,2.07,1
1201,22.01,-16.8,-18.29,1
1202,22.03,-18.84,7.87,1
1203,22.04,-20.79,16.28,1
1204,22.05,3.5,-7.74,1
1205,22.07,-24.75,7.66,1
1206,22.08,11.34,-5.56,1
1207,22.09,22.24,-18.69,1
1208,22.11,1.78,12.06,1
1209,22.12,12.84,15.96,1
1210,22.13,5.79,-18.41,1
1211,22.15,-10.02,2.8,1
1212,22.16,16.57,6.92,2
1213,22.17,0.2,-16.49,2
1214,22.18,-18.0,16.98,2
1215,22.2,11.89,2.35,2
1216,22.21,-0.32,-13.78,2
1217,22.22,2.92,9.03,2
1218,22.24,108.43,45.57,2
1219,22.25,157.16,33.08,2
1220,22.26,185.58,68.17,2
1221,22.28,216.55,61.63,2
1222,22.29,206.65,9.56,2
1223,22.31,143.56,50.1,2
1224,22.32,88.92,43.11,2
1225,22.33,64.06,-47.45,2
1226,22.35,12.13,-47.81,2
1227,22.36,-29.39,-54.96,2
1228,22.37,-48.21,-115.66,2
1229,22.39,-158.26,-77.48,2
1230,22.4,-266.33,-54.1,2
1231,22.41,-305.3,-76.94,2
1232,22.43,-335.15,-17.87,2
1233,22.44,-301.81,-30.84,2
1234,22.45,-269.09,-52.46,2
1235,22.47,-252.88,-4.87,2
1236,22.48,-195.18,25.31,2
1237,22.49,-150.82,-12.3,2
1238,22.51,-133.33,26.03,2
1239,22.52,-80.19,37.95,2
1240,22.53,8.34,-9.69,2
1241,22.55,3.03,34.05,1
1242,22.56,22.5,34.79,1
1243,22.57,43.64,-13.42,1
1244,22.59,29.04,22.34,1
1245,22.6,60.71,43.13,1
1246,22.61,72.65,-3.4,1
1247,22.63,65.34,18.34,1
1248,22.64,94.52,33.18,1
1249,22.65,100.19,1.36,1
1250,22.67,73.94,40.95,1
1251,22.68,102.54,36.86,1
1252,22.69,108.44,-5.0,1
1253,22.71,87.79,22.62,1
1254,22.72,106.48,44.89,1
1255,22.73,126.71,-24.41,1
1256,22.75,94.52,10.26,1
1257,22.76,113.36,25.0,1
1258,22.77,109.58,-39.71,1
1259,22.79,82.39,9.21,1
1260,22.8,95.17,14.72,1
1261,22.81,90.53,-21.3,1
1262,22.82,49.28,18.55,1
1263,22.84,77.63,15.23,1
1264,22.85,73.25,-34.66,1
1265,22.86,39.29,15.34,1
1266,22.88,53.64,30.03,1
1267,22.89,53.61,-19.84,1
1268,22.9,24.46,13.66,1
1269,22.92,33.02,39.48,1
1270,22.93,33.67,-20.76,1
1271,22.95,-4.97,19.36,1
1272,22.96,16.66,5.81,1
1273,22.97,11.36,-43.5,1
1274,22.99,-23.9,-5.64,1
1275,23.0,1.14,-6.07,1
1276,23.01,2.66,-40.25,1
1277,23.03,-35.79,27.8,1
1278,23.04,-12.24,24.25,1
1279,23.05,-23.72,-31.23,1
1280,23.07,-47.18,3.03,1
1281,23.08,-7.43,15.8,1
1282,23.09,-11.05,-29.11,1
1283,23.11,-62.69,7.15,1
1284,23.12,-31.71,10.01,1
1285,23.13,-35.52,-39.76,1
1286,23.15,-59.23,-1.63,1
1287,23.16,-40.83,2.46,1
1288,23.17,-17.96,-33.9,1
1289,23.19,-68.72,-2.26,1
1290,23.2,-32.82,7.98,1
1291,23.21,-58.91,-30.65,1
1292,23.23,-67.98,18.73,1
1293,23.24,-48.13,6.27,1
1294,23.25,-25.08,-25.3,1
1295,23.27,-58.16,18.48,1
1296,23.28,-22.67,20.31,1
1297,23.29,-16.26,-34.77,1
1298,23.31,-53.66,3.9,1
1299,23.32,-8.45,20.99,1
1300,23.33,-14.15,-40.91,1
1301,23.35,-40.95,2.42,1
1302,23.36,-13.32,18.23,1
1303,23.37,-20.46,-22.98,1
1304,23.39,-52.41,-0.99,1
1305,23.4,-4.35,29.61,1
1306,23.41,-11.96,-42.29,1
1307,23.43,-33.95,20.36,1
1308,23.44,-1.33,8.35,1
1309,23.45,22.45,-25.9,1
1310,23.46,-12.43,2.11,1
1311,23.48,15.73,9.09,1
1312,23.49,24.19,-12.58,1
1313,23.5,-7.53,20.36,1
1314,23.52,11.79,9.59,1
1315,23.53,18.39,-18.86,1
1316,23.54,-17.6,-1.58,1
1317,23.56,10.81,22.58,1
1318,23.57,25.19,-17.35,1
1319,23.59,-18.19,2.85,1
1320,23.6,23.46,16.4,1
1321,23.61,23.44,-32.75,1
1322,23.63,-9.71,14.27,1
1323,23.64,18.27,35.85,1
1324,23.65,27.96,-17.79,1
1325,23.67,-4.45,-8.3,1
1326,23.68,-1.25,19.81,1
1327,23.69,33.88,-16.69,1
1328,23.71,-6.05,11.8,1
1329,23.72,27.03,11.39,1
1330,23.73,18.4,-29.17,1
1331,23.75,-10.85,18.1,1
1332,23.76,21.69,12.15,1
1333,23.77,32.22,-2.12,1
1334,23.79,-15.85,16.49,1
1335,23.8,27.11,2.05,1
1336,23.81,22.25,-16.53,1
1337,23.83,-17.12,26.14,1
1338,23.84,2.35,15.58,1
1339,23.85,22.08,-18.75,1
1340,23.87,-7.56,6.95,1
1341,23.88,11.36,-2.18,1
1342,23.89,21.57,-24.45,1
1343,23.91,-19.69,-7.93,1
1344,23.92,-3.42,10.24,1
1345,23.93,24.75,-25.54,1
1346,23.95,-11.66,-9.84,1
1347,23.96,25.33,22.25,1
1348,23.97,25.06,-5.04,1
1349,23.99,-24.32,15.95,1
1350,24.0,11.27,17.82,1
1351,24.01,22.88,-18.01,1
1352,24.03,-26.36,11.81,1
1353,24.04,2.33,10.68,1
1354,24.05,9.31,-14.42,1
1355,24.07,-15.71,6.32,1
1356,24.08,10.68,4.7,1
1357,24.09,6.53,-32.82,1
1358,24.1,-16.3,9.47,1
1359,24.12,19.99,26.36,1
1360,24.13,12.05,-5.82,1
1361,24.14,-28.87,19.79,1
1362,24.16,13.19,36.63,1
1363,24.17,5.67,-8.35,1
1364,24.18,-21.36,120.81,1
1365,24.2,-84.26,410.81,1
1366,24.21,-250.42,258.55,1
1367,24.22,-69.04,256.78,1
1368,24.24,-300.22,132.31,1
1369,24.25,-167.96,95.97,1
1370,24.27,-125.36,49.47,1
1371,24.28,86.75,-12.27,1
1372,24.29,-112.89,-58.76,1
1373,24.31,-18.58,-69.07,1
1374,24.32,-33.83,-114.73,1
1375,24.33,28.12,-141.07,1
1376,24.35,49.38,-135.54,1
1377,24.36,62.88,-165.84,1
1378,24.37,111.27,-177.43,1
1379,24.39,222.65,-160.58,1
1380,24.4,194.81,-178.4,1
1381,24.41,370.66,-180.81,1
1382,24.43,255.98,-153.92,1
1383,24.44,4.94,-166.05,1
1384,24.45,111.73,-161.63,1
1385,24.47,-11.04,-129.3,1
1386,24.48,34.89,-135.36,1
1387,24.49,127.09,-127.67,1
1388,24.51,97.04,-93.18,1
1389,24.52,205.55,-96.8,1
1390,24.53,-53.53,-87.91,1
1391,24.55,98.78,-53.41,1
1392,24.56,99.9,-55.06,1
1393,24.57,-35.46,-47.38,1
1394,24.59,186.42,-12.39,1
1395,24.6,72.25,-15.47,1
1396,24.61,485.63,-14.53,1
1397,24.63,-244.41,24.27,1
1398,24.64,-164.08,-38.77,1
1399,24.65,-110.09,-126.96,1
1400,24.67,-239.32,-149.9,1
1401,24.68,-183.96,-155.65,1
1402,24.69,-54.03,189.28,1
1403,24.71,101.55,-126.24,1
1404,24.72,-240.31,-385.18,1
1405,24.73,146.31,-233.37,1
1406,24.75,144.29,88.52,1
1407,24.76,-61.25,451.79,1
1408,24.77,25.72,140.66,1
1409,24.78,-284.22,363.58,1
1410,24.8,72.3,418.2,1
1411,24.81,78.14,171.84,1
1412,24.82,-11.36,103.65,1
1413,24.84,-220.08,22.21,1
1414,24.85,125.68,-87.83,1
1415,24.86,-278.99,-117.77,1
1416,24.88,-155.39,145.95,1
1417,24.89,-218.17,119.41,1
1418,24.91,-146.27,157.3,1
1419,24.92,-8.61,69.67,1
1420,24.93,-97.5,115.28,1
1421,24.95,-109.08,-30.56,1
1422,24.96,-28.57,-47.13,1
1423,24.97,7.76,-0.98,1
1424,24.99,41.7,69.62,1
1425,25.0,181.89,106.44,1
1426,25.01,158.77,121.31,1
1427,25.03,102.61,168.16,1
1428,25.04,70.03,179.34,1
1429,25.05,28.56,175.37,1
1430,25.07,-66.05,201.57,1
1431,25.08,-48.45,197.07,1
1432,25.09,-83.54,177.54,1
1433,25.11,-181.7,191.6,1
1434,25.12,-134.3,175.01,1
1435,25.13,-123.87,146.2,1
1436,25.15,-175.23,150.73,1
1437,25.16,-100.26,129.97,1
1438,25.17,-65.09,95.8,1
1439,25.19,-118.54,96.06,1
1440,25.2,-77.95,74.05,1
1441,25.21,-56.29,51.8,1
1442,25.23,-87.97,136.15,1
1443,25.24,-21.94,221.41,1
1444,25.25,0.61,208.6,1
1445,25.27,-28.74,141.04,1
1446,25.28,38.65,115.26,1
1447,25.29,47.93,96.62,1
1448,25.31,-17.1,19.92,1
1449,25.32,42.69,-2.76,1
1450,25.33,72.26,-58.34,1
1451,25.35,50.95,-151.66,1
1452,25.36,89.09,-163.06,1
1453,25.37,95.87,-170.72,1
1454,25.38,33.23,-244.76,1
1455,25.4,81.09,-245.7,1
1456,25.41,67.81,-278.02,1
1457,25.42,37.23,-335.62,1
1458,25.44,103.91,-301.8,1
1459,25.45,126.21,-272.31,1
1460,25.46,61.7,-331.53,1
1461,25.48,88.85,-265.88,1
1462,25.49,87.13,-269.48,1
1463,25.5,24.32,-294.25,1
1464,25.52,72.19,-259.09,1
1465,25.53,95.84,-243.81,1
1466,25.55,60.57,-285.77,1
1467,25.56,95.95,-220.67,1
1468,25.57,89.97,-196.58,1
1469,25.59,15.58,-217.08,1
1470,25.6,62.36,-155.65,1
1471,25.61,47.54,-121.3,1
1472,25.63,13.16,-150.03,1
1473,25.64,68.96,-74.45,1
1474,25.65,63.61,-30.62,1
1475,25.67,-10.74,-65.66,1
1476,25.68,29.21,-47.04,1
1477,25.69,42.75,-6.39,1
1478,25.71,-32.06,-21.53,1
1479,25.72,8.06,26.31,1
1480,25.73,7.67,48.08,1
1481,25.75,-34.69,10.4,1
1482,25.76,-3.6,77.75,1
1483,25.77,13.17,86.2,1
1484,25.79,-39.58,52.48,1
1485,25.8,-8.8,104.23,1
1486,25.81,-3.59,137.01,1
1487,25.83,-28.79,79.04,1
1488,25.84,-22.96,127.75,1
1489,25.85,9.31,146.41,1
1490,25.87,-56.09,84.93,1
1491,25.88,-14.91,139.57,1
1492,25.89,-20.68,154.43,1
1493,25.91,-60.84,92.18,1
1494,25.92,-14.72,143.18,1
1495,25.93,-19.76,143.86,1
1496,25.95,-44.06,86.84,1
1497,25.96,-9.74,135.71,1
1498,25.97,-11.43,142.31,1
1499,25.99,-53.68,90.21,1
1500,26.0,-37.61,132.92,1
1501,26.01,-10.59,136.51,1
1502,26.02,-61.42,73.35,1
1503,26.04,-12.46,110.73,1
1504,26.05,-3.41,116.53,1
1505,26.06,-24.98,53.56,1
1506,26.08,-13.72,68.34,1
1507,26.09,4.51,74.97,1
1508,26.1,-52.67,13.61,1
1509,26.12,-2.66,65.06,1
1510,26.13,18.25,69.6,1
1511,26.14,-53.75,3.89,1
1512,26.16,-3.44,43.21,2
1513,26.17,5.23,47.79,2
1514,26.19,-24.37,-37.36,2
1515,26.2,102.29,5.83,2
1516,26.21,213.2,84.34,2
1517,26.23,172.49,-32.89,2
1518,26.24,199.02,-3.99,2
1519,26.25,128.76,-4.95,2
1520,26.27,79.06,-64.6,2
1521,26.28,35.56,-33.23,2
1522,26.29,-40.67,-24.54,2
1523,26.31,-141.46,-59.85,2
1524,26.32,-130.78,-29.71,2
1525,26.33,-144.32,-3.13,2
1526,26.35,-213.1,-60.69,2
1527,26.36,-193.84,-22.38,2
1528,26.37,-190.5,15.17,2
1529,26.39,-210.24,-62.92,2
1530,26.4,-170.78,-8.27,2
1531,26.41,-119.09,-5.24,2
1532,26.43,-139.86,-50.67,2
1533,26.44,-85.05,-12.38,2
1534,26.45,-56.09,0.65,2
1535,26.47,-95.9,-68.77,2
1536,26.48,-51.26,-25.7,2
1537,26.49,-12.48,-14.78,2
1538,26.51,-31.04,-87.05,2
1539,26.52,17.26,-52.24,2
1540,26.53,49.83,-35.46,2
1541,26.55,7.19,-75.91,1
1542,26.56,52.82,-32.37,1
1543,26.57,77.44,-33.24,1
1544,26.59,54.96,-67.45,1
1545,26.6,93.45,-39.41,1
1546,26.61,99.97,-3.35,1
1547,26.63,72.61,-61.11,1
1548,26.64,101.39,-18.37,1
1549,26.65,106.46,1.21,1
1550,26.67,66.79,-49.63,1
1551,26.68,94.37,-19.81,1
1552,26.69,121.55,2.74,1
1553,26.7,65.82,-26.0,1
1554,26.72,100.06,6.32,1
1555,26.73,99.73,21.8,1
1556,26.75,44.91,-23.47,1
1557,26.76,63.71,4.6,1
1558,26.77,85.44,10.98,1
1559,26.78,51.89,-27.37,1
1560,26.8,66.35,24.39,1
1561,26.81,68.1,33.06,1
1562,26.825,15.61,-17.91,1
1563,26.84,50.26,24.41,1
1564,26.85,49.53,22.85,1
1565,26.87,0.59,-6.48,1
1566,26.88,31.23,32.49,1
1567,26.89,39.65,44.76,1
1568,26.91,-7.93,-7.13,1
1569,26.92,0.59,26.22,1
1570,26.93,23.2,30.43,1
1571,26.95,-30.33,-2.29,1
1572,26.96,-29.08,-1.69,1
1573,26.97,-15.56,40.31,1
1574,26.99,-36.87,0.58,1
1575,27.0,-16.94,16.85,1
1576,27.01,-4.99,48.66,1
1577,27.03,-48.9,9.53,1
1578,27.04,-33.53,32.58,1
1579,27.05,-27.27,40.37,1
1580,27.07,-53.28,-1.13,1
1581,27.08,-22.67,16.24,1
1582,27.09,-26.2,9.68,1
1583,27.11,-40.08,-19.85,1
1584,27.12,-29.41,9.25,1
1585,27.13,-25.71,2.56,1
1586,27.15,-43.43,-10.83,1
1587,27.16,-38.47,-11.21,1
1588,27.17,-13.06,31.38,1
1589,27.19,-39.74,-7.98,1
1590,27.2,-21.46,-21.61,1
1591,27.21,-34.87,0.48,1
1592,27.23,-60.15,-17.76,1
1593,27.24,-34.43,-13.37,1
1594,27.25,-22.85,18.04,1
1595,27.27,-34.24,-26.42,1
1596,27.28,-11.71,0.41,1
1597,27.29,0.61,15.55,1
1598,27.3,-36.69,-0.68,1
1599,27.32,-12.27,-11.03,1
1600,27.33,7.21,21.8,1
1601,27.34,-42.84,0.21,1
1602,27.36,-16.37,-7.08,1
1603,27.37,1.97,6.39,1
1604,27.38,-35.01,1.72,1
1605,27.4,13.23,-6.49,1
1606,27.41,12.77,5.52,1
1607,27.42,-16.5,-15.8,1
1608,27.44,3.01,-8.47,1
1609,27.45,10.45,-5.18,1
1610,27.46,-19.36,-24.06,1
1611,27.48,-6.06,4.81,1
1612,27.49,14.0,0.29,1
1613,27.51,-10.55,-18.96,1
1614,27.52,-7.51,-13.42,1
1615,27.53,12.0,17.85,1
1616,27.55,-29.45,4.17,1
1617,27.56,13.86,-14.57,1
1618,27.57,7.44,-7.11,1
1619,27.59,22.03,4.44,1
1620,27.6,14.98,-18.27,1
1621,27.61,28.3,7.16,1
1622,27.63,3.93,1.15,1
1623,27.64,17.27,25.8,1
1624,27.65,30.73,3.53,1
1625,27.67,7.15,-3.49,1
1626,27.68,23.05,-23.38,1
1627,27.69,34.35,10.68,1
1628,27.71,4.97,-5.12,1
1629,27.72,2.12,-22.4,1
1630,27.73,18.69,12.22,1
1631,27.75,2.59,-11.79,1
1632,27.76,13.66,-13.88,1
1633,27.77,37.22,-5.55,1
1634,27.79,17.75,19.08,1
1635,27.8,9.48,-6.05,1
1636,27.81,18.4,4.24,1
1637,27.83,-9.28,2.97,1
1638,27.84,9.83,-13.15,1
1639,27.85,-1.61,28.85,1
1640,27.87,0.26,12.9,1
1641,27.88,-4.48,-17.0,1
1642,27.89,17.82,9.51,1
1643,27.91,-4.92,10.29,1
1644,27.92,5.48,-21.25,1
1645,27.93,15.81,1.63,1
1646,27.94,-17.34,22.46,1
1647,27.96,2.61,-3.34,1
1648,27.97,29.13,-8.17,1
1649,27.98,-14.77,19.21,1
1650,28.0,-7.91,-7.19,1
1651,28.01,11.28,7.76,1
1652,28.02,-26.22,2.07,1
1653,28.04,-7.55,-18.88,1
1654,28.05,1.65,10.97,1
1655,28.06,-10.88,21.36,1
1656,28.08,-20.3,-36.29,1
1657,28.09,14.76,14.96,1
1658,28.1,-11.93,24.86,1
1659,28.12,-4.95,-29.7,1
1660,28.13,11.19,-2.14,1
1661,28.15,-0.01,35.2,1
1662,28.16,-5.47,-16.86,0
1663,28.17,14.31,-0.87,0
1664,28.19,3.0,15.76,0
1665,28.2,-20.03,-35.93,0
1666,28.21,-47.56,39.44,0
1667,28.23,-125.99,21.47,0
1668,28.24,-189.23,-23.95,0
1669,28.25,-192.08,-4.68,0
1670,28.27,-224.46,17.77,0
1671,28.28,-174.43,-39.4,0
1672,28.29,-142.29,26.88,0
1673,28.31,-66.3,59.47,0
1674,28.32,-41.16,-17.71,0
1675,28.33,-7.99,-35.1,0
1676,28.35,50.62,-7.59,0
1677,28.36,114.67,-66.39,0
1678,28.37,257.01,-39.5,0
1679,28.39,311.41,-7.76,0
1680,28.4,318.98,-35.26,0
1681,28.41,322.33,9.08,0
1682,28.43,304.73,29.22,0
1683,28.44,243.19,-24.2,0
1684,28.45,216.02,23.65,0
1685,28.47,171.82,50.23,0
1686,28.48,125.09,-33.92,0
1687,28.49,115.71,19.91,0
1688,28.51,67.68,38.87,0
1689,28.52,16.49,-14.8,0
1690,28.53,10.3,26.54,0
1691,28.55,-23.12,44.41,1
1692,28.56,-51.21,-10.13,1
1693,28.57,-54.46,7.52,1
1694,28.58,-75.68,4.14,1
1695,28.6,-104.47,-27.88,1
1696,28.61,-106.29,18.76,1
1697,28.62,-110.4,42.61,1
1698,28.64,-129.81,-40.87,1
1699,28.65,-119.45,18.37,1
1700,28.67,-118.29,37.99,1
1701,28.68,-145.42,-47.16,1
1702,28.69,-112.53,4.85,1
1703,28.7,-110.63,34.32,1
1704,28.72,-133.84,-40.51,1
1705,28.73,-91.71,7.09,1
1706,28.75,-97.18,14.04,1
1707,28.76,-106.68,-36.84,1
1708,28.77,-91.57,2.72,1
1709,28.79,-52.43,-12.98,1
1710,28.8,-93.5,-44.35,1
1711,28.81,-62.7,2.92,1
1712,28.83,-53.67,17.94,1
1713,28.84,-78.71,-64.02,1
1714,28.85,-26.92,11.44,1
1715,28.87,-31.98,29.03,1
1716,28.88,-37.66,-27.15,1
1717,28.89,-12.09,-4.62,1
1718,28.91,-7.79,35.08,1
1719,28.92,-10.58,-27.19,1
1720,28.93,15.41,2.68,1
1721,28.95,27.1,25.45,1
1722,28.96,-13.24,-26.14,1
1723,28.97,21.06,19.49,1
1724,28.99,26.23,30.09,1
1725,29.0,13.11,-44.95,1
1726,29.01,38.73,21.0,1
1727,29.03,43.27,20.8,1
1728,29.04,15.14,-44.63,1
1729,29.05,57.0,20.15,1
1730,29.07,46.09,46.76,1
1731,29.08,15.53,-31.74,1
1732,29.09,44.92,7.33,1
1733,29.11,65.5,16.12,1
1734,29.12,42.29,-28.62,1
1735,29.13,62.0,17.81,1
1736,29.15,43.12,10.56,1
1737,29.16,19.65,-31.73,1
1738,29.17,42.02,8.04,1
1739,29.19,42.96,31.24,1
1740,29.2,29.96,-53.64,1
1741,29.21,47.43,33.14,1
1742,29.22,44.44,35.41,1
1743,29.24,12.49,-38.48,1
1744,29.25,55.04,-1.98,1
1745,29.26,27.93,35.13,1
1746,29.28,7.95,-47.89,1
1747,29.29,29.57,-7.74,1
1748,29.3,39.16,17.32,1
1749,29.32,12.39,-41.83,1
1750,29.33,26.62,-6.32,1
1751,29.34,27.63,23.37,1
1752,29.36,-11.76,-21.52,1
1753,29.37,20.34,16.67,1
1754,29.38,19.29,33.46,1
1755,29.4,-13.76,-44.09,1
1756,29.41,19.76,21.98,1
1757,29.42,19.12,43.03,1
1758,29.44,-14.28,-26.48,1
1759,29.45,10.38,-8.14,1
1760,29.47,4.62,34.82,1
1761,29.48,-26.09,-36.64,1
1762,29.49,-4.55,7.22,1
1763,29.51,19.99,3.2,1
1764,29.52,-22.33,-38.08,1
1765,29.53,7.6,16.55,1
1766,29.55,9.38,25.32,1
1767,29.56,-47.74,-27.32,1
1768,29.57,-7.58,30.12,1
1769,29.59,3.84,33.11,1
1770,29.6,-44.44,-26.05,1
1771,29.61,4.48,13.36,1
1772,29.63,-8.46,16.93,1
1773,29.64,-32.59,-16.51,1
1774,29.65,-15.49,7.69,1
1775,29.67,-6.85,21.0,1
1776,29.68,-46.5,-26.84,1
1777,29.69,-5.7,10.33,1
1778,29.71,2.61,11.69,1
1779,29.72,-47.33,-24.42,1
1780,29.73,1.92,13.66,1
1781,29.75,-5.16,28.9,1
1782,29.76,-39.35,-44.34,1
1783,29.77,-13.9,13.64,1
1784,29.79,-2.75,10.39,1
1785,29.8,-22.72,-30.02,1
1786,29.81,-1.26,11.59,1
1787,29.83,19.38,33.32,1
1788,29.84,-26.75,-29.52,1
1789,29.85,9.15,8.61,1
1790,29.86,3.93,33.61,1
1791,29.88,-44.42,-27.56,1
1792,29.89,-2.76,-15.18,1
1793,29.9,6.7,-6.87,1
1794,29.92,-22.72,-41.69,1
1795,29.93,6.79,2.37,1
1796,29.94,12.83,12.86,1
1797,29.96,-8.18,-29.96,1
1798,29.97,14.9,30.31,1
1799,29.98,30.0,41.54,1
1800,30.0,-24.22,-22.39,1
1801,30.01,15.11,5.0,1
1802,30.02,13.44,19.9,1
1803,30.04,-26.61,-29.86,1
1804,30.05,-14.75,-15.17,1
1805,30.06,9.55,2.95,1
1806,30.08,-10.21,-17.27,1
1807,30.09,20.24,-13.63,1
1808,30.11,16.38,-5.93,1
1809,30.12,-13.47,-10.71,1
1810,30.13,10.66,11.16,1
1811,30.15,28.9,17.18,1
1812,30.16,-33.65,-51.07,0
1813,30.17,11.84,14.69,0
1814,30.19,41.44,31.54,0
1815,30.2,-19.68,-17.83,0
1816,30.21,14.5,-32.03,0
1817,30.23,-42.27,19.64,0
1818,30.24,-192.05,-25.2,0
1819,30.25,-197.85,-32.28,0
1820,30.27,-238.23,-9.67,0
1821,30.28,-183.8,-19.42,0
1822,30.29,-149.13,-35.77,0
1823,30.31,-57.59,-6.12,0
1824,30.32,-12.62,4.42,0
1825,30.33,51.98,29.18,0
1826,30.35,125.18,55.85,0
1827,30.36,147.47,18.36,0
1828,30.37,207.7,20.21,0
1829,30.39,222.63,64.15,0
1830,30.4,200.38,23.74,0
1831,30.41,223.13,17.58,0
1832,30.43,238.91,23.33,0
1833,30.44,158.14,15.84,0
1834,30.45,177.98,6.13,0
1835,30.47,161.34,5.46,0
1836,30.48,84.19,-8.55,0
1837,30.49,111.88,-0.07,0
1838,30.5,85.97,33.15,0
1839,30.52,20.6,-6.14,0
1840,30.53,39.06,8.0,0
1841,30.54,38.34,21.18,0
1842,30.56,-27.11,20.28,1
1843,30.57,-4.93,3.16,1
1844,30.58,-12.39,20.66,1
1845,30.6,-66.29,-2.67,1
1846,30.61,-47.98,-18.1,1
1847,30.62,-49.46,-15.1,1
1848,30.64,-104.55,-4.01,1
1849,30.65,-67.99,-27.33,1
1850,30.67,-63.41,-29.56,1
1851,30.68,-110.03,-2.52,1
1852,30.69,-73.78,-4.27,1
1853,30.7,-87.95,13.11,1
1854,30.72,-129.08,5.14,1
1855,30.73,-85.98,-33.56,1
1856,30.75,-68.52,5.45,1
1857,30.76,-127.46,-14.91,1
1858,30.77,-74.32,-54.04,1
1859,30.79,-88.32,-8.95,1
1860,30.8,-135.25,-1.79,1
1861,30.81,-87.72,-20.93,1
1862,30.83,-56.8,-13.93,1
1863,30.84,-106.76,7.0,1
1864,30.85,-42.65,-26.32,1
1865,30.87,-40.06,-16.24,1
1866,30.88,-74.61,-10.15,1
1867,30.89,-31.42,-20.58,1
1868,30.91,-3.22,7.17,1
1869,30.92,-49.57,-1.03,1
1870,30.93,11.32,-19.45,1
1871,30.95,4.39,2.65,1
1872,30.96,-35.25,20.53,1
1873,30.97,2.78,-27.48,1
1874,30.99,23.01,1.56,1
1875,31.0,-8.44,5.07,1
1876,31.01,20.12,9.13,1
1877,31.03,46.73,5.67,1
1878,31.04,-6.15,3.75,1
1879,31.05,43.33,2.46,1
1880,31.07,47.45,6.89,1
1881,31.08,-12.9,17.86,1
1882,31.09,42.08,-0.24,1
1883,31.11,56.67,25.27,1
1884,31.12,2.46,22.54,1
1885,31.13,55.56,-36.26,1
1886,31.14,67.85,14.01,1
1887,31.16,16.59,24.62,1
1888,31.17,59.87,-15.57,1
1889,31.18,50.98,20.49,1
1890,31.2,-8.69,32.52,1
1891,31.21,41.64,-26.49,1
1892,31.22,61.84,11.14,1
1893,31.24,23.17,15.39,1
1894,31.25,62.4,-5.86,1
1895,31.26,60.7,17.64,1
1896,31.28,8.18,13.21,1
1897,31.29,46.44,-35.55,1
1898,31.3,61.66,16.63,1
1899,31.32,4.38,2.13,1
1900,31.33,38.42,-23.8,1
1901,31.34,57.3,21.01,1
1902,31.36,-9.05,13.31,1
1903,31.37,42.4,-21.98,1
1904,31.39,27.08,1.57,1
1905,31.4,-19.95,20.77,1
1906,31.41,21.06,-21.21,1
1907,31.43,14.31,-3.82,1
1908,31.44,-31.79,13.51,1
1909,31.45,10.45,-21.81,1
1910,31.47,4.8,-1.19,1
1911,31.48,-37.76,18.02,1
1912,31.49,13.4,-35.97,1
1913,31.51,16.75,9.2,1
1914,31.52,-24.13,15.49,1
1915,31.53,4.51,-31.57,1
1916,31.55,12.86,2.82,1
1917,31.56,-43.09,22.04,1
1918,31.57,3.03,-9.62,1
1919,31.59,-1.94,19.5,1
1920,31.6,-41.14,25.41,1
1921,31.61,5.22,-18.23,1
1922,31.63,-4.1,14.98,1
1923,31.64,-43.73,26.08,1
1924,31.65,-8.93,-54.55,1
1925,31.67,-6.08,10.69,1
1926,31.68,-39.96,25.59,1
1927,31.69,-3.36,-36.82,1
1928,31.71,8.0,-2.1,1
1929,31.72,-43.77,29.81,1
1930,31.73,-5.67,-44.88,1
1931,31.75,5.1,7.52,1
1932,31.76,-41.26,29.29,1
1933,31.77,-1.96,-29.2,1
1934,31.78,0.53,-2.95,1
1935,31.8,-51.42,24.41,1
1936,31.81,3.0,-38.3,1
1937,31.82,10.7,1.4,1
1938,31.84,-37.9,26.57,1
1939,31.85,23.93,-34.31,1
1940,31.86,-6.02,12.61,1
1941,31.88,-24.15,39.17,1
1942,31.89,6.01,-36.73,1
1943,31.9,3.11,15.73,1
1944,31.92,-27.96,33.26,1
1945,31.93,5.21,-46.01,1
1946,31.94,9.87,4.05,1
1947,31.96,-33.49,27.84,1
1948,31.97,2.61,-22.74,1
1949,31.98,15.7,11.47,1
1950,32.0,-30.84,32.49,1
1951,32.01,19.4,-52.33,1
1952,32.03,12.14,-5.36,1
1953,32.04,-21.84,29.64,1
1954,32.05,10.19,-39.73,1
1955,32.07,23.02,-3.33,1
1956,32.08,-34.81,0.77,1
1957,32.09,24.1,-46.88,1
1958,32.11,30.04,17.81,1
1959,32.12,-26.74,38.22,1
1960,32.13,22.39,-23.3,1
1961,32.15,20.17,14.15,1
1962,32.16,-15.02,13.6,2
1963,32.17,37.78,-31.84,2
1964,32.19,16.43,34.37,2
1965,32.2,-24.52,41.52,2
1966,32.21,8.65,-2.04,2
1967,32.23,27.69,50.98,2
1968,32.24,46.82,97.99,2
1969,32.25,158.02,71.45,2
1970,32.27,192.89,146.12,2
1971,32.28,173.02,208.16,2
1972,32.29,174.81,116.86,2
1973,32.31,158.83,107.78,2
1974,32.32,93.04,46.48,2
1975,32.33,82.08,-99.08,2
1976,32.35,22.17,-168.26,2
1977,32.36,-23.64,-218.85,2
1978,32.37,-51.07,-314.95,2
1979,32.39,-78.87,-267.65,2
1980,32.4,-202.57,-217.21,2
1981,32.41,-232.66,-238.67,2
1982,32.43,-286.03,-141.1,2
1983,32.44,-336.77,-84.66,2
1984,32.45,-289.87,-88.89,2
1985,32.47,-250.0,-9.32,2
1986,32.48,-256.92,48.86,2
1987,32.49,-182.23,12.88,2
1988,32.51,-153.88,68.58,2
1989,32.52,-147.79,95.43,2
1990,32.53,-65.24,31.38,2
1991,32.54,-15.16,88.79,2
1992,32.56,-48.28,116.85,1
1993,32.57,34.8,54.64,1
1994,32.59,54.36,106.45,1
1995,32.6,49.3,115.81,1
1996,32.61,88.81,51.93,1
1997,32.63,145.51,86.21,1
1998,32.64,114.03,97.32,1
1999,32.65,148.91,23.94,1
2000,32.67,142.07,76.41,1
2001,32.68,79.58,101.49,1
2002,32.69,105.23,19.83,1
2003,32.71,118.13,59.68,1
2004,32.72,71.15,66.43,1
2005,32.73,111.11,0.34,1
2006,32.75,106.89,48.8,1
2007,32.76,58.98,57.65,1
2008,32.77,86.73,-5.45,1
2009,32.79,100.2,9.42,1
2010,32.8,67.06,27.71,1
2011,32.81,81.98,-46.78,1
2012,32.83,83.11,-13.38,1
2013,32.84,45.91,12.04,1
2014,32.85,58.65,-38.81,1
2015,32.87,71.87,-7.15,1
2016,32.88,26.23,-0.15,1
2017,32.89,45.37,-44.99,1
2018,32.91,46.64,-22.23,1
2019,32.92,0.88,-10.74,1
2020,32.93,25.12,-36.65,1
2021,32.95,31.51,-8.91,1
2022,32.96,-2.89,0.58,1
2023,32.97,4.18,-59.42,1
2024,32.99,20.12,-27.31,1
2025,33.0,-29.16,-1.53,1
2026,33.01,-14.62,-58.05,1
2027,33.03,-0.81,-30.72,1
2028,33.04,-45.64,-23.07,1
2029,33.05,-22.65,-55.16,1
2030,33.06,-1.01,-14.33,1
2031,33.08,-40.48,-1.45,1
2032,33.09,-35.15,-34.71,1
2033,33.11,-15.88,-9.02,1
2034,33.12,-55.23,11.23,1
2035,33.13,-29.67,-36.02,1
2036,33.15,-19.38,-17.09,1
2037,33.16,-60.76,-3.99,1
2038,33.17,-27.02,-35.11,1
2039,33.19,-31.8,0.41,1
2040,33.2,-67.29,7.12,1
2041,33.21,-39.78,-36.45,1
2042,33.22,-38.96,10.57,1
2043,33.24,-59.99,7.89,1
2044,33.25,-30.35,-31.31,1
2045,33.27,-10.58,-4.4,1
2046,33.28,-44.69,-7.62,1
2047,33.29,-24.66,-9.24,1
2048,33.31,-22.13,-20.29,1
2049,33.32,-30.47,21.11,1
2050,33.33,-25.77,6.18,1
2051,33.35,-16.03,9.25,1
2052,33.36,-37.85,11.23,1
2053,33.37,-5.05,-21.55,1
2054,33.39,-10.51,3.28,1
2055,33.4,-39.75,12.51,1
2056,33.41,-11.8,3.29,1
2057,33.43,10.66,7.95,1
2058,33.44,-24.24,23.4,1
2059,33.45,-0.27,16.46,1
2060,33.47,13.16,5.47,1
2061,33.48,-21.63,21.11,1
2062,33.49,-2.48,-3.71,1
2063,33.51,2.25,8.31,1
2064,33.52,-21.7,15.77,1
2065,33.53,14.49,-5.18,1
2066,33.55,31.39,21.06,1
2067,33.56,-7.54,43.2,1
2068,33.57,13.87,-6.9,1
2069,33.59,23.07,18.22,1
2070,33.6,-2.67,16.66,1
2071,33.61,13.46,9.41,1
2072,33.63,17.79,9.76,1
2073,33.64,-5.96,19.36,1
2074,33.65,-1.78,3.27,1
2075,33.67,13.61,5.4,1
2076,33.68,-7.64,12.47,1
2077,33.69,13.4,-6.66,1
2078,33.71,18.9,1.07,1
2079,33.72,2.67,6.01,1
2080,33.73,16.41,-6.61,1
2081,33.75,17.18,4.64,1
2082,33.76,4.55,16.06,1
2083,33.77,4.81,-7.08,1
2084,33.79,24.55,-4.37,1
2085,33.8,-0.56,-8.25,1
2086,33.81,14.08,-17.64,1
2087,33.83,9.89,-7.06,1
2088,33.84,1.34,3.95,1
2089,33.85,11.36,12.74,1
2090,33.87,25.61,9.73,1
2091,33.88,0.06,-3.75,1
2092,33.89,22.25,-3.49,1
2093,33.9,19.87,-11.63,1
2094,33.92,11.4,0.68,1
2095,33.93,10.59,-11.65,1
2096,33.95,14.53,-6.98,1
2097,33.96,-7.5,-5.11,1
2098,33.97,5.73,-3.01,1
2099,33.99,15.07,-4.4,1
2100,34.0,-10.96,-0.85,1
2101,34.01,-1.86,-10.85,1
2102,34.03,16.79,-13.09,1
2103,34.04,-5.33,9.12,1
2104,34.05,-17.33,0.39,1
2105,34.07,-5.56,-13.14,1
2106,34.08,-12.64,-0.87,1
2107,34.09,1.75,-3.61,1
2108,34.11,11.8,-16.59,1
2109,34.12,-11.9,5.11,1
2110,34.13,-10.09,16.33,1
2111,34.15,4.33,-18.74,1
2112,34.16,5.26,7.34,1
2113,34.17,-18.52,7.62,1
2114,34.19,14.5,17.96,1
2115,34.2,2.62,190.11,1
2116,34.21,-11.0,261.52,1
2117,34.23,-42.41,-42.35,1
2118,34.24,-232.23,113.23,1
2119,34.25,-65.84,68.36,1
2120,34.27,31.86,319.09,1
2121,34.28,-268.82,149.04,1
2122,34.29,-178.77,122.44,1
2123,34.31,-178.04,63.82,1
2124,34.32,-89.38,15.9,1
2125,34.33,-71.18,-42.31,1
2126,34.35,-32.77,-57.63,1
2127,34.36,20.72,-94.08,1
2128,34.37,48.18,-129.38,1
2129,34.38,123.52,-129.63,1
2130,34.4,103.92,-147.96,1
2131,34.41,270.96,-168.68,1
2132,34.43,25.16,-156.8,1
2133,34.44,219.11,-163.4,1
2134,34.45,420.86,-175.9,1
2135,34.47,168.05,-154.03,1
2136,34.48,125.02,-153.12,1
2137,34.49,602.93,-159.41,1
2138,34.51,-198.05,-131.98,1
2139,34.52,260.84,-124.56,1
2140,34.53,234.4,-128.11,1
2141,34.54,404.73,-98.59,1
2142,34.56,-325.04,-87.63,1
2143,34.57,52.73,-89.6,1
2144,34.59,-196.09,-59.92,1
2145,34.6,-154.31,-49.96,1
2146,34.61,107.92,-47.09,1
2147,34.63,-148.78,-20.0,1
2148,34.64,-153.53,-100.45,1
2149,34.65,-75.61,-294.5,1
2150,34.67,-30.18,-223.7,1
2151,34.68,-303.47,-72.86,1
2152,34.69,-133.91,158.46,1
2153,34.71,281.73,-69.62,1
2154,34.72,-30.37,-137.75,1
2155,34.73,-267.44,-319.11,1
2156,34.75,49.77,-76.88,1
2157,34.76,-164.62,-266.2,1
2158,34.77,-253.87,198.63,1
2159,34.79,-40.7,38.9,1
2160,34.8,-258.23,433.6,1
2161,34.81,-3.93,394.77,1
2162,34.83,-41.16,-78.81,1
2163,34.84,-85.04,333.03,1
2164,34.85,-176.78,449.58,1
2165,34.87,-26.46,41.76,1
2166,34.88,310.42,310.18,1
2167,34.89,340.41,181.43,1
2168,34.91,-2.12,414.22,1
2169,34.92,38.46,424.52,1
2170,34.93,-198.27,108.28,1
2171,34.95,-72.74,219.82,1
2172,34.96,37.84,263.98,1
2173,34.97,164.99,202.07,1
2174,34.99,-215.46,74.58,1
2175,35.0,12.34,149.45,1
2176,35.01,20.71,-10.73,1
2177,35.03,56.05,-208.34,1
2178,35.04,57.44,-128.02,1
2179,35.05,78.6,-129.87,1
2180,35.06,191.4,-64.77,1
2181,35.08,269.02,-25.02,1
2182,35.09,203.62,-15.56,1
2183,35.11,155.33,18.48,1
2184,35.12,46.67,45.66,1
2185,35.13,-37.32,37.99,1
2186,35.15,-71.16,56.87,1
2187,35.16,-128.59,70.83,1
2188,35.17,-176.92,51.85,1
2189,35.19,-185.28,60.44,1
2190,35.2,-191.78,67.34,1
2191,35.21,-223.8,42.38,1
2192,35.22,-165.76,44.48,1
2193,35.24,-155.61,46.85,1
2194,35.25,-157.0,18.01,1
2195,35.27,-100.32,62.26,1
2196,35.28,-82.64,220.48,1
2197,35.29,-99.9,257.54,1
2198,35.31,-83.51,179.83,1
2199,35.32,-34.12,185.8,1
2200,35.33,-46.17,141.14,1
2201,35.35,-20.46,6.64,1
2202,35.36,-7.78,8.29,1
2203,35.37,-53.04,-19.58,1
2204,35.39,15.23,-100.06,1
2205,35.4,42.47,-118.01,1
2206,35.41,9.72,-143.09,1
2207,35.43,57.45,-210.86,1
2208,35.44,57.39,-203.32,1
2209,35.45,36.85,-240.0,1
2210,35.47,76.23,-305.91,1
2211,35.48,96.37,-261.98,1
2212,35.49,68.22,-232.46,1
2213,35.51,81.44,-269.17,1
2214,35.52,86.69,-235.85,1
2215,35.53,62.64,-208.81,1
2216,35.55,78.9,-257.04,1
2217,35.56,94.04,-203.19,1
2218,35.57,51.75,-182.91,1
2219,35.59,77.95,-222.56,1
2220,35.6,90.33,-170.75,1
2221,35.61,52.27,-132.63,1
2222,35.63,80.0,-196.61,1
2223,35.64,79.24,-135.19,1
2224,35.65,32.02,-81.45,1
2225,35.67,61.53,-118.64,1
2226,35.68,62.79,-66.27,1
2227,35.69,25.22,-24.24,1
2228,35.71,53.66,-79.5,1
2229,35.72,42.46,-26.35,1
2230,35.73,21.79,9.85,1
2231,35.75,23.93,-34.14,1
2232,35.76,44.11,11.67,1
2233,35.77,7.01,58.55,1
2234,35.79,31.06,7.83,1
2235,35.8,32.25,55.95,1
2236,35.81,-3.51,92.22,1
2237,35.83,28.12,13.4,1
2238,35.84,9.83,72.97,1
2239,35.85,-35.46,111.03,1
2240,35.87,-9.25,82.37,1
2241,35.88,0.19,101.53,1
2242,35.89,-30.96,130.27,1
2243,35.9,-13.84,74.52,1
2244,35.92,2.05,125.21,1
2245,35.93,-38.93,123.98,1
2246,35.95,9.53,67.21,1
2247,35.96,-10.02,111.98,1
2248,35.97,-49.3,138.13,1
2249,35.99,-12.36,94.34,1
2250,36.0,-20.33,113.5,1
2251,36.01,-42.02,121.57,1
2252,36.03,-30.79,71.25,1
2253,36.04,-14.22,108.5,1
2254,36.05,-73.86,131.39,1
2255,36.07,-39.63,63.61,1
2256,36.08,-16.72,77.78,1
2257,36.09,-42.56,97.46,1
2258,36.11,-18.94,38.1,1
2259,36.12,-22.74,75.38,1
2260,36.13,-57.96,84.54,1
2261,36.15,-4.42,17.24,1
2262,36.16,2.93,47.71,2
2263,36.17,-50.27,35.65,2
2264,36.19,0.58,-14.67,2
2265,36.2,63.2,74.01,2
2266,36.21,105.51,77.33,2
2267,36.23,194.04,-7.76,2
2268,36.24,211.29,-19.36,2
2269,36.25,165.52,-10.09,2
2270,36.27,112.93,-44.33,2
2271,36.28,71.49,-20.71,2
2272,36.29,-49.67,5.48,2
2273,36.31,-79.95,-41.07,2
2274,36.32,-131.59,-32.22,2
2275,36.33,-219.8,9.19,2
2276,36.35,-194.36,0.25,2
2277,36.36,-172.94,8.05,2
2278,36.37,-231.64,16.59,2
2279,36.38,-169.13,-21.39,2
2280,36.4,-136.24,-4.74,2
2281,36.41,-176.18,35.73,2
2282,36.43,-123.5,-1.87,2
2283,36.44,-108.98,-14.11,2
2284,36.45,-124.28,-3.78,2
2285,36.47,-60.84,-32.42,2
2286,36.48,-37.21,-39.78,2
2287,36.49,-58.24,-10.39,2
2288,36.51,-2.63,-34.58,2
2289,36.52,18.88,-50.09,2
2290,36.53,-10.31,-23.48,2
2291,36.54,21.61,-62.43,2
2292,36.56,57.81,-49.63,1
2293,36.57,50.26,-37.1,1
2294,36.59,87.56,-51.13,1
2295,36.6,96.87,-40.78,1
2296,36.61,45.81,-31.67,1
2297,36.63,98.78,-31.18,1
2298,36.64,106.66,-38.36,1
2299,36.65,75.29,-39.1,1
2300,36.67,84.66,-53.35,1
2301,36.68,128.67,-52.48,1
2302,36.69,71.04,-27.93,1
2303,36.71,111.28,-41.1,1
2304,36.72,110.43,-37.05,1
2305,36.73,37.0,-22.06,1
2306,36.75,81.43,-39.46,1
2307,36.76,91.64,-33.7,1
2308,36.77,24.11,-0.7,1
2309,36.79,70.33,-8.55,1
2310,36.8,78.28,5.81,1
2311,36.81,5.68,18.74,1
2312,36.83,60.2,-0.49,1
2313,36.84,70.43,-28.36,1
2314,36.85,-0.66,2.71,1
2315,36.87,48.24,1.72,1
2316,36.88,45.48,-2.43,1
2317,36.89,-9.89,22.39,1
2318,36.9,20.12,11.15,1
2319,36.92,28.87,-10.58,1
2320,36.93,-25.25,11.48,1
2321,36.95,7.09,9.99,1
2322,36.96,3.66,10.24,1
2323,36.97,-48.71,15.25,1
2324,36.99,-4.26,14.83,1
2325,37.0,-6.51,-3.77,1
2326,37.01,-52.66,14.43,1
2327,37.03,-16.7,22.48,1
2328,37.04,-5.8,-5.72,1
2329,37.05,-68.7,33.96,1
2330,37.06,-17.3,27.18,1
2331,37.08,-6.37,2.03,1
2332,37.09,-70.0,26.19,1
2333,37.11,-20.69,28.26,1
2334,37.12,-23.26,9.63,1
2335,37.13,-67.41,15.33,1
2336,37.15,-36.83,31.92,1
2337,37.16,-10.92,-1.39,1
2338,37.17,-59.64,28.64,1
2339,37.19,-9.84,29.63,1
2340,37.2,-9.74,-6.22,1
2341,37.21,-76.85,21.04,1
2342,37.225,-16.59,25.12,1
2343,37.24,-3.81,-15.28,1
2344,37.25,-53.8,7.15,1
2345,37.27,-10.97,16.32,1
2346,37.28,11.56,-5.89,1
2347,37.29,-55.37,7.49,1
2348,37.31,-11.09,23.79,1
2349,37.32,5.17,-20.03,1
2350,37.33,-41.87,9.96,1
2351,37.35,7.87,27.84,1
2352,37.36,-1.1,-11.77,1
2353,37.37,-44.54,18.55,1
2354,37.39,13.02,12.74,1
2355,37.4,24.47,-26.02,1
2356,37.41,-45.73,12.34,1
2357,37.43,19.88,11.21,1
2358,37.44,12.01,-31.8,1
2359,37.45,-37.48,9.01,1
2360,37.47,26.45,25.86,1
2361,37.48,16.74,-20.81,1
2362,37.49,-29.6,-6.1,1
2363,37.51,14.79,20.18,1
2364,37.52,21.53,-24.64,1
2365,37.53,-28.04,-3.87,1
2366,37.54,23.63,13.45,1
2367,37.56,42.77,-39.61,1
2368,37.57,-33.27,-4.63,1
2369,37.59,21.23,14.69,1
2370,37.6,21.3,-32.79,1
2371,37.61,-34.88,13.83,1
2372,37.63,17.6,26.24,1
2373,37.64,27.46,-42.38,1
2374,37.65,-22.59,-11.26,1
2375,37.67,21.52,13.82,1
2376,37.68,27.62,-52.39,1
2377,37.69,-27.29,7.48,1
2378,37.71,26.17,31.28,1
2379,37.72,27.55,-31.42,1
2380,37.73,-35.84,0.58,1
2381,37.75,28.27,17.16,1
2382,37.76,28.11,-49.33,1
2383,37.77,-20.94,5.84,1
2384,37.79,25.67,29.17,1
2385,37.8,32.57,-54.81,1
2386,37.81,-15.54,2.57,1
2387,37.83,31.49,23.89,1
2388,37.84,26.26,-61.1,1
2389,37.85,-28.28,-8.49,1
2390,37.87,20.96,23.76,1
2391,37.88,14.19,-46.88,1
2392,37.89,-27.95,1.47,1
2393,37.91,16.7,48.03,1
2394,37.92,34.35,-42.14,1
2395,37.93,-32.17,12.43,1
2396,37.95,20.4,39.21,1
2397,37.96,17.19,-44.64,1
2398,37.97,-31.62,4.12,1
2399,37.99,20.0,35.69,1
2400,38.0,34.45,-45.9,1
2401,38.01,-43.35,12.2,1
2402,38.03,13.02,44.99,1
2403,38.04,-1.61,-37.8,1
2404,38.05,-32.28,32.87,1
2405,38.07,-1.25,45.62,1
2406,38.08,6.37,-40.4,1
2407,38.09,-40.57,6.83,1
2408,38.11,19.31,34.93,1
2409,38.12,17.36,-39.82,1
2410,38.13,-21.08,15.78,1
2411,38.15,13.35,31.63,1
2412,38.16,24.55,-10.45,0
2413,38.17,-18.17,28.51,0
2414,38.19,6.92,38.56,0
2415,38.2,-3.69,-10.72,0
2416,38.21,-80.86,25.2,0
2417,38.22,-99.84,61.39,0
2418,38.24,-147.79,-12.81,0
2419,38.25,-216.09,13.47,0
2420,38.27,-168.97,19.38,0
2421,38.28,-148.92,-92.0,0
2422,38.29,-140.74,-69.82,0
2423,38.31,-99.43,-44.54,0
2424,38.32,-42.28,-120.09,0
2425,38.33,-8.16,-37.69,0
2426,38.35,46.63,-5.6,0
2427,38.36,189.87,-47.53,0
2428,38.37,226.49,23.2,0
2429,38.38,320.12,46.47,0
2430,38.4,323.61,-26.94,0
2431,38.41,259.14,36.58,0
2432,38.43,269.46,62.41,0
2433,38.44,224.58,18.18,0
2434,38.45,149.18,65.68,0
2435,38.47,162.06,61.29,0
2436,38.48,131.29,-6.41,0
2437,38.49,51.63,57.09,0
2438,38.51,60.82,50.29,0
2439,38.52,29.4,-22.98,0
2440,38.53,-34.81,17.76,0
2441,38.55,-28.27,32.67,0
2442,38.56,-19.45,-43.08,1
2443,38.57,-92.41,9.01,1
2444,38.59,-57.78,36.52,1
2445,38.6,-65.82,-39.16,1
2446,38.61,-128.32,-12.32,1
2447,38.63,-113.73,10.14,1
2448,38.64,-126.39,-44.57,1
2449,38.65,-163.73,-10.3,1
2450,38.67,-106.29,9.8,1
2451,38.68,-79.52,-49.1,1
2452,38.69,-116.96,-11.04,1
2453,38.71,-90.01,27.59,1
2454,38.72,-70.76,-48.2,1
2455,38.73,-119.96,6.83,1
2456,38.75,-65.38,26.41,1
2457,38.76,-38.71,-41.42,1
2458,38.77,-75.39,3.61,1
2459,38.79,-47.64,27.89,1
2460,38.8,-33.45,-35.74,1
2461,38.81,-83.78,11.55,1
2462,38.83,-42.45,26.92,1
2463,38.84,-1.32,-39.2,1
2464,38.85,-46.15,10.05,1
2465,38.87,-20.06,35.91,1
2466,38.88,-10.96,-32.48,1
2467,38.89,-28.05,20.48,1
2468,38.9,-10.5,16.05,1
2469,38.92,2.22,-32.1,1
2470,38.93,-22.4,13.18,1
2471,38.95,3.26,27.51,1
2472,38.96,22.95,-30.77,1
2473,38.97,-11.65,17.1,1
2474,38.99,22.26,31.12,1
2475,39.0,38.02,-15.31,1
2476,39.01,1.75,0.66,1
2477,39.03,22.1,34.59,1
2478,39.04,45.93,-47.12,1
2479,39.05,0.1,-19.46,1
2480,39.06,27.69,21.75,1
2481,39.08,36.77,-30.3,1
2482,39.09,9.01,-11.04,1
2483,39.11,28.78,30.87,1
2484,39.12,50.63,-25.91,1
2485,39.13,14.91,-4.33,1
2486,39.15,39.15,13.72,1
2487,39.16,54.31,-44.09,1
2488,39.17,-10.07,-14.88,1
2489,39.19,21.49,15.82,1
2490,39.2,58.87,-42.81,1
2491,39.21,15.37,-7.3,1
2492,39.23,34.42,20.11,1
2493,39.24,36.98,-24.56,1
2494,39.25,12.97,-6.74,1
2495,39.27,35.97,28.81,1
2496,39.28,43.88,-49.54,1
2497,39.29,1.66,5.58,1
2498,39.31,31.48,14.6,1
2499,39.32,38.67,8.79,1
2500,39.33,12.03,21.82,1
2501,39.35,62.28,27.0,1
2502,39.36,70.43,-27.65,1
2503,39.37,-5.12,21.58,1
2504,39.39,8.04,30.68,1
2505,39.4,9.99,-18.35,1
2506,39.41,-24.78,-15.19,1
2507,39.43,-0.52,21.77,1
2508,39.44,1.31,-22.44,1
2509,39.45,-35.1,14.39,1
2510,39.47,-3.65,26.07,1
2511,39.48,2.84,-12.27,1
2512,39.49,-48.83,-2.41,1
2513,39.51,-6.73,31.36,1
2514,39.52,-1.48,-8.69,1
2515,39.53,-35.32,-0.75,1
2516,39.54,-13.68,14.06,1
2517,39.56,18.77,-7.82,1
2518,39.57,-27.8,16.75,1
2519,39.59,-2.35,25.43,1
2520,39.6,3.35,-18.25,1
2521,39.61,-17.44,-2.62,1
2522,39.63,2.47,24.54,1
2523,39.64,5.47,-13.15,1
2524,39.65,-4.09,-9.77,1
2525,39.67,0.64,8.38,1
2526,39.68,0.27,-4.43,1
2527,39.69,-33.75,-11.71,1
2528,39.71,-1.78,7.5,1
2529,39.72,5.09,-7.88,1
2530,39.73,-24.26,0.96,1
2531,39.75,-6.25,-3.77,1
2532,39.76,0.47,-2.51,1
2533,39.77,-29.92,-18.88,1
2534,39.79,-10.41,22.66,1
2535,39.8,18.42,-8.52,1
2536,39.81,-10.53,1.41,1
2537,39.83,-0.44,31.45,1
2538,39.84,12.57,-5.32,1
2539,39.85,-17.89,-21.35,1
2540,39.87,5.93,-8.99,1
2541,39.88,18.43,12.02,1
2542,39.89,-15.3,11.49,1
2543,39.91,-3.03,4.76,1
2544,39.92,19.36,-7.09,1
2545,39.93,-9.76,-2.81,1
2546,39.95,-7.42,15.99,1
2547,39.96,8.7,-3.12,1
2548,39.97,-19.02,-23.83,1
2549,39.99,-4.36,3.84,1
2550,40.0,-1.9,4.69,1
2551,40.01,-19.74,-8.4,1
2552,40.03,-3.99,17.57,1
2553,40.04,4.87,12.08,1
2554,40.05,-15.07,-20.69,1
2555,40.07,-10.79,-7.96,1
2556,40.08,8.18,-10.16,1
2557,40.09,-10.63,-26.55,1
2558,40.11,-0.17,9.77,1
2559,40.12,28.05,-14.36,1
2560,40.13,5.76,-8.37,1
2561,40.15,-4.65,26.09,1
2562,40.16,24.68,13.32,0
2563,40.17,-12.01,-30.8,0
2564,40.19,6.97,19.73,0
2565,40.2,19.0,18.77,0
2566,40.21,-14.61,-16.46,0
2567,40.22,10.3,-26.65,0
2568,40.24,-1.3,-4.42,0
2569,40.25,-72.32,-38.13,0
2570,40.27,-152.56,-42.02,0
2571,40.28,-211.14,-29.94,0
2572,40.29,-231.44,-38.82,0
2573,40.31,-201.47,-1.58,0
2574,40.32,-157.51,17.67,0
2575,40.33,-81.63,9.27,0
2576,40.35,-31.49,16.95,0
2577,40.36,48.42,31.82,0
2578,40.37,125.68,-0.1,0
2579,40.38,146.29,38.92,0
2580,40.4,190.0,62.25,0
2581,40.41,211.89,28.1,0
2582,40.43,217.05,41.49,0
2583,40.44,237.13,30.93,0
2584,40.45,188.32,-6.14,0
2585,40.47,174.1,7.8,0
2586,40.48,208.23,24.47,0
2587,40.49,153.63,-1.08,0
2588,40.51,141.66,22.12,0
2589,40.52,120.46,28.87,0
2590,40.53,93.9,-30.39,0
2591,40.55,46.72,23.11,0
2592,40.56,64.95,34.99,1
2593,40.57,26.1,-23.11,1
2594,40.59,14.35,10.04,1
2595,40.6,5.08,24.86,1
2596,40.61,-21.48,-34.82,1
2597,40.63,-59.81,-7.3,1
2598,40.64,-70.3,9.58,1
2599,40.65,-96.36,-31.96,1
2600,40.67,-100.27,-9.75,1
2601,40.68,-91.1,3.49,1
2602,40.69,-89.36,-25.69,1
2603,40.71,-106.9,3.12,1
2604,40.72,-87.54,-4.25,1
2605,40.73,-111.38,-66.25,1
2606,40.75,-99.58,-7.27,1
2607,40.76,-81.96,6.03,1
2608,40.77,-113.7,-44.11,1
2609,40.79,-106.94,-15.48,1
2610,40.8,-95.68,19.62,1
2611,40.81,-85.11,-19.92,1
2612,40.83,-95.18,13.72,1
2613,40.84,-75.22,5.92,1
2614,40.85,-70.9,-45.39,1
2615,40.87,-100.57,-1.14,1
2616,40.88,-80.46,12.03,1
2617,40.89,-58.32,-30.62,1
2618,40.9,-58.64,6.14,1
2619,40.92,-16.76,1.8,1
2620,40.93,-21.17,-58.03,1
2621,40.95,-15.9,-8.71,1
2622,40.96,8.24,18.32,1
2623,40.97,12.27,-51.85,1
2624,40.99,-9.23,6.04,1
2625,41.0,11.54,29.21,1
2626,41.01,19.25,-34.45,1
2627,41.03,0.44,8.89,1
2628,41.04,26.61,26.25,1
2629,41.05,34.72,-20.91,1
2630,41.06,12.76,5.58,1
2631,41.08,41.51,17.38,1
2632,41.09,46.5,-46.96,1
2633,41.11,22.84,19.85,1
2634,41.12,31.61,47.28,1
2635,41.13,42.37,-24.17,1
2636,41.15,35.78,22.48,1
2637,41.16,49.35,47.67,1
2638,41.17,50.98,-32.09,1
2639,41.19,27.04,3.24,1
2640,41.2,45.22,41.14,1
2641,41.21,19.77,-20.38,1
2642,41.23,0.96,12.34,1
2643,41.24,52.31,26.25,1
2644,41.25,42.41,-32.11,1
2645,41.27,24.17,10.74,1
2646,41.28,44.2,25.45,1
2647,41.29,51.92,-32.41,1
2648,41.31,14.14,27.37,1
2649,41.32,44.0,40.89,1
2650,41.33,47.17,-35.6,1
2651,41.35,15.13,-4.67,1
2652,41.36,41.73,46.03,1
2653,41.37,29.61,-40.53,1
2654,41.38,-10.56,-0.92,1
2655,41.4,23.76,38.74,1
2656,41.41,11.44,-25.79,1
2657,41.43,-2.8,22.65,1
2658,41.44,16.24,32.8,1
2659,41.45,15.27,-11.35,1
2660,41.47,-22.33,19.27,1
2661,41.48,10.53,44.29,1
2662,41.49,20.71,-49.3,1
2663,41.51,-23.87,29.4,1
2664,41.52,12.88,28.75,1
2665,41.53,4.18,-38.57,1
2666,41.54,-20.0,11.39,1
2667,41.56,19.98,33.12,1
2668,41.57,3.45,-31.24,1
2669,41.59,-44.06,-0.75,1
2670,41.6,4.78,-7.65,1
2671,41.61,2.42,-39.48,1
2672,41.63,-24.35,10.93,1
2673,41.64,-5.03,20.93,1
2674,41.65,-4.55,-40.79,1
2675,41.67,-28.28,15.38,1
2676,41.68,-1.57,27.13,1
2677,41.69,-9.77,-53.25,1
2678,41.71,-40.31,-5.98,1
2679,41.72,3.33,20.37,1
2680,41.73,-0.55,-23.32,1
2681,41.75,-28.38,-3.24,1
2682,41.76,0.13,23.9,1
2683,41.77,3.71,-32.98,1
2684,41.79,-32.06,18.55,1
2685,41.8,-9.24,31.81,1
2686,41.81,-1.42,-31.01,1
2687,41.83,-42.37,-9.34,1
2688,41.84,-6.48,22.57,1
2689,41.85,10.96,-22.71,1
2690,41.87,-28.64,7.27,1
2691,41.88,-5.28,21.6,1
2692,41.89,4.8,-42.11,1
2693,41.91,-30.88,-0.3,1
2694,41.92,-12.18,38.16,1
2695,41.93,-8.59,-38.86,1
2696,41.95,-16.08,0.62,1
2697,41.96,4.04,24.11,1
2698,41.97,22.38,-20.66,1
2699,41.99,-20.44,15.86,1
2700,42.0,-0.05,4.31,1
2701,42.01,7.74,-38.21,1
2702,42.03,-28.38,4.72,1
2703,42.04,8.56,32.59,1
2704,42.05,15.23,-53.91,1
2705,42.06,-54.61,7.93,1
2706,42.08,16.48,36.17,1
2707,42.09,2.23,-32.54,1
2708,42.11,-10.54,-10.08,1
2709,42.12,23.02,48.0,1
2710,42.13,21.54,-33.23,1
2711,42.15,-11.47,10.22,1
2712,42.16,11.7,19.72,2
2713,42.17,25.71,-30.47,2
2714,42.19,5.58,2.91,2
2715,42.2,14.35,17.89,2
2716,42.21,30.94,-35.75,2
2717,42.22,-3.66,21.35,2
2718,42.24,17.13,63.15,2
2719,42.25,102.04,14.79,2
2720,42.27,149.47,51.63,2
2721,42.28,232.25,65.95,2
2722,42.29,246.84,6.85,2
2723,42.31,192.02,6.81,2
2724,42.32,129.05,30.82,2
2725,42.33,96.86,-53.44,2
2726,42.35,46.18,-29.92,2
2727,42.36,-4.31,-42.27,2
2728,42.37,-22.85,-93.5,2
2729,42.38,-61.57,-69.94,2
2730,42.4,-147.48,-47.99,2
2731,42.41,-260.89,-81.37,2
2732,42.43,-339.47,-8.0,2
2733,42.44,-333.95,-1.6,2
2734,42.45,-306.14,-32.62,2
2735,42.47,-306.21,-12.64,2
2736,42.48,-252.16,17.62,2
2737,42.49,-195.97,-15.17,2
2738,42.51,-195.46,0.88,2
2739,42.52,-123.31,42.55,2
2740,42.53,-74.71,7.93,2
2741,42.55,-59.72,12.0,2
2742,42.56,36.88,26.5,1
2743,42.57,44.39,8.17,1
2744,42.59,13.92,19.5,1
2745,42.6,56.95,29.52,1
2746,42.61,69.71,-7.6,1
2747,42.63,33.26,18.85,1
2748,42.64,79.83,29.58,1
2749,42.65,106.32,0.94,1
2750,42.67,59.62,4.03,1
2751,42.68,113.63,43.16,1
2752,42.69,126.87,10.8,1
2753,42.71,83.57,18.04,1
2754,42.72,112.87,31.27,1
2755,42.73,111.38,-5.72,1
2756,42.75,80.27,16.53,1
2757,42.76,113.1,27.06,1
2758,42.77,135.34,-8.0,1
2759,42.79,79.8,-2.25,1
2760,42.8,118.75,19.42,1
2761,42.81,119.29,-17.02,1
2762,42.83,51.43,-1.5,1
2763,42.84,87.68,11.3,1
2764,42.85,95.22,0.48,1
2765,42.87,37.99,-13.08,1
2766,42.88,69.97,10.45,1
2767,42.89,74.06,0.24,1
2768,42.9,28.36,-20.51,1
2769,42.92,57.46,19.85,1
2770,42.93,43.93,0.62,1
2771,42.95,-5.49,-3.2,1
2772,42.96,20.55,5.86,1
2773,42.97,16.24,-36.98,1
2774,42.99,-29.72,-3.15,1
2775,43.0,11.86,13.33,1
2776,43.01,13.38,-0.14,1
2777,43.03,-49.31,-6.53,1
2778,43.04,-1.43,12.7,1
2779,43.05,-12.12,9.34,1
2780,43.06,-57.75,-17.89,1
2781,43.08,-19.34,-2.15,1
2782,43.09,-19.47,5.94,1
2783,43.11,-58.6,-10.35,1
2784,43.12,-23.29,-10.37,1
2785,43.13,-28.12,-12.38,1
2786,43.15,-74.38,-1.99,1
2787,43.16,-27.55,-9.1,1
2788,43.17,-27.84,-24.5,1
2789,43.19,-63.95,-9.66,1
2790,43.2,-29.65,30.52,1
2791,43.21,-26.05,5.35,1
2792,43.23,-85.21,-27.46,1
2793,43.24,-37.65,13.4,1
2794,43.25,-33.29,9.18,1
2795,43.27,-65.11,-7.43,1
2796,43.28,-29.78,5.99,1
2797,43.29,-13.37,14.42,1
2798,43.31,-80.96,-12.9,1
2799,43.32,-23.99,-14.73,1
2800,43.33,-16.43,-17.31,1
2801,43.35,-53.18,-21.63,1
2802,43.36,-8.32,23.76,1
2803,43.37,-1.03,5.22,1
2804,43.38,-51.87,-1.4,1
2805,43.4,-10.32,4.17,1
2806,43.41,8.97,-13.11,1
2807,43.43,-44.77,-30.81,1
2808,43.44,1.9,6.82,1
2809,43.45,11.91,4.37,1
2810,43.47,-17.26,-34.02,1
2811,43.48,22.9,0.91,1
2812,43.49,9.29,23.86,1
2813,43.51,-40.02,-13.51,1
2814,43.52,0.28,3.7,1
2815,43.53,6.72,12.7,1
2816,43.54,-25.8,-11.44,1
2817,43.56,25.96,7.53,1
2818,43.57,25.32,22.37,1
2819,43.59,-30.8,-13.94,1
2820,43.6,29.67,24.05,1
2821,43.61,41.87,43.95,1
2822,43.63,-10.81,-15.95,1
2823,43.64,34.73,-12.48,1
2824,43.65,18.76,33.57,1
2825,43.67,-29.33,-28.9,1
2826,43.68,20.22,-3.5,1
2827,43.69,31.67,9.06,1
2828,43.71,-11.24,-29.88,1
2829,43.72,32.01,12.09,1
2830,43.73,36.34,25.67,1
2831,43.75,-18.24,-38.23,1
2832,43.76,24.8,19.03,1
2833,43.77,34.55,22.42,1
2834,43.79,-19.76,-38.9,1
2835,43.8,40.26,7.63,1
2836,43.81,37.38,24.9,1
2837,43.83,-17.66,-44.29,1
2838,43.84,18.82,-0.02,1
2839,43.85,18.88,36.36,1
2840,43.87,-22.97,-26.2,1
2841,43.88,24.11,23.88,1
2842,43.89,25.77,18.6,1
2843,43.91,-30.6,-43.15,1
2844,43.92,13.31,6.26,1
2845,43.93,32.15,20.45,1
2846,43.95,-25.24,-31.55,1
2847,43.96,19.1,0.36,1
2848,43.97,22.1,23.99,1
2849,43.99,-22.92,-33.16,1
2850,44.0,14.84,12.17,1
2851,44.01,1.47,44.36,1
2852,44.03,-39.52,-35.68,1
2853,44.04,23.64,-4.82,1
2854,44.05,28.87,11.4,1
2855,44.06,-53.23,-34.07,1
2856,44.08,6.53,11.48,1
2857,44.09,21.66,29.94,1
2858,44.11,-30.84,-35.88,1
2859,44.12,10.75,15.89,1
2860,44.13,32.91,40.25,1
2861,44.15,-26.13,-2.69,1
2862,44.16,20.49,65.7,1
2863,44.17,23.72,107.06,1
2864,44.19,-40.2,276.06,1
2865,44.2,-11.01,289.45,1
2866,44.21,93.32,120.59,1
2867,44.22,-50.73,160.98,1
2868,44.24,-264.85,184.67,1
2869,44.25,-89.16,73.9,1
2870,44.27,0.79,45.0,1
2871,44.28,-196.52,-0.4,1
2872,44.29,-44.58,-58.04,1
2873,44.31,-105.95,-81.86,1
2874,44.32,-83.49,-97.71,1
2875,44.33,-161.33,-140.99,1
2876,44.35,-44.75,-147.18,1
2877,44.36,152.05,-147.72,1
2878,44.37,-35.68,-177.33,1
2879,44.38,5.45,-170.95,1
2880,44.4,53.98,-160.18,1
2881,44.41,8.3,-181.39,1
2882,44.43,91.89,-165.52,1
2883,44.44,130.57,-146.2,1
2884,44.45,382.95,-160.32,1
2885,44.47,198.1,-141.45,1
2886,44.48,327.61,-116.44,1
2887,44.49,557.21,-127.8,1
2888,44.51,45.24,-104.84,1
2889,44.52,62.4,-77.72,1
2890,44.53,137.11,-88.37,1
2891,44.55,-93.3,-90.65,1
2892,44.56,215.65,-224.69,1
2893,44.57,176.91,-464.4,1
2894,44.59,-142.07,-198.48,1
2895,44.6,78.42,95.31,1
2896,44.61,-252.92,-270.22,1
2897,44.63,-123.61,-329.3,1
2898,44.64,212.5,27.72,1
2899,44.65,-56.51,138.72,1
2900,44.67,-438.1,41.65,1
2901,44.68,-81.31,373.12,1
2902,44.69,-271.76,130.48,1
2903,44.71,-368.39,317.56,1
2904,44.72,-305.84,327.13,1
2905,44.73,-152.38,379.02,1
2906,44.75,30.06,68.6,1
2907,44.76,-136.7,142.03,1
2908,44.77,208.67,214.41,1
2909,44.79,47.87,-134.62,1
2910,44.8,-243.19,-129.07,1
2911,44.81,111.45,130.53,1
2912,44.83,118.28,85.84,1
2913,44.84,204.65,82.77,1
2914,44.85,-358.75,201.68,1
2915,44.87,-42.36,94.55,1
2916,44.88,146.41,69.4,1
2917,44.89,-11.97,398.47,1
2918,44.9,110.16,50.67,1
2919,44.92,-226.62,195.09,1
2920,44.93,98.3,275.45,1
2921,44.95,-247.72,41.2,1
2922,44.96,44.89,68.35,1
2923,44.97,-50.83,-13.42,1
2924,44.99,94.68,-168.6,1
2925,45.0,95.22,-96.91,1
2926,45.01,191.26,-89.48,1
2927,45.03,197.45,-40.74,1
2928,45.04,344.45,11.12,1
2929,45.05,316.41,18.8,1
2930,45.07,243.41,43.13,1
2931,45.08,177.18,78.52,1
2932,45.09,88.99,69.2,1
2933,45.11,-43.23,77.34,1
2934,45.12,-90.04,101.15,1
2935,45.13,-129.71,79.95,1
2936,45.15,-216.1,77.66,1
2937,45.16,-179.62,95.07,1
2938,45.17,-189.13,65.11,1
2939,45.19,-224.67,57.29,1
2940,45.2,-200.89,133.31,1
2941,45.21,-159.38,220.63,1
2942,45.22,-187.6,197.54,1
2943,45.24,-119.41,243.93,1
2944,45.25,-112.53,245.02,1
2945,45.27,-113.91,138.82,1
2946,45.28,-52.5,87.04,1
2947,45.29,-40.56,83.55,1
2948,45.31,-61.26,-49.26,1
2949,45.32,-25.53,-33.99,1
2950,45.33,-8.2,-64.62,1
2951,45.35,-19.72,-146.85,1
2952,45.36,5.93,-144.94,1
2953,45.37,33.39,-156.42,1
2954,45.38,-8.48,-242.68,1
2955,45.4,32.77,-219.21,1
2956,45.41,72.25,-233.81,1
2957,45.43,29.17,-281.39,1
2958,45.44,77.76,-271.25,1
2959,45.45,96.38,-239.71,1
2960,45.47,66.1,-297.2,1
2961,45.48,70.41,-259.09,1
2962,45.49,85.62,-232.33,1
2963,45.51,28.87,-260.74,1
2964,45.52,76.15,-224.42,1
2965,45.53,89.76,-189.95,1
2966,45.54,54.5,-231.58,1
2967,45.56,80.11,-181.34,1
2968,45.57,80.18,-121.15,1
2969,45.59,27.96,-140.81,1
2970,45.6,46.73,-135.35,1
2971,45.61,65.29,-86.62,1
2972,45.63,21.42,-109.66,1
2973,45.64,63.63,-68.45,1
2974,45.65,62.36,-42.28,1
2975,45.67,25.09,-41.63,1
2976,45.68,32.53,-4.66,1
2977,45.69,62.71,36.5,1
2978,45.71,9.88,5.02,1
2979,45.72,27.17,21.63,1
2980,45.73,38.33,63.52,1
2981,45.75,7.18,38.83,1
2982,45.76,11.18,80.39,1
2983,45.77,35.38,97.15,1
2984,45.79,-23.7,66.8,1
2985,45.8,1.74,99.56,1
2986,45.81,1.98,123.68,1
2987,45.83,-17.61,89.29,1
2988,45.84,0.12,117.43,1
2989,45.85,12.61,135.0,1
2990,45.87,-39.26,101.18,1
2991,45.88,-5.84,108.5,1
2992,45.89,11.01,126.55,1
2993,45.9,-21.03,128.73,1
2994,45.92,-23.22,97.73,1
2995,45.93,-15.77,107.97,1
2996,45.95,-55.43,94.06,1
2997,45.96,-41.24,99.36,1
2998,45.97,-2.44,117.86,1
2999,45.99,-34.71,77.45,1
3000,46.0,-9.67,76.27,1
3001,46.01,-4.48,101.45,1
3002,46.03,-37.86,60.41,1
3003,46.04,-13.85,60.25,1
3004,46.05,-17.17,79.7,1
3005,46.06,-66.37,46.31,1
3006,46.08,-20.42,48.93,1
3007,46.09,2.33,60.79,1
3008,46.11,-35.32,46.14,1
3009,46.12,-16.59,24.35,1
3010,46.13,-12.16,55.75,1
3011,46.15,-23.53,12.87,1
3012,46.16,-7.68,-38.01,2
3013,46.17,-0.17,26.51,2
3014,46.19,-24.82,-6.52,2
3015,46.2,8.87,-12.36,2
3016,46.21,94.72,25.75,2
3017,46.22,170.5,20.44,2
3018,46.24,207.43,-6.02,2
3019,46.25,197.75,-4.81,2
3020,46.27,166.83,-33.39,2
3021,46.28,77.12,-60.74,2
3022,46.29,28.37,-24.84,2
3023,46.31,-87.27,-48.09,2
3024,46.32,-138.7,-82.08,2
3025,46.33,-161.67,-46.85,2
3026,46.35,-196.7,-7.6,2
3027,46.36,-187.46,-20.21,2
3028,46.37,-197.21,2.55,2
3029,46.39,-197.75,-10.75,2
3030,46.4,-182.91,-31.0,2
3031,46.41,-145.14,-12.64,2
3032,46.43,-156.3,7.97,2
3033,46.44,-107.53,-34.47,2
3034,46.45,-58.93,14.84,2
3035,46.47,-74.66,22.89,2
3036,46.48,-71.44,-31.65,2
3037,46.49,-29.58,0.98,2
3038,46.51,-14.4,14.84,2
3039,46.52,-5.22,-43.77,2
3040,46.53,38.6,-13.53,2
3041,46.54,20.98,-20.24,2
3042,46.56,38.37,-47.57,1
3043,46.57,71.21,-21.34,1
3044,46.59,53.78,-12.28,1
3045,46.6,58.75,-48.63,1
3046,46.61,93.46,-25.71,1
3047,46.63,68.78,-7.01,1
3048,46.64,96.25,-40.04,1
3049,46.65,105.7,-26.04,1
3050,46.67,85.58,-3.96,1
3051,46.68,92.57,-64.57,1
3052,46.69,103.09,-28.94,1
3053,46.71,87.87,1.13,1
3054,46.72,77.77,-41.49,1
3055,46.73,78.09,-11.47,1
3056,46.75,50.84,-2.17,1
3057,46.76,47.86,-47.22,1
3058,46.77,58.78,-23.08,1
3059,46.79,51.61,4.11,1
3060,46.8,49.52,-56.14,1
3061,46.81,46.1,-11.71,1
3062,46.83,54.25,16.12,1
3063,46.84,13.73,-30.23,1
3064,46.85,51.45,8.05,1
3065,46.87,17.22,37.1,1
3066,46.88,16.86,-38.3,1
3067,46.89,21.71,7.6,1
3068,46.9,32.71,50.93,1
3069,46.92,3.69,-25.93,1
3070,46.93,8.81,12.55,1
3071,46.95,3.04,38.19,1
3072,46.96,-10.54,-32.31,1
3073,46.97,-5.97,30.29,1
3074,46.99,-20.13,31.23,1
3075,47.0,-40.69,-30.1,1
3076,47.01,1.72,24.5,1
3077,47.03,-13.84,55.8,1
3078,47.04,-29.22,-29.11,1
3079,47.05,-33.54,18.44,1
3080,47.07,-47.9,61.28,1
3081,47.08,-51.83,-22.2,1
3082,47.09,-42.63,18.73,1
3083,47.11,-39.42,60.3,1
3084,47.12,-50.13,-31.91,1
3085,47.13,-8.3,16.28,1
3086,47.15,-28.06,51.93,1
3087,47.16,-41.42,-23.77,1
3088,47.17,-26.9,6.14,1
3089,47.19,-36.07,47.73,1
3090,47.2,-45.2,-29.89,1
3091,47.21,-11.68,11.29,1
3092,47.22,-16.82,43.63,1
3093,47.24,-21.99,-41.43,1
3094,47.25,-16.53,18.26,1
3095,47.27,-15.96,52.6,1
3096,47.28,-42.29,-26.13,1
3097,47.29,-21.12,25.57,1
3098,47.31,-23.98,33.32,1
3099,47.32,-26.83,-39.06,1
3100,47.33,-1.53,14.61,1
3101,47.35,-0.71,36.06,1
3102,47.36,-32.75,-52.99,1
3103,47.37,3.77,14.14,1
3104,47.38,12.17,42.71,1
3105,47.4,-17.26,-45.04,1
3106,47.41,12.46,6.7,1
3107,47.43,4.14,37.14,1
3108,47.44,-24.61,-36.15,1
3109,47.45,0.76,9.67,1
3110,47.47,8.06,38.27,1
3111,47.48,-6.05,-59.53,1
3112,47.49,7.28,-8.55,1
3113,47.51,14.94,39.87,1
3114,47.52,-13.5,-61.44,1
3115,47.53,37.96,15.2,1
3116,47.54,25.83,36.28,1
3117,47.56,-15.13,-54.3,1
3118,47.57,12.68,1.87,1
3119,47.59,28.69,40.55,1
3120,47.6,9.01,-49.34,1
3121,47.61,5.11,-2.78,1
3122,47.63,25.9,37.6,1
3123,47.64,-0.92,-52.45,1
3124,47.65,14.24,10.56,1
3125,47.67,6.67,14.57,1
3126,47.68,-2.2,-61.97,1
3127,47.69,19.95,0.99,1
3128,47.71,0.83,35.74,1
3129,47.72,-0.77,-51.41,1
3130,47.73,12.01,-9.2,1
3131,47.75,30.94,37.14,1
3132,47.76,-16.66,-32.67,1
3133,47.77,20.88,12.45,1
3134,47.79,9.97,41.13,1
3135,47.8,-7.88,-61.88,1
3136,47.81,10.99,-7.39,1
3137,47.83,4.79,24.56,1
3138,47.84,-18.74,-56.95,1
3139,47.85,2.26,19.7,1
3140,47.87,4.01,43.57,1
3141,47.88,-3.12,-34.33,1
3142,47.89,16.16,-3.37,1
3143,47.9,20.34,26.47,1
3144,47.92,-24.07,-54.59,1
3145,47.93,24.13,19.73,1
3146,47.95,16.14,42.55,1
3147,47.96,-7.65,-48.36,1
3148,47.97,5.46,-2.37,1
3149,47.99,7.09,44.93,1
3150,48.0,-23.45,-23.24,1
3151,48.01,4.07,18.26,1
3152,48.03,14.56,49.44,1
3153,48.04,-26.79,-62.32,1
3154,48.05,10.36,-11.15,1
3155,48.06,-21.74,52.87,1
3156,48.08,-24.01,-36.83,1
3157,48.09,-3.43,14.2,1
3158,48.11,10.13,37.05,1
3159,48.12,1.78,-31.31,1
3160,48.13,16.24,5.07,1
3161,48.15,29.18,47.23,1
3162,48.16,-18.66,-22.2,0
3163,48.17,-2.13,5.39,0
3164,48.19,19.62,46.55,0
3165,48.2,-33.04,-66.02,0
3166,48.21,5.83,12.89,0
3167,48.22,16.78,37.24,0
3168,48.24,-13.44,-69.67,0
3169,48.25,13.17,12.1,0
3170,48.27,19.32,28.67,0
3171,48.28,-25.72,-47.39,0
3172,48.29,-10.35,35.31,0
3173,48.31,-13.64,51.36,0
3174,48.32,-86.76,-13.46,0
3175,48.33,-114.52,17.63,0
3176,48.35,-157.7,23.72,0
3177,48.36,-226.33,-56.01,0
3178,48.37,-212.77,-32.43,0
3179,48.39,-152.99,-28.6,0
3180,48.4,-131.56,-88.07,0
3181,48.41,-90.53,-13.02,0
3182,48.43,-32.23,12.4,0
3183,48.44,12.71,-33.36,0
3184,48.45,120.76,7.15,0
3185,48.47,259.15,39.93,0
3186,48.48,252.72,7.33,0
3187,48.49,297.25,23.31,0
3188,48.51,310.24,59.35,0
3189,48.52,264.71,-14.31,0
3190,48.53,246.21,49.37,0
3191,48.54,229.13,66.33,0
3192,48.56,146.67,-18.65,1
3193,48.57,143.57,20.0,1
3194,48.59,100.41,29.51,1
3195,48.6,-29.02,-20.69,1
3196,48.61,-19.58,2.66,1
3197,48.63,1.69,29.56,1
3198,48.64,-27.76,-36.18,1
3199,48.65,-9.56,-7.71,1
3200,48.67,-1.01,22.7,1
3201,48.68,-54.8,-31.56,1
3202,48.69,-38.96,-10.91,1
3203,48.71,-50.75,13.66,1
3204,48.72,-85.52,-36.78,1
3205,48.73,-68.77,-4.6,1
3206,48.75,-56.86,13.68,1
3207,48.76,-103.92,-26.63,1
3208,48.77,-76.5,-12.46,1
3209,48.79,-71.46,-5.18,1
3210,48.8,-113.37,-34.14,1
3211,48.81,-83.73,-13.35,1
3212,48.83,-61.63,13.5,1
3213,48.84,-111.15,-8.38,1
3214,48.85,-81.65,-11.25,1
3215,48.87,-69.48,23.19,1
3216,48.88,-107.97,-12.53,1
3217,48.89,-65.88,-12.04,1
3218,48.9,-65.55,5.43,1
3219,48.92,-118.14,-7.52,1
3220,48.93,-65.53,-10.93,1
3221,48.95,-37.79,32.97,1
3222,48.96,-72.05,-4.79,1
3223,48.97,-20.82,-15.06,1
3224,48.99,-19.5,17.22,1
3225,49.0,-56.42,-8.19,1
3226,49.01,-6.01,-29.83,1
3227,49.03,-0.07,23.05,1
3228,49.04,-25.76,-9.52,1
3229,49.05,11.99,-9.25,1
3230,49.06,24.75,17.04,1
3231,49.08,-27.65,5.56,1
3232,49.09,21.3,0.37,1
3233,49.11,24.61,14.13,1
3234,49.12,2.5,-2.44,1
3235,49.13,37.96,1.96,1
3236,49.15,53.14,14.48,1
3237,49.16,5.21,-0.59,1
3238,49.17,46.79,-7.68,1
3239,49.19,56.83,21.73,1
3240,49.2,2.56,2.82,1
3241,49.21,49.36,-19.03,1
3242,49.22,47.77,13.91,1
3243,49.24,1.39,-1.51,1
3244,49.25,50.33,-11.08,1
3245,49.27,55.48,-2.36,1
3246,49.28,21.41,21.88,1
3247,49.29,41.09,-10.8,1
3248,49.31,59.01,-4.09,1
3249,49.32,9.12,-8.39,1
3250,49.33,19.71,-11.38,1
3251,49.35,57.04,2.32,1
3252,49.36,-2.83,11.13,1
3253,49.37,43.39,-9.33,1
3254,49.38,63.21,18.04,1
3255,49.4,-4.27,7.2,1
3256,49.41,35.8,-15.68,1
3257,49.43,35.59,11.52,1
3258,49.44,-15.7,13.49,1
3259,49.45,20.57,-3.81,1
3260,49.47,21.27,7.76,1
3261,49.48,-13.86,16.88,1
3262,49.49,17.51,-15.59,1
3263,49.51,33.78,12.35,1
3264,49.52,-29.7,-5.34,1
3265,49.53,15.09,-19.67,1
3266,49.54,34.78,9.46,1
3267,49.56,-32.98,13.74,1
3268,49.57,21.22,-20.04,1
3269,49.59,11.17,24.74,1
3270,49.6,-44.85,6.99,1
3271,49.61,16.18,-9.53,1
3272,49.63,14.71,10.62,1
3273,49.64,-51.63,12.8,1
3274,49.65,2.14,-20.59,1
3275,49.67,22.61,4.0,1
3276,49.68,-50.26,4.77,1
3277,49.69,14.41,-32.1,1
3278,49.71,25.67,-3.17,1
3279,49.72,-35.31,3.68,1
3280,49.73,-2.14,-18.37,1
3281,49.75,7.04,4.63,1
3282,49.76,-30.86,21.92,1
3283,49.77,-1.47,-21.17,1
3284,49.79,4.47,4.97,1
3285,49.8,-45.81,19.32,1
3286,49.81,-6.91,-32.37,1
3287,49.83,9.31,7.24,1
3288,49.84,-47.66,36.02,1
3289,49.85,-0.3,-24.66,1
3290,49.87,6.21,11.15,1
3291,49.88,-38.8,33.16,1
3292,49.89,-7.82,-37.91,1
3293,49.9,-0.0,3.99,1
3294,49.92,-37.2,19.67,1
3295,49.93,18.43,-39.57,1
3296,49.95,12.87,4.74,1
3297,49.96,-27.39,23.03,1
3298,49.97,10.19,-47.31,1
3299,49.99,17.06,-8.31,1
3300,50.0,-41.65,24.86,1
3301,50.01,-8.57,-49.14,1
3302,50.03,15.98,-2.09,1
3303,50.04,-35.98,27.15,1
3304,50.05,22.13,-34.48,1
3305,50.06,28.38,25.91,1
3306,50.08,-56.19,30.31,1
3307,50.09,15.16,-48.92,1
3308,50.11,4.82,-4.78,1
3309,50.12,-36.45,48.9,1
3310,50.13,18.8,-26.65,1
3311,50.15,27.25,12.21,1
3312,50.16,-24.91,34.0,0
3313,50.17,24.84,-26.65,0
3314,50.19,34.63,19.6,0
3315,50.2,-35.28,31.1,0
3316,50.21,36.92,-21.34,0
3317,50.22,16.37,18.78,0
3318,50.24,-24.2,73.45,0
3319,50.25,-22.2,-5.13,0
3320,50.27,-108.11,60.06,0
3321,50.28,-253.04,63.97,0
3322,50.29,-221.61,-82.57,0
3323,50.31,-187.93,-69.35,0
3324,50.32,-145.42,-55.29,0
3325,50.33,-91.99,-167.98,0
3326,50.35,8.44,-91.15,0
3327,50.36,9.19,-4.85,0
3328,50.37,122.28,-93.3,0
3329,50.38,185.09,-13.25,0
3330,50.4,143.29,47.56,0
3331,50.41,224.34,-39.27,0
3332,50.43,227.57,35.73,0
3333,50.44,159.76,57.46,0
3334,50.45,234.73,13.99,0
3335,50.47,196.58,42.57,0
3336,50.48,141.39,71.73,0
3337,50.49,163.91,28.15,0
3338,50.51,142.93,52.29,0
3339,50.52,60.62,90.6,0
3340,50.53,82.57,34.53,0
3341,50.54,75.95,60.02,0
3342,50.56,-5.14,66.85,1
3343,50.57,24.79,-13.1,1
3344,50.59,20.63,52.66,1
3345,50.6,-51.73,60.76,1
3346,50.61,-17.87,-15.75,1
3347,50.63,-3.59,19.36,1
3348,50.64,-84.86,42.21,1
3349,50.65,-65.43,-39.71,1
3350,50.67,-72.07,-2.0,1
3351,50.68,-115.23,23.35,1
3352,50.69,-59.63,-66.65,1
3353,50.71,-69.64,3.86,1
3354,50.72,-121.53,27.75,1
3355,50.73,-72.4,-54.68,1
3356,50.75,-86.55,-26.91,1
3357,50.76,-129.94,11.88,1
3358,50.77,-80.62,-64.64,1
3359,50.79,-87.19,-11.64,1
3360,50.8,-114.45,8.14,1
3361,50.81,-80.17,-68.72,1
3362,50.83,-71.68,-13.78,1
3363,50.84,-101.97,-5.54,1
3364,50.85,-52.79,-77.07,1
3365,50.87,-43.78,-36.38,1
3366,50.88,-82.11,8.16,1
3367,50.89,-30.16,-54.85,1
3368,50.91,-22.05,-1.17,1
3369,50.92,-59.19,32.76,1
3370,50.93,-19.36,-61.77,1
3371,50.95,-3.18,-4.55,1
3372,50.96,-37.63,21.82,1
3373,50.97,1.34,-35.69,1
3374,50.99,13.16,-10.44,1
3375,51.0,-41.97,25.4,1
3376,51.01,14.15,-41.29,1
3377,51.03,37.05,39.82,1
3378,51.04,-3.48,5.44,1
3379,51.05,32.98,-61.69,1
3380,51.06,36.4,1.48,1
3381,51.08,-4.18,19.87,1
3382,51.09,34.01,-50.27,1
3383,51.11,58.81,21.33,1
3384,51.12,14.54,33.74,1
3385,51.13,21.32,-47.08,1
3386,51.15,48.49,30.55,1
3387,51.16,5.37,29.82,1
3388,51.17,52.95,-38.02,1
3389,51.19,55.35,21.86,1
3390,51.2,16.09,29.72,1
3391,51.21,48.29,-26.05,1
3392,51.22,54.45,23.25,1
3393,51.24,12.96,55.2,1
3394,51.25,47.84,4.86,1
3395,51.27,53.8,20.38,1
3396,51.28,3.15,27.9,1
3397,51.29,35.1,-39.99,1
3398,51.31,59.79,15.93,1
3399,51.32,-9.92,29.3,1
3400,51.33,14.61,-42.86,1
3401,51.35,25.98,9.3,1
3402,51.36,-1.39,26.7,1
3403,51.37,32.81,-23.7,1
3404,51.38,47.52,16.28,1
3405,51.4,5.15,55.79,1
3406,51.41,28.54,-28.15,1
3407,51.43,51.53,12.79,1
3408,51.44,-8.8,35.69,1
3409,51.45,48.11,-42.97,1
3410,51.47,33.19,15.31,1
3411,51.48,-9.63,41.29,1
3412,51.49,11.25,-35.16,1
3413,51.51,37.04,16.13,1
3414,51.52,-21.83,43.32,1
3415,51.53,20.93,-32.76,1
3416,51.55,21.21,-4.54,1
3417,51.56,-19.58,14.89,1
3418,51.57,-5.88,-27.41,1
3419,51.59,-7.19,15.36,1
3420,51.6,-55.15,33.47,1
3421,51.61,-18.63,-4.92,1
3422,51.63,-9.85,12.19,1
3423,51.64,-40.22,34.75,1
3424,51.65,-13.47,-33.19,1
3425,51.67,-11.61,7.89,1
3426,51.68,-34.82,19.99,1
3427,51.69,-0.82,-16.97,1
3428,51.71,-3.18,-12.16,1
3429,51.72,-30.43,22.04,1
3430,51.73,-12.07,-19.73,1
3431,51.75,-15.15,-26.99,1
3432,51.76,-35.6,3.4,1
3433,51.77,-15.9,-20.9,1
3434,51.79,-5.99,-9.66,1
3435,51.8,-23.86,-3.72,1
3436,51.81,-6.8,-44.22,1
3437,51.83,5.76,-3.7,1
3438,51.84,-29.96,27.56,1
3439,51.85,-5.18,-38.55,1
3440,51.87,15.41,-2.85,1
3441,51.88,-35.61,45.02,1
3442,51.89,-11.71,-2.94,1
3443,51.9,-0.33,-5.77,1
3444,51.92,-30.07,32.19,1
3445,51.93,2.0,-10.93,1
3446,51.95,2.36,13.15,1
3447,51.96,-8.67,18.13,1
3448,51.97,0.14,-13.21,1
3449,51.99,26.55,-11.81,1
3450,52.0,-22.15,-12.37,1
3451,52.01,2.58,-45.81,1
3452,52.03,21.48,11.06,1
3453,52.04,-16.06,13.24,1
3454,52.05,-10.27,-19.1,1
3455,52.06,17.11,-17.52,1
3456,52.08,-34.43,3.5,1
3457,52.09,10.52,2.23,1
3458,52.11,14.71,-23.38,1
3459,52.12,-8.5,-9.3,1
3460,52.13,11.22,20.36,1
3461,52.15,15.27,-1.33,1
3462,52.16,6.46,24.63,2
3463,52.17,6.34,-24.39,2
3464,52.19,28.06,20.44,2
3465,52.2,-15.3,18.45,2
3466,52.21,16.65,-2.93,2
3467,52.23,11.76,8.79,2
3468,52.24,-5.95,52.92,2
3469,52.25,92.0,58.31,2
3470,52.27,168.35,12.87,2
3471,52.28,189.66,41.85,2
3472,52.29,206.84,3.68,2
3473,52.31,197.69,-24.27,2
3474,52.32,164.27,-18.36,2
3475,52.33,99.9,-8.17,2
3476,52.35,50.47,-41.3,2
3477,52.36,31.8,-33.76,2
3478,52.37,-22.76,-55.69,2
3479,52.38,-55.93,-51.68,2
3480,52.4,-77.78,-45.46,2
3481,52.41,-236.38,-37.29,2
3482,52.43,-278.6,-47.25,2
3483,52.44,-325.69,-5.26,2
3484,52.45,-323.29,-22.45,2
3485,52.47,-300.16,-33.11,2
3486,52.48,-298.55,4.55,2
3487,52.49,-230.04,0.02,2
3488,52.51,-172.09,-22.77,2
3489,52.52,-159.82,23.34,2
3490,52.53,-114.44,47.89,2
3491,52.54,-72.32,9.85,2
3492,52.56,-58.84,27.14,1
3493,52.57,27.87,12.05,1
3494,52.59,62.86,26.63,1
3495,52.6,39.07,37.28,1
3496,52.61,52.52,28.94,1
3497,52.63,84.17,-24.98,1
3498,52.64,71.9,31.77,1
3499,52.65,99.68,43.51,1
3500,52.67,114.0,7.45,1
3501,52.68,98.59,23.54,1
3502,52.69,108.43,26.59,1
3503,52.71,121.48,-10.86,1
3504,52.72,107.98,0.31,1
3505,52.73,109.31,18.82,1
3506,52.75,132.16,-2.43,1
3507,52.76,112.99,18.15,1
3508,52.77,120.15,10.83,1
3509,52.79,116.78,-9.95,1
3510,52.8,94.45,40.32,1
3511,52.81,91.39,19.11,1
3512,52.83,103.5,-40.37,1
3513,52.84,61.41,2.95,1
3514,52.85,67.47,19.88,1
3515,52.87,67.45,-25.69,1
3516,52.88,61.31,-12.63,1
3517,52.89,67.25,31.28,1
3518,52.9,58.41,-9.31,1
3519,52.92,28.66,-1.8,1
3520,52.93,16.27,13.8,1
3521,52.95,39.12,-34.12,1
3522,52.96,5.03,10.44,1
3523,52.97,-2.2,26.84,1
3524,52.99,4.46,-47.48,1
3525,53.0,-9.93,6.33,1
3526,53.01,-15.87,29.82,1
3527,53.03,-6.37,-62.98,1
3528,53.04,-17.85,-0.54,1
3529,53.05,-23.38,17.2,1
3530,53.06,-19.42,-35.01,1
3531,53.08,-43.86,-7.29,1
3532,53.09,-44.29,33.95,1
3533,53.11,-34.69,-31.44,1
3534,53.12,-48.68,0.89,1
3535,53.13,-48.72,1.15,1
3536,53.15,-38.25,-35.66,1
3537,53.16,-44.28,17.19,1
3538,53.17,-40.58,8.34,1
3539,53.19,-34.94,-57.17,1
3540,53.2,-41.18,22.54,1
3541,53.21,-55.71,37.85,1
3542,53.22,-37.41,-42.69,1
3543,53.24,-45.77,1.5,1
3544,53.25,-48.32,25.75,1
3545,53.27,-22.54,-31.93,1
3546,53.28,-40.32,-17.96,1
3547,53.29,-47.15,22.37,1
3548,53.31,-24.52,-30.51,1
3549,53.32,-36.3,-6.23,1
3550,53.33,-38.0,19.61,1
3551,53.35,-25.93,-24.71,1
3552,53.36,-25.99,32.88,1
3553,53.37,-32.96,50.45,1
3554,53.38,-14.61,-46.51,1
3555,53.4,-15.55,12.68,1
3556,53.41,-30.02,37.38,1
3557,53.43,-2.97,-43.71,1
3558,53.44,-14.12,-15.85,1
3559,53.45,-20.76,31.6,1
3560,53.47,-1.4,-39.09,1
3561,53.48,10.91,7.04,1
3562,53.49,-26.0,34.9,1
3563,53.51,4.33,-31.45,1
3564,53.52,4.63,11.78,1
3565,53.53,-8.44,31.78,1
3566,53.54,20.79,-35.88,1
3567,53.56,24.18,9.63,1
3568,53.57,4.85,36.65,1
3569,53.59,12.26,-58.12,1
3570,53.6,13.01,17.56,1
3571,53.61,-5.23,50.89,1
3572,53.63,28.18,-44.97,1
3573,53.64,19.37,-0.56,1
3574,53.65,3.71,40.83,1
3575,53.67,25.24,-45.1,1
3576,53.68,15.43,1.72,1
3577,53.69,-0.93,12.56,1
3578,53.71,19.77,-20.57,1
3579,53.72,12.86,12.58,1
3580,53.73,-0.75,31.69,1
3581,53.75,14.43,-47.98,1
3582,53.76,20.93,19.86,1
3583,53.77,-5.94,58.88,1
3584,53.79,15.25,-39.83,1
3585,53.8,20.04,6.97,1
3586,53.81,4.48,49.3,1
3587,53.83,33.8,-42.57,1
3588,53.84,20.24,13.13,1
3589,53.85,6.78,24.76,1
3590,53.87,18.63,-48.57,1
3591,53.88,16.27,1.37,1
3592,53.89,-10.96,9.79,1
3593,53.9,27.27,-43.57,1
3594,53.92,8.06,-2.78,1
3595,53.93,-8.93,26.26,1
3596,53.95,14.9,-56.14,1
3597,53.96,1.5,4.02,1
3598,53.97,-17.01,55.19,1
3599,53.99,3.6,-64.29,1
3600,54.0,25.13,9.59,1
3601,54.01,-24.37,41.71,1
3602,54.03,1.77,-35.47,1
3603,54.04,7.23,20.91,1
3604,54.05,-25.18,65.89,1
3605,54.06,-13.63,-27.63,1
3606,54.08,-2.62,-9.76,1
3607,54.09,-31.52,17.38,1
3608,54.11,4.18,-68.26,1
3609,54.12,15.45,-6.31,1
3610,54.13,-23.39,63.13,1
3611,54.15,22.32,-22.82,1
3612,54.16,32.75,65.64,1
3613,54.17,-9.37,163.96,1
3614,54.19,22.66,171.68,1
3615,54.2,21.24,204.45,1
3616,54.21,15.63,159.38,1
3617,54.22,315.55,128.1,1
3618,54.24,-95.95,265.52,1
3619,54.25,-388.4,111.76,1
3620,54.27,-328.04,87.46,1
3621,54.28,-272.72,38.12,1
3622,54.29,-191.9,-26.63,1
3623,54.31,-62.13,-62.69,1
3624,54.32,-149.69,-75.87,1
3625,54.33,-61.55,-125.75,1
3626,54.35,-54.83,-142.63,1
3627,54.36,14.82,-139.07,1
3628,54.37,32.26,-173.03,1
3629,54.38,56.09,-176.72,1
3630,54.4,107.05,-160.15,1
3631,54.41,127.73,-184.07,1
3632,54.43,296.52,-177.09,1
3633,54.44,244.68,-152.45,1
3634,54.45,150.95,-168.88,1
3635,54.47,372.07,-155.86,1
3636,54.48,16.0,-126.21,1
3637,54.49,334.81,-137.75,1
3638,54.51,219.21,-121.22,1
3639,54.52,235.57,-89.43,1
3640,54.53,-11.91,-100.23,1
3641,54.54,554.57,-80.58,1
3642,54.56,-170.3,-59.61,1
3643,54.57,-126.03,-210.18,1
3644,54.59,-54.22,-418.07,1
3645,54.6,-52.91,-396.6,1
3646,54.61,19.89,-51.44,1
3647,54.63,198.49,137.01,1
3648,54.64,-240.16,-281.21,1
3649,54.65,-189.85,-227.56,1
3650,54.67,89.12,15.2,1
3651,54.68,-29.38,211.3,1
3652,54.69,357.51,341.33,1
3653,54.71,-344.6,-47.08,1
3654,54.72,385.09,-55.61,1
3655,54.73,-511.41,456.35,1
3656,54.75,-195.99,186.41,1
3657,54.76,221.5,371.74,1
3658,54.77,-454.16,-32.62,1
3659,54.79,31.1,167.69,1
3660,54.8,-311.88,688.34,1
3661,54.81,380.19,276.41,1
3662,54.83,-188.38,-6.66,1
3663,54.84,-149.91,414.79,1
3664,54.85,-359.22,407.98,1
3665,54.87,153.81,366.91,1
3666,54.88,63.52,122.83,1
3667,54.89,-131.33,52.75,1
3668,54.9,-389.35,-276.16,1
3669,54.92,-192.86,148.56,1
3670,54.93,-263.36,-155.09,1
3671,54.95,191.57,83.98,1
3672,54.96,-354.55,32.8,1
3673,54.97,37.44,39.27,1
3674,54.99,-79.93,-172.73,1
3675,55.0,75.46,-272.16,1
3676,55.01,-60.15,-194.7,1
3677,55.03,118.05,-164.0,1
3678,55.04,140.92,-72.34,1
3679,55.05,242.5,-52.73,1
3680,55.06,343.18,-17.41,1
3681,55.08,313.28,39.04,1
3682,55.09,254.91,43.68,1
3683,55.11,176.54,56.61,1
3684,55.12,101.05,97.2,1
3685,55.13,-50.13,86.88,1
3686,55.15,-75.16,86.02,1
3687,55.16,-99.37,113.71,1
3688,55.17,-200.46,93.86,1
3689,55.19,-159.74,83.29,1
3690,55.2,-160.02,106.58,1
3691,55.21,-224.67,137.85,1
3692,55.22,-124.9,238.38,1
3693,55.24,-123.87,248.88,1
3694,55.25,-131.17,290.66,1
3695,55.27,-111.31,215.83,1
3696,55.28,-40.37,211.57,1
3697,55.29,-109.1,171.38,1
3698,55.31,-36.63,72.46,1
3699,55.32,-5.89,3.29,1
3700,55.33,-44.51,-29.09,1
3701,55.35,-2.21,-70.79,1
3702,55.36,65.33,-110.3,1
3703,55.37,14.73,-126.1,1
3704,55.38,78.66,-148.58,1
3705,55.4,89.36,-222.41,1
3706,55.41,42.87,-211.05,1
3707,55.43,92.31,-235.51,1
3708,55.44,69.98,-230.71,1
3709,55.45,60.98,-218.4,1
3710,55.47,88.35,-220.84,1
3711,55.48,99.16,-262.38,1
3712,55.49,25.23,-242.12,1
3713,55.51,94.14,-244.24,1
3714,55.52,96.25,-252.57,1
3715,55.53,82.48,-220.98,1
3716,55.54,109.36,-197.32,1
3717,55.56,91.61,-209.15,1
3718,55.57,46.09,-178.14,1
3719,55.59,59.55,-141.84,1
3720,55.6,53.01,-150.95,1
3721,55.61,21.37,-111.75,1
3722,55.63,61.64,-105.06,1
3723,55.64,52.4,-103.88,1
3724,55.65,5.92,-65.19,1
3725,55.67,38.63,-54.45,1
3726,55.68,47.08,-70.45,1
3727,55.69,-18.66,-13.27,1
3728,55.71,34.49,17.08,1
3729,55.72,24.89,-28.27,1
3730,55.73,-3.42,50.59,1
3731,55.75,18.38,64.01,1
3732,55.76,24.0,28.62,1
3733,55.77,-61.23,49.03,1
3734,55.79,4.52,85.03,1
3735,55.8,12.62,67.84,1
3736,55.81,-26.03,86.97,1
3737,55.83,-1.63,106.23,1
3738,55.84,19.97,66.04,1
3739,55.85,-69.03,100.61,1
3740,55.87,0.87,118.17,1
3741,55.88,-1.72,74.94,1
3742,55.89,-38.68,123.08,1
3743,55.9,-12.56,122.23,1
3744,55.92,4.22,74.43,1
3745,55.93,-55.72,109.87,1
3746,55.95,-10.63,139.87,1
3747,55.96,-6.96,86.65,1
3748,55.97,-59.69,105.11,1
3749,55.99,-12.76,97.37,1
3750,56.0,-10.99,56.41,1
3751,56.01,-61.27,88.7,1
3752,56.03,-6.83,89.96,1
3753,56.04,-11.07,38.51,1
3754,56.05,-56.13,80.51,1
3755,56.06,-21.29,111.47,1
3756,56.08,-38.82,22.43,1
3757,56.09,-70.14,52.01,1
3758,56.11,-0.77,73.27,1
3759,56.12,1.81,-3.9,1
3760,56.13,-52.08,48.33,1
3761,56.15,9.99,65.46,1
3762,56.16,25.05,-13.48,2
3763,56.17,-25.47,18.12,2
3764,56.19,4.0,38.8,2
3765,56.2,-0.12,-36.14,2
3766,56.21,-37.62,20.83,2
3767,56.22,-2.71,35.76,2
3768,56.24,63.49,-56.55,2
3769,56.25,70.32,-2.48,2
3770,56.27,194.63,14.2,2
3771,56.28,232.19,-41.28,2
3772,56.29,150.71,-31.14,2
3773,56.31,150.39,7.78,2
3774,56.32,72.5,-56.14,2
3775,56.33,-56.67,-11.43,2
3776,56.35,-63.67,9.77,2
3777,56.36,-107.96,-64.54,2
3778,56.37,-188.4,10.3,2
3779,56.38,-168.56,40.37,2
3780,56.4,-180.46,-54.24,2
3781,56.41,-236.55,-3.48,2
3782,56.43,-156.47,15.26,2
3783,56.44,-154.23,-61.0,2
3784,56.45,-170.35,-9.72,2
3785,56.47,-112.09,12.64,2
3786,56.48,-78.16,-63.24,2
3787,56.49,-114.71,-12.0,2
3788,56.51,-53.08,8.79,2
3789,56.52,-35.21,-60.97,2
3790,56.53,-57.64,-27.05,2
3791,56.54,-5.96,21.87,2
3792,56.56,32.55,-74.36,1
3793,56.57,-18.35,-24.41,1
3794,56.59,30.38,21.49,1
3795,56.6,77.58,-81.43,1
3796,56.61,14.86,-22.07,1
3797,56.63,83.05,20.35,1
3798,56.64,96.87,-77.83,1
3799,56.65,48.82,-25.21,1
3800,56.67,103.82,-4.47,1
3801,56.68,126.6,-67.13,1
3802,56.69,45.2,-14.97,1
3803,56.71,109.09,21.07,1
3804,56.72,109.15,-69.9,1
3805,56.73,71.07,-36.42,1
3806,56.75,89.7,17.79,1
3807,56.76,115.82,-74.25,1
3808,56.77,51.16,-4.37,1
3809,56.79,76.5,19.14,1
3810,56.8,86.67,-46.54,1
3811,56.81,17.24,0.99,1
3812,56.83,57.25,53.4,1
3813,56.84,56.11,-34.09,1
3814,56.85,-3.23,14.61,1
3815,56.87,62.96,41.39,1
3816,56.88,54.28,-66.64,1
3817,56.89,-6.0,14.77,1
3818,56.9,28.43,48.59,1
3819,56.92,34.67,-39.9,1
3820,56.93,-3.12,9.89,1
3821,56.95,20.58,57.84,1
3822,56.96,34.24,-43.76,1
3823,56.97,-35.27,24.17,1
3824,56.99,11.38,52.7,1
3825,57.0,17.12,-28.06,1
3826,57.01,-45.86,5.82,1
3827,57.03,12.98,38.25,1
3828,57.04,-5.18,-33.52,1
3829,57.05,-55.98,15.65,1
3830,57.06,-26.84,49.75,1
3831,57.08,-16.65,-48.1,1
3832,57.09,-37.69,30.2,1
3833,57.11,-15.32,78.96,1
3834,57.12,-13.03,-22.71,1
3835,57.13,-72.74,16.54,1
3836,57.15,-25.63,56.21,1
3837,57.16,-26.25,-39.99,1
3838,57.17,-55.45,-8.81,1
3839,57.19,-36.09,52.94,1
3840,57.2,-14.49,-47.02,1
3841,57.21,-77.53,28.9,1
3842,57.22,0.43,52.13,1
3843,57.24,-9.01,-33.17,1
3844,57.25,-53.06,20.09,1
3845,57.27,-5.28,44.74,1
3846,57.28,-18.27,-27.7,1
3847,57.29,-63.76,28.0,1
3848,57.31,-20.16,59.03,1
3849,57.32,-3.97,-37.18,1
3850,57.33,-69.94,18.92,1
3851,57.35,-16.12,40.57,1
3852,57.36,3.61,-32.67,1
3853,57.37,-35.56,12.65,1
3854,57.38,10.55,51.79,1
3855,57.4,3.54,-39.59,1
3856,57.41,-48.97,21.17,1
3857,57.43,9.43,37.12,1
3858,57.44,10.28,-31.18,1
3859,57.45,-30.41,-5.06,1
3860,57.47,21.63,15.41,1
3861,57.48,18.23,-53.59,1
3862,57.49,-6.84,-7.2,1
3863,57.51,24.76,24.05,1
3864,57.52,30.29,-48.02,1
3865,57.53,-15.82,-15.48,1
3866,57.54,28.59,38.1,1
3867,57.56,12.0,-43.35,1
3868,57.57,-27.25,-1.0,1
3869,57.59,12.33,34.12,1
3870,57.6,18.98,-60.77,1
3871,57.61,-20.01,2.78,1
3872,57.63,22.87,35.9,1
3873,57.64,22.62,-57.27,1
3874,57.65,-11.79,-12.8,1
3875,57.67,8.55,30.08,1
3876,57.68,32.71,-28.74,1
3877,57.69,-19.57,-10.1,1
3878,57.71,23.58,26.11,1
3879,57.72,27.61,-31.87,1
3880,57.73,-21.15,-11.19,1
3881,57.75,12.49,18.94,1
3882,57.76,24.73,-42.41,1
3883,57.77,-10.46,-19.21,1
3884,57.79,17.55,23.34,1
3885,57.8,21.6,-29.61,1
3886,57.81,-25.56,-10.51,1
3887,57.83,11.15,14.19,1
3888,57.84,20.91,-25.12,1
3889,57.85,-8.21,-5.57,1
3890,57.87,21.5,34.12,1
3891,57.88,26.58,-26.77,1
3892,57.89,-20.09,-4.52,1
3893,57.9,9.58,13.66,1
3894,57.92,31.12,-39.89,1
3895,57.93,-28.06,-2.03,1
3896,57.95,10.57,20.98,1
3897,57.96,17.36,-4.16,1
3898,57.97,-38.29,8.32,1
3899,57.99,8.69,36.21,1
3900,58.0,28.83,-25.83,1
3901,58.01,-21.53,13.43,1
3902,58.025000000000006,-3.24,29.26,1
3903,58.04,21.69,-14.03,1
3904,58.05,-18.05,14.96,1
3905,58.06,3.86,28.31,1
3906,58.08,1.44,-22.56,1
3907,58.09,-23.4,-8.57,1
3908,58.11,6.22,31.55,1
3909,58.12,10.71,-26.82,1
3910,58.13,-40.05,-1.93,1
3911,58.15,15.27,34.28,1
3912,58.16,34.25,-5.59,0
3913,58.17,-31.64,1.9,0
3914,58.19,-3.66,16.27,0
3915,58.2,36.17,-5.33,0
3916,58.21,-24.72,10.03,0
3917,58.22,-5.81,26.69,0
3918,58.24,13.19,-1.14,0
3919,58.25,-37.75,6.83,0
3920,58.27,-18.55,25.73,0
3921,58.28,-59.12,-7.17,0
3922,58.29,-181.86,-27.78,0
3923,58.31,-201.39,-12.23,0
3924,58.32,-192.36,-39.61,0
3925,58.33,-196.08,-63.34,0
3926,58.35,-145.04,-11.89,0
3927,58.36,-100.94,-9.74,0
3928,58.37,-43.58,-5.96,0
3929,58.38,-13.48,29.99,0
3930,58.4,64.46,15.16,0
3931,58.41,156.15,6.18,0
3932,58.43,260.58,34.94,0
3933,58.44,321.33,15.58,0
3934,58.45,298.05,-3.48,0
3935,58.47,300.69,47.83,0
3936,58.48,283.3,-1.13,0
3937,58.49,207.89,6.83,0
3938,58.51,178.96,28.79,0
3939,58.52,166.98,3.57,0
3940,58.53,100.25,-14.57,0
3941,58.54,79.18,3.27,0
3942,58.56,27.86,-6.67,1
3943,58.57,-44.11,-14.24,1
3944,58.59,-22.64,-7.27,1
3945,58.6,-28.93,-4.38,1
3946,58.61,-63.43,-25.59,1
3947,58.63,-51.29,13.33,1
3948,58.64,-42.01,5.43,1
3949,58.65,-60.39,-22.35,1
3950,58.66,-86.87,8.1,1
3951,58.68,-69.64,4.64,1
3952,58.69,-105.48,-7.42,1
3953,58.71,-98.63,-5.22,1
3954,58.72,-82.2,6.71,1
3955,58.73,-105.99,-26.05,1
3956,58.75,-93.96,3.68,1
3957,58.76,-80.01,4.21,1
3958,58.77,-101.99,-38.14,1
3959,58.79,-95.78,-0.94,1
3960,58.8,-59.15,21.49,1
3961,58.81,-90.36,-20.28,1
3962,58.83,-69.25,3.8,1
3963,58.84,-64.18,13.1,1
3964,58.85,-86.47,-18.79,1
3965,58.87,-73.63,25.16,1
3966,58.88,-39.36,14.04,1
3967,58.89,-61.86,-16.46,1
3968,58.9,-56.61,-7.36,1
3969,58.92,-23.62,14.47,1
3970,58.93,-28.39,-36.11,1
3971,58.95,-15.64,12.0,1
3972,58.96,-3.6,26.92,1
3973,58.97,-26.16,-17.94,1
3974,58.99,-11.88,20.61,1
3975,59.0,2.61,22.08,1
3976,59.01,-12.93,-21.7,1
3977,59.03,18.62,-0.03,1
3978,59.04,24.31,17.81,1
3979,59.05,13.4,-17.3,1
3980,59.06,14.21,3.91,1
3981,59.08,34.28,26.59,1
3982,59.09,13.51,-15.42,1
3983,59.11,25.86,6.23,1
3984,59.12,35.25,29.06,1
3985,59.13,18.86,-13.4,1
3986,59.15,34.65,9.18,1
3987,59.16,47.17,16.37,1
3988,59.17,33.58,-38.22,1
3989,59.19,36.5,8.48,1
3990,59.2,45.33,20.07,1
3991,59.21,41.99,-32.85,1
3992,59.22,39.2,-1.4,1
3993,59.24,47.47,34.67,1
3994,59.25,20.77,-31.54,1
3995,59.27,26.88,5.4,1
3996,59.28,42.71,10.79,1
3997,59.29,33.44,-57.49,1
3998,59.3,16.45,4.71,1
3999,59.32,32.44,28.43,1
4000,59.33,30.85,-35.54,1
4001,59.35,14.96,1.09,1
4002,59.36,37.46,28.74,1
4003,59.37,20.49,-41.6,1
4004,59.38,21.59,6.97,1
4005,59.4,35.37,21.31,1
4006,59.41,24.74,-50.25,1
4007,59.43,-0.89,8.85,1
4008,59.44,37.62,24.17,1
4009,59.45,0.24,-51.61,1
4010,59.47,-1.22,-3.66,1
4011,59.48,10.29,38.89,1
4012,59.49,-4.42,-50.71,1
4013,59.51,2.95,8.56,1
4014,59.52,8.42,24.03,1
4015,59.53,-15.58,-29.13,1
4016,59.54,-3.14,31.1,1
4017,59.56,3.2,50.89,1
4018,59.57,-25.2,-49.57,1
4019,59.59,-33.38,17.76,1
4020,59.6,4.25,41.85,1
4021,59.61,-11.92,-44.78,1
4022,59.63,-18.8,7.78,1
4023,59.64,-1.97,42.29,1
4024,59.65,-5.9,-36.8,1
4025,59.67,-9.21,14.11,1
4026,59.68,6.68,56.98,1
4027,59.69,-11.03,-51.65,1
4028,59.71,-29.88,19.54,1
4029,59.72,-20.82,40.5,1
4030,59.73,-6.47,-41.12,1
4031,59.75,-18.98,25.51,1
4032,59.76,2.26,31.87,1
4033,59.77,-22.51,-45.57,1
4034,59.79,-13.76,-0.33,1
4035,59.8,-5.13,47.51,1
4036,59.81,-3.66,-50.69,1
4037,59.83,-26.65,9.89,1
4038,59.84,-0.01,40.78,1
4039,59.85,11.16,-41.72,1
4040,59.87,-20.86,-5.98,1
4041,59.88,-5.94,29.47,1
4042,59.89,3.85,-34.62,1
4043,59.9,-19.89,12.8,1
4044,59.92,10.27,40.91,1
4045,59.93,4.88,-49.95,1
4046,59.94,-16.82,2.62,1
4047,59.96,-3.9,35.56,1
4048,59.97,-8.06,-58.34,1
4049,59.99,-16.94,0.52,1
4050,60.0,-4.84,33.57,1
4051,60.01,-14.01,-32.45,1
4052,60.03,-17.02,2.46,1
4053,60.04,2.75,34.79,1
4054,60.05,17.69,-69.17,1
4055,60.06,-32.24,2.87,1
4056,60.08,-10.16,49.04,1
4057,60.09,10.99,-37.0,1
4058,60.11,-19.11,6.8,1
4059,60.12,21.73,26.27,1
4060,60.13,15.38,-43.01,1
4061,60.15,4.04,9.47,1
4062,60.16,19.23,38.35,0
4063,60.17,24.06,-48.41,0
4064,60.19,-0.84,17.75,0
4065,60.2,7.39,47.43,0
4066,60.21,10.8,-35.86,0
4067,60.22,-3.35,-9.55,0
4068,60.24,13.06,-7.79,0
4069,60.25,2.45,-65.45,0
4070,60.27,-80.96,-4.4,0
4071,60.28,-125.45,26.15,0
4072,60.29,-200.92,-71.28,0
4073,60.31,-252.02,-11.0,0
4074,60.32,-190.38,24.84,0
4075,60.33,-144.45,-52.91,0
4076,60.35,-91.79,26.01,0
4077,60.36,-25.68,47.23,0
4078,60.37,76.82,-31.27,0
4079,60.38,86.33,40.33,0
4080,60.4,182.67,58.49,0
4081,60.41,203.99,-12.9,0
4082,60.43,206.94,22.4,0
4083,60.44,219.63,49.46,0
4084,60.45,253.28,-23.33,0
4085,60.47,193.11,15.12,0
4086,60.48,212.18,53.73,0
4087,60.49,178.39,-30.83,0
4088,60.51,129.64,22.29,0
4089,60.52,144.88,49.46,0
4090,60.53,110.89,-35.2,0
4091,60.54,66.05,-1.68,0
4092,60.56,47.87,35.02,1
4093,60.57,44.12,-34.22,1
4094,60.58,-17.54,7.23,1
4095,60.6,-11.93,41.98,1
4096,60.61,-22.98,-22.35,1
4097,60.62,-72.36,40.71,1
4098,60.64,-31.58,44.61,1
4099,60.65,-45.1,-41.14,1
4100,60.67,-82.87,0.0,1
4101,60.68,-56.51,35.37,1
4102,60.69,-74.91,-30.11,1
4103,60.71,-97.89,-6.94,1
4104,60.72,-86.9,4.42,1
4105,60.73,-82.06,-45.7,1
4106,60.75,-125.54,-1.54,1
4107,60.76,-94.53,11.46,1
4108,60.77,-84.61,-37.81,1
4109,60.79,-136.37,-11.43,1
4110,60.8,-97.48,22.48,1
4111,60.81,-92.77,-57.85,1
4112,60.83,-113.17,-3.59,1
4113,60.84,-96.78,15.59,1
4114,60.85,-68.64,-40.81,1
4115,60.87,-89.81,-4.2,1
4116,60.88,-44.0,15.94,1
4117,60.89,-26.7,-47.06,1
4118,60.9,-52.74,-4.84,1
4119,60.92,-31.27,15.23,1
4120,60.93,2.42,-43.88,1
4121,60.95,-39.56,-15.79,1
4122,60.96,0.17,24.41,1
4123,60.97,5.46,-44.52,1
4124,60.99,-17.34,-13.61,1
4125,61.0,-0.07,15.65,1
4126,61.01,13.28,-35.78,1
4127,61.03,-11.91,-10.27,1
4128,61.04,16.19,21.79,1
4129,61.05,45.29,-28.22,1
4130,61.06,-16.81,-1.85,1
4131,61.08,13.64,31.3,1
4132,61.09,34.05,-29.93,1
4133,61.11,-3.29,-0.64,1
4134,61.12,35.07,11.07,1
4135,61.13,49.24,-33.13,1
4136,61.15,19.2,3.18,1
4137,61.16,40.99,20.62,1
4138,61.17,60.75,-36.07,1
4139,61.19,17.33,-6.45,1
4140,61.2,39.85,29.75,1
4141,61.21,58.86,-0.75,1
4142,61.22,11.02,4.76,1
4143,61.24,46.73,51.21,1
4144,61.25,49.98,12.39,1
4145,61.26,3.25,24.22,1
4146,61.28,39.4,46.66,1
4147,61.29,69.81,4.16,1
4148,61.31,3.47,11.45,1
4149,61.32,43.12,20.37,1
4150,61.33,62.12,-8.27,1
4151,61.35,7.96,5.53,1
4152,61.36,29.95,21.91,1
4153,61.37,21.87,11.42,1
4154,61.38,1.69,15.14,1
4155,61.4,26.67,25.12,1
4156,61.41,25.83,0.68,1
4157,61.43,-16.57,-1.93,1
4158,61.44,20.99,28.96,1
4159,61.45,21.28,-11.44,1
4160,61.47,-11.54,-21.65,1
4161,61.48,22.5,18.98,1
4162,61.49,6.76,-1.48,1
4163,61.51,-12.73,-35.33,1
4164,61.52,11.74,8.17,1
4165,61.53,4.73,-2.33,1
4166,61.54,-26.67,-24.79,1
4167,61.56,18.1,7.91,1
4168,61.57,19.59,0.34,1
4169,61.59,-43.41,-6.14,1
4170,61.6,6.44,22.82,1
4171,61.61,4.15,13.78,1
4172,61.63,-27.18,7.3,1
4173,61.64,-6.33,6.67,1
4174,61.65,2.86,3.08,1
4175,61.67,-38.21,-10.52,1
4176,61.68,-4.92,-3.68,1
4177,61.69,-0.62,-10.43,1
4178,61.71,-33.21,-20.31,1
4179,61.72,8.03,-7.71,1
4180,61.73,3.01,-8.12,1
4181,61.75,-31.34,-27.9,1
4182,61.76,-15.71,3.96,1
4183,61.77,3.93,12.64,1
4184,61.79,-36.88,-13.12,1
4185,61.8,-5.52,-3.22,1
4186,61.81,5.6,-3.26,1
4187,61.83,-46.37,-23.35,1
4188,61.84,2.05,0.79,1
4189,61.85,20.18,3.5,1
4190,61.86,-40.72,-24.28,1
4191,61.88,-9.62,23.29,1
4192,61.89,3.53,20.45,1
4193,61.9,-33.03,-20.3,1
4194,61.92,16.93,5.39,1
4195,61.93,10.52,14.7,1
4196,61.95,-33.81,-20.22,1
4197,61.96,10.85,6.11,1
4198,61.97,7.98,6.89,1
4199,61.99,-35.27,-23.56,1
4200,62.0,-4.56,2.82,1
4201,62.01,20.17,8.61,1
4202,62.03,-32.67,-20.08,1
4203,62.04,17.02,-2.78,1
4204,62.05,17.36,12.64,1
4205,62.06,-10.79,-30.77,1
4206,62.08,-2.87,3.28,1
4207,62.09,17.48,3.53,1
4208,62.11,-35.18,-37.6,1
4209,62.12,10.73,22.95,1
4210,62.13,17.54,16.91,1
4211,62.15,-11.63,-4.54,1
4212,62.16,6.8,14.89,2
4213,62.17,49.41,18.2,2
4214,62.19,-18.59,-20.45,2
4215,62.2,13.03,7.15,2
4216,62.21,29.77,19.08,2
4217,62.22,-26.05,-10.37,2
4218,62.24,19.43,57.0,2
4219,62.25,31.89,88.21,2
4220,62.27,46.38,44.87,2
4221,62.28,174.99,102.9,2
4222,62.29,224.84,158.58,2
4223,62.31,189.34,77.58,2
4224,62.32,194.56,-2.35,2
4225,62.33,138.9,-82.55,2
4226,62.35,105.05,-182.73,2
4227,62.36,40.5,-142.59,2
4228,62.37,12.65,-118.95,2
4229,62.38,-16.4,-152.58,2
4230,62.4,-61.9,-77.61,2
4231,62.41,-97.1,-37.7,2
4232,62.43,-240.68,-69.81,2
4233,62.44,-261.7,-14.06,2
4234,62.45,-306.69,6.32,2
4235,62.47,-367.86,-51.49,2
4236,62.48,-287.23,0.07,2
4237,62.49,-262.18,66.84,2
4238,62.5,-266.81,-23.61,2
4239,62.52,-186.34,40.73,2
4240,62.53,-129.8,64.64,2
4241,62.54,-139.38,-10.65,2
4242,62.56,-81.98,46.34,1
4243,62.57,-26.54,61.99,1
4244,62.58,-53.63,-17.56,1
4245,62.6,21.92,48.25,1
4246,62.61,68.47,75.22,1
4247,62.63,35.04,3.91,1
4248,62.64,79.51,43.59,1
4249,62.65,116.45,52.11,1
4250,62.67,81.94,-25.22,1
4251,62.68,120.6,27.99,1
4252,62.69,141.32,43.39,1
4253,62.71,96.18,-17.74,1
4254,62.72,138.31,25.14,1
4255,62.73,170.08,59.06,1
4256,62.75,111.6,-30.26,1
4257,62.76,136.84,24.3,1
4258,62.77,136.23,42.37,1
4259,62.79,95.55,-49.99,1
4260,62.8,152.28,17.18,1
4261,62.81,133.2,40.98,1
4262,62.83,73.01,-43.15,1
4263,62.84,106.09,-8.56,1
4264,62.85,113.82,35.35,1
4265,62.87,45.39,-49.96,1
4266,62.88,100.16,9.25,1
4267,62.89,84.41,55.4,1
4268,62.9,19.39,-50.61,1
4269,62.92,63.43,-0.54,1
4270,62.93,63.11,16.94,1
4271,62.95,-14.69,-55.47,1
4272,62.96,31.07,-18.8,1
4273,62.97,24.63,34.05,1
4274,62.99,-26.19,-64.77,1
4275,63.0,8.73,5.15,1
4276,63.01,2.25,31.31,1
4277,63.03,-50.48,-36.75,1
4278,63.04,-11.02,17.4,1
4279,63.05,-8.97,16.11,1
4280,63.06,-67.81,-53.74,1
4281,63.08,-35.81,4.19,1
4282,63.09,-19.97,30.1,1
4283,63.11,-76.43,-61.08,1
4284,63.12,-44.24,-8.78,1
4285,63.13,-35.52,33.54,1
4286,63.14,-76.16,-58.15,1
4287,63.16,-42.51,10.58,1
4288,63.17,-26.23,20.82,1
4289,63.18,-86.01,-48.17,1
4290,63.2,-47.43,11.11,1
4291,63.21,-36.5,27.88,1
4292,63.22,-89.41,-46.61,1
4293,63.24,-38.65,9.84,1
4294,63.25,-25.39,42.18,1
4295,63.27,-77.63,-38.58,1
4296,63.28,-33.45,-3.2,1
4297,63.29,-22.59,47.44,1
4298,63.31,-71.59,-38.71,1
4299,63.32,-29.55,10.11,1
4300,63.33,-14.74,48.89,1
4301,63.35,-60.66,-47.89,1
4302,63.36,-5.7,0.92,1
4303,63.37,-2.6,20.2,1
4304,63.38,-50.93,-72.78,1
4305,63.4,-3.66,-7.98,1
4306,63.41,11.14,47.68,1
4307,63.43,-28.71,-49.74,1
4308,63.44,-4.75,0.56,1
4309,63.45,6.86,57.57,1
4310,63.47,-38.84,-39.66,1
4311,63.48,12.67,7.78,1
4312,63.49,11.59,25.32,1
4313,63.51,-33.93,-35.83,1
4314,63.52,16.52,-0.53,1
4315,63.53,23.09,32.84,1
4316,63.54,-7.15,-55.39,1
4317,63.56,32.09,26.13,1
4318,63.57,33.58,49.6,1
4319,63.59,-20.44,-46.23,1
4320,63.6,9.21,-0.56,1
4321,63.61,12.96,63.64,1
4322,63.63,-6.85,-28.54,1
4323,63.64,35.83,15.23,1
4324,63.65,33.2,51.57,1
4325,63.67,-14.29,-34.62,1
4326,63.68,23.9,-14.61,1
4327,63.69,34.97,42.22,1
4328,63.71,-25.02,-53.01,1
4329,63.72,25.43,-3.89,1
4330,63.73,30.15,51.07,1
4331,63.75,0.03,-24.52,1
4332,63.76,31.25,9.99,1
4333,63.77,34.14,40.68,1
4334,63.78,-20.61,-51.15,1
4335,63.8,22.02,-8.77,1
4336,63.81,35.79,27.9,1
4337,63.82,1.94,-34.32,1
4338,63.84,8.25,24.94,1
4339,63.85,30.84,44.15,1
4340,63.86,-1.32,-28.18,1
4341,63.88,24.52,-2.34,1
4342,63.89,27.36,38.94,1
4343,63.9,-25.34,-54.32,1
4344,63.92,14.53,-5.03,1
4345,63.93,24.18,39.68,1
4346,63.95,-35.07,-39.07,1
4347,63.96,4.35,-13.04,1
4348,63.97,24.07,50.27,1
4349,63.99,-15.7,-22.57,1
4350,64.0,10.65,2.43,1
4351,64.01,9.67,13.78,1
4352,64.02,-18.13,-12.82,1
4353,64.04,2.59,17.59,1
4354,64.05,22.69,33.27,1
4355,64.06,-18.38,-22.56,1
4356,64.08,10.52,-20.51,1
4357,64.09,10.1,26.49,1
4358,64.11,-24.39,-15.35,1
4359,64.12,6.39,10.45,1
4360,64.13,15.29,50.92,1
4361,64.14,-30.83,21.75,1
4362,64.16,14.66,124.43,1
4363,64.17,7.44,299.89,1
4364,64.18,-26.77,190.56,1
4365,64.2,0.76,69.13,1
4366,64.21,-23.71,274.64,1
4367,64.22,-74.73,107.66,1
4368,64.24,-114.07,120.13,1
4369,64.25,-148.06,18.58,1
4370,64.26,156.76,-16.2,1
4371,64.28,-377.31,-39.7,1
4372,64.29,-130.76,-92.79,1
4373,64.3,-198.59,-119.5,1
4374,64.32,-75.56,-119.24,1
4375,64.33,-107.22,-156.1,1
4376,64.34,-31.01,-167.63,1
4377,64.36,-24.81,-154.29,1
4378,64.37,19.31,-178.1,1
4379,64.38,96.38,-179.33,1
4380,64.4,101.54,-155.68,1
4381,64.41,120.92,-171.11,1
4382,64.42,464.7,-166.01,1
4383,64.44,56.11,-136.01,1
4384,64.45,631.19,-145.61,1
4385,64.46,101.85,-134.39,1
4386,64.48,453.89,-100.73,1
4387,64.49,-8.4,-107.86,1
4388,64.5,236.97,-96.47,1
4389,64.52,-43.54,-68.65,1
4390,64.53,384.0,-109.5,1
4391,64.54,-263.0,-254.02,1
4392,64.56,169.37,-319.19,1
4393,64.57,151.66,192.73,1
4394,64.58,-111.56,-145.39,1
4395,64.6,-24.22,-146.65,1
4396,64.61,272.97,262.32,1
4397,64.62,-24.88,67.25,1
4398,64.64,-70.78,-46.31,1
4399,64.65,-237.0,-147.99,1
4400,64.66,31.31,185.52,1
4401,64.68,-341.49,-78.98,1
4402,64.69,-7.45,225.22,1
4403,64.7,-428.62,212.67,1
4404,64.72,-467.43,144.88,1
4405,64.73,-155.48,146.23,1
4406,64.75,-229.89,-185.3,1
4407,64.76,-218.45,222.7,1
4408,64.77,-53.18,165.45,1
4409,64.79,-196.01,270.45,1
4410,64.8,-177.13,-59.91,1
4411,64.81,-142.41,-203.68,1
4412,64.82,200.32,207.14,1
4413,64.84,-48.2,-381.19,1
4414,64.85,61.27,210.91,1
4415,64.86,-261.38,-2.01,1
4416,64.88,171.79,-29.0,1
4417,64.89,-38.59,528.77,1
4418,64.9,222.8,344.25,1
4419,64.92,-212.34,-44.02,1
4420,64.93,213.86,88.73,1
4421,64.94,81.21,-93.31,1
4422,64.96,165.12,-89.58,1
4423,64.97,-156.65,-38.2,1
4424,64.98,40.0,-7.11,1
4425,65.0,-17.62,69.07,1
4426,65.01,146.82,88.32,1
4427,65.02,152.75,105.74,1
4428,65.04,261.82,151.79,1
4429,65.05,222.27,154.24,1
4430,65.06,194.3,150.28,1
4431,65.08,101.5,179.04,1
4432,65.09,43.95,167.49,1
4433,65.1,-43.89,148.4,1
4434,65.12,-58.66,166.8,1
4435,65.13,-94.24,145.2,1
4436,65.14,-154.3,119.37,1
4437,65.16,-138.29,129.91,1
4438,65.17,-124.68,115.24,1
4439,65.18,-140.83,142.87,1
4440,65.2,-100.84,218.0,1
4441,65.21,-82.29,252.82,1
4442,65.22,-108.36,256.13,1
4443,65.24,-59.11,191.37,1
4444,65.25,-19.64,187.5,1
4445,65.26,-51.77,110.1,1
4446,65.28,5.72,16.37,1
4447,65.29,-9.78,6.57,1
4448,65.3,-4.98,-16.73,1
4449,65.32,21.2,-155.3,1
4450,65.33,41.81,-150.52,1
4451,65.34,5.14,-167.53,1
4452,65.36,14.4,-256.67,1
4453,65.37,56.98,-226.16,1
4454,65.38,48.41,-237.17,1
4455,65.4,48.15,-304.98,1
4456,65.41,89.02,-269.09,1
4457,65.43,85.63,-284.69,1
4458,65.44,55.78,-353.64,1
4459,65.45,64.91,-287.38,1
4460,65.46,36.19,-267.13,1
4461,65.48,24.6,-326.16,1
4462,65.49,32.68,-277.17,1
4463,65.5,18.16,-218.63,1
4464,65.52,18.56,-270.27,1
4465,65.53,48.87,-204.75,1
4466,65.54,22.83,-184.0,1
4467,65.56,36.27,-241.85,1
4468,65.57,28.7,-173.65,1
4469,65.58,20.92,-112.22,1
4470,65.6,-8.17,-146.45,1
4471,65.61,32.17,-82.09,1
4472,65.62,13.67,-50.34,1
4473,65.64,12.62,-104.33,1
4474,65.65,24.39,-31.81,1
4475,65.66,14.79,17.52,1
4476,65.68,17.35,-36.29,1
4477,65.69,27.86,26.08,1
4478,65.7,12.59,62.98,1
4479,65.72,-24.09,15.17,1
4480,65.73,24.13,71.59,1
4481,65.74,-8.16,134.47,1
4482,65.76,-4.17,34.62,1
4483,65.77,16.9,118.95,1
4484,65.78,13.98,131.32,1
4485,65.8,-2.33,74.85,1
4486,65.81,6.97,122.07,1
4487,65.82,-29.23,146.55,1
4488,65.84,-12.71,47.29,1
4489,65.85,-5.94,122.3,1
4490,65.86,-12.39,173.6,1
4491,65.88,-17.55,79.09,1
4492,65.89,-4.9,112.68,1
4493,65.9,-5.07,157.23,1
4494,65.92,-25.09,62.01,1
4495,65.93,-11.01,124.33,1
4496,65.94,-18.51,142.55,1
4497,65.96,-46.54,59.88,1
4498,65.97,-11.58,92.63,1
4499,65.98,-14.51,134.06,1
4500,66.0,-45.85,52.34,1
4501,66.01,-12.21,122.14,1
4502,66.02,-22.57,122.24,1
4503,66.04,-18.27,-2.34,1
4504,66.05,-7.14,88.62,1
4505,66.06,-6.42,124.09,1
4506,66.08,-17.3,25.67,1
4507,66.09,-11.46,56.64,1
4508,66.11,2.91,84.48,1
4509,66.12,-14.13,-5.62,1
4510,66.13,2.73,44.65,1
4511,66.14,-9.72,79.78,1
4512,66.16,-28.26,-25.11,2
4513,66.17,-17.15,-37.26,2
4514,66.18,45.36,-12.83,2
4515,66.2,91.06,-60.54,2
4516,66.21,201.86,-37.99,2
4517,66.22,197.34,8.17,2
4518,66.24,156.88,-88.46,2
4519,66.25,130.58,-20.36,2
4520,66.26,58.42,33.03,2
4521,66.28,-22.33,-80.15,2
4522,66.29,-28.89,-23.94,2
4523,66.3,-99.31,52.38,2
4524,66.32,-165.29,-34.63,2
4525,66.33,-163.64,13.14,2
4526,66.34,-189.38,32.79,2
4527,66.36,-206.48,-42.38,2
4528,66.37,-171.86,-25.81,2
4529,66.38,-139.02,22.8,2
4530,66.4,-155.96,-76.72,2
4531,66.41,-125.88,10.88,2
4532,66.42,-99.85,42.36,2
4533,66.44,-89.61,-61.75,2
4534,66.45,-64.44,-31.89,2
4535,66.46,-67.07,25.85,2
4536,66.48,-41.38,-80.17,2
4537,66.49,-28.63,-17.4,2
4538,66.5,4.29,12.63,2
4539,66.52,-20.82,-96.24,2
4540,66.53,32.54,-38.58,2
4541,66.54,42.05,-13.28,2
4542,66.56,20.57,-85.2,1
4543,66.57,65.84,-5.47,1
4544,66.58,63.94,6.2,1
4545,66.6,53.51,-93.33,1
4546,66.61,92.65,-41.17,1
4547,66.62,99.94,21.88,1
4548,66.64,68.78,-69.84,1
4549,66.65,111.82,-36.61,1
4550,66.66,91.29,21.62,1
4551,66.68,76.16,-55.62,1
4552,66.69,109.47,-26.4,1
4553,66.7,114.82,13.58,1
4554,66.72,83.4,-39.02,1
4555,66.73,87.43,-20.8,1
4556,66.75,64.41,41.64,1
4557,66.76,50.54,-67.44,1
4558,66.77,49.54,-10.59,1
4559,66.79,56.25,27.23,1
4560,66.8,30.46,-53.46,1
4561,66.81,51.0,11.9,1
4562,66.82,46.53,41.49,1
4563,66.84,9.98,-24.51,1
4564,66.85,28.86,-13.19,1
4565,66.86,30.45,34.43,1
4566,66.88,-0.76,-46.71,1
4567,66.89,-8.2,11.63,1
4568,66.9,22.0,29.29,1
4569,66.92,-21.41,-10.32,1
4570,66.93,2.27,23.12,1
4571,66.94,-8.88,57.83,1
4572,66.96,-26.13,-35.78,1
4573,66.97,-11.56,14.76,1
4574,66.98,-1.42,60.9,1
4575,67.0,-38.01,-32.28,1
4576,67.01,-8.14,21.57,1
4577,67.02,-20.05,49.56,1
4578,67.04,-62.71,-14.45,1
4579,67.05,-29.3,9.58,1
4580,67.06,-17.36,65.77,1
4581,67.08,-43.94,-8.49,1
4582,67.09,-26.61,31.1,1
4583,67.1,-26.11,37.41,1
4584,67.12,-34.61,11.54,1
4585,67.13,-32.5,31.08,1
4586,67.14,-14.59,47.67,1
4587,67.16,-41.52,-31.23,1
4588,67.17,-21.71,14.4,1
4589,67.18,-16.8,26.44,1
4590,67.2,-63.36,-11.78,1
4591,67.21,-30.34,-13.47,1
4592,67.22,-7.42,53.78,1
4593,67.24,-58.87,-12.95,1
4594,67.25,-8.58,-4.82,1
4595,67.26,8.69,35.0,1
4596,67.28,-26.92,-27.98,1
4597,67.29,-24.26,6.73,1
4598,67.3,-11.09,20.77,1
4599,67.32,-51.67,-31.11,1
4600,67.33,-7.56,-9.91,1
4601,67.34,1.8,29.28,1
4602,67.36,-31.53,-35.74,1
4603,67.37,11.31,-7.13,1
4604,67.38,-8.22,33.08,1
4605,67.4,-29.16,0.31,1
4606,67.41,10.48,-27.6,1
4607,67.43,9.42,8.93,1
4608,67.44,-14.73,-33.24,1
4609,67.45,-2.87,-26.96,1
4610,67.46,20.42,-7.29,1
4611,67.48,7.28,-28.21,1
4612,67.49,42.42,14.53,1
4613,67.5,-5.36,38.37,1
4614,67.52,-7.91,-13.19,1
4615,67.53,10.07,-15.11,1
4616,67.54,24.04,0.92,1
4617,67.56,-21.05,-27.31,1
4618,67.57,28.69,-8.29,1
4619,67.58,31.41,10.26,1
4620,67.6,-28.34,-5.79,1
4621,67.61,42.51,5.9,1
4622,67.62,42.93,14.07,1
4623,67.64,-20.4,-1.44,1
4624,67.65,21.8,-10.31,1
4625,67.66,35.75,-0.49,1
4626,67.68,-13.81,-7.0,1
4627,67.69,19.84,5.96,1
4628,67.7,33.34,33.81,1
4629,67.72,-23.44,-18.01,1
4630,67.73,15.89,-25.88,1
4631,67.74,10.5,11.74,1
4632,67.76,-24.62,7.8,1
4633,67.77,27.54,-26.15,1
4634,67.79,36.47,10.56,1
4635,67.8,-24.87,2.62,1
4636,67.81,21.66,-22.66,1
4637,67.82,27.35,-4.39,1
4638,67.84,-24.97,-25.05,1
4639,67.85,13.52,-26.12,1
4640,67.86,22.54,12.65,1
4641,67.88,-44.41,-15.19,1
4642,67.89,18.31,-21.68,1
4643,67.9,9.3,-2.73,1
4644,67.92,-37.73,-3.76,1
4645,67.93,10.76,-4.23,1
4646,67.94,4.6,1.33,1
4647,67.96,-31.3,10.0,1
4648,67.97,6.86,-16.86,1
4649,67.98,16.01,38.09,1
4650,68.0,-41.01,32.38,1
4651,68.01,15.96,-9.27,1
4652,68.02,20.95,31.07,1
4653,68.04,-26.06,26.79,1
4654,68.05,20.24,3.63,1
4655,68.06,15.04,26.58,1
4656,68.08,-43.72,-1.39,1
4657,68.09,-27.24,-19.0,1
4658,68.11,20.27,17.78,1
4659,68.12,-29.07,17.62,1
4660,68.13,24.27,-25.77,1
4661,68.14,21.82,25.95,1
4662,68.16,-25.21,14.78,0
4663,68.17,21.94,-13.56,0
4664,68.18,20.71,9.11,0
4665,68.2,-19.96,27.56,0
4666,68.21,15.68,3.89,0
4667,68.22,29.94,67.8,0
4668,68.24,-13.15,124.15,0
4669,68.25,-91.73,113.74,0
4670,68.26,-158.49,62.25,0
4671,68.28,-234.59,-33.71,0
4672,68.29,-170.64,-151.1,0
4673,68.3,-145.09,-170.9,0
4674,68.32,-162.26,-181.67,0
4675,68.33,-103.74,-197.8,0
4676,68.34,-50.13,-104.5,0
4677,68.36,-28.47,-74.47,0
4678,68.37,15.75,-50.7,0
4679,68.38,117.54,14.83,0
4680,68.4,108.5,44.22,0
4681,68.41,246.44,3.54,0
4682,68.42,301.38,38.72,0
4683,68.44,266.05,54.09,0
4684,68.45,292.02,28.72,0
4685,68.46,297.5,65.52,0
4686,68.48,203.63,86.67,0
4687,68.49,209.91,19.64,0
4688,68.5,175.44,84.96,0
4689,68.52,83.54,81.58,0
4690,68.53,103.5,15.61,0
4691,68.54,74.05,26.27,0
4692,68.56,-14.79,59.18,1
4693,68.57,15.71,-2.0,1
4694,68.58,-3.12,39.87,1
4695,68.6,-90.56,41.13,1
4696,68.61,-52.87,-27.53,1
4697,68.62,-57.61,15.49,1
4698,68.64,-138.62,38.01,1
4699,68.65,-84.38,-33.06,1
4700,68.66,-93.24,19.61,1
4701,68.68,-136.74,35.07,1
4702,68.69,-93.36,-43.52,1
4703,68.7,-95.2,-4.58,1
4704,68.72,-151.04,37.52,1
4705,68.73,-100.27,-60.6,1
4706,68.75,-97.62,-3.33,1
4707,68.76,-129.96,16.11,1
4708,68.77,-91.75,-47.84,1
4709,68.79,-69.64,-9.63,1
4710,68.8,-124.25,14.72,1
4711,68.81,-66.69,-38.41,1
4712,68.82,-49.66,5.57,1
4713,68.84,-100.41,18.73,1
4714,68.85,-40.44,-69.87,1
4715,68.86,-26.1,-8.81,1
4716,68.88,-83.71,16.91,1
4717,68.89,-28.62,-54.63,1
4718,68.9,-19.69,-4.96,1
4719,68.92,-69.07,5.8,1
4720,68.93,-24.87,-52.5,1
4721,68.94,0.27,3.53,1
4722,68.96,-45.44,35.11,1
4723,68.97,19.11,-53.44,1
4724,68.98,29.09,1.84,1
4725,69.0,-35.86,30.98,1
4726,69.01,26.01,-66.91,1
4727,69.02,25.69,3.59,1
4728,69.04,-18.51,52.72,1
4729,69.05,50.4,-47.69,1
4730,69.06,62.49,12.08,1
4731,69.08,-12.78,42.82,1
4732,69.09,51.07,-53.98,1
4733,69.11,58.4,13.49,1
4734,69.12,17.87,35.66,1
4735,69.13,57.88,-37.43,1
4736,69.14,66.73,-0.02,1
4737,69.16,13.9,25.64,1
4738,69.17,72.48,-60.7,1
4739,69.18,59.86,-0.69,1
4740,69.2,12.63,38.18,1
4741,69.21,50.08,-42.26,1
4742,69.22,69.77,1.93,1
4743,69.24,6.02,46.87,1
4744,69.25,49.29,-49.53,1
4745,69.26,59.8,4.93,1
