,Timestamp,Data1,Data2,Label
0,6.0,10.09,-16.0,1
1,6.01,0.63,0.85,1
2,6.03,-17.94,-2.27,1
3,6.04,-5.47,22.04,1
4,6.05,3.62,-0.11,1
5,6.07,14.28,2.53,1
6,6.08,1.76,0.13,1
7,6.09,7.67,-16.55,1
8,6.11,6.53,-6.05,1
9,6.12,2.56,-1.43,1
10,6.13,1.24,24.65,1
11,6.15,-9.1,9.38,2
12,6.16,-0.31,15.67,2
13,6.17,1.65,10.47,2
14,6.19,-6.75,-9.65,2
15,6.2,3.54,-11.61,2
16,6.21,-4.7,11.23,2
17,6.23,85.01,-15.59,2
18,6.24,125.45,-21.92,2
19,6.25,149.59,-40.99,2
20,6.27,111.02,-4.73,2
21,6.28,108.25,-6.0,2
22,6.29,76.46,-22.04,2
23,6.31,11.0,-13.45,2
24,6.32,-22.93,-25.61,2
25,6.33,-55.77,-30.64,2
26,6.35,-87.18,-5.52,2
27,6.36,-112.76,-15.31,2
28,6.37,-130.65,-33.71,2
29,6.39,-150.75,7.71,2
30,6.4,-121.29,5.32,2
31,6.41,-124.03,21.84,2
32,6.43,-113.49,31.9,2
33,6.44,-104.23,33.22,2
34,6.45,-96.03,25.57,2
35,6.47,-74.84,51.91,2
36,6.48,-58.32,48.89,2
37,6.49,-50.28,42.04,2
38,6.51,-31.21,38.9,2
39,6.52,-29.88,57.45,2
40,6.53,-12.36,25.02,2
41,6.55,-3.35,10.51,2
42,6.56,-3.73,0.23,1
43,6.57,15.25,16.81,1
44,6.59,26.0,5.43,1
45,6.6,31.66,20.02,1
46,6.61,39.57,0.07,1
47,6.63,43.34,-2.57,1
48,6.64,43.96,-7.28,1
49,6.65,64.08,-6.97,1
50,6.67,53.26,-29.97,1
51,6.68,70.97,-8.53,1
52,6.69,78.52,-12.51,1
53,6.71,66.03,-13.89,1
54,6.72,61.0,-22.51,1
55,6.73,44.83,-10.15,1
56,6.75,63.93,-22.32,1
57,6.76,68.6,-8.87,1
58,6.77,57.79,8.56,1
59,6.79,49.99,10.64,1
60,6.8,42.46,-20.35,1
61,6.81,36.01,-26.46,1
62,6.83,31.7,-17.88,1
63,6.84,36.72,-16.51,1
64,6.85,36.72,-6.55,1
65,6.87,23.4,-31.1,1
66,6.88,18.91,-31.09,1
67,6.89,11.99,-15.96,1
68,6.91,7.92,-27.1,1
69,6.92,12.14,-26.07,1
70,6.93,6.09,-11.6,1
71,6.95,-5.81,6.42,1
72,6.96,-19.52,-38.37,1
73,6.97,-4.78,-25.58,1
74,6.99,-15.24,-19.45,1
75,7.0,0.01,4.12,1
76,7.01,-14.6,2.51,1
77,7.03,-30.28,-0.6,1
78,7.04,-9.08,-6.4,1
79,7.05,-23.22,-12.32,1
80,7.07,-15.65,-3.21,1
81,7.08,-14.75,3.13,1
82,7.09,-9.27,-6.93,1
83,7.11,-23.32,5.92,1
84,7.12,-22.01,28.29,1
85,7.13,-20.33,17.69,1
86,7.15,-23.32,21.89,1
87,7.16,-10.93,19.1,1
88,7.17,-17.28,19.58,1
89,7.19,-21.37,34.16,1
90,7.2,-6.14,23.83,1
91,7.21,-37.54,12.23,1
92,7.23,-34.51,9.84,1
93,7.24,-23.96,21.88,1
94,7.25,-27.62,20.18,1
95,7.27,-12.28,23.28,1
96,7.28,-12.46,9.38,1
97,7.29,-36.53,17.96,1
98,7.31,-10.34,12.04,1
99,7.32,-3.88,12.57,1
100,7.33,-0.92,-12.16,1
101,7.35,-15.99,14.31,1
102,7.36,-26.99,8.99,1
103,7.37,-10.01,17.36,1
104,7.39,-16.27,4.37,1
105,7.4,-4.64,-8.07,1
106,7.41,-18.54,-0.53,1
107,7.43,3.9,11.0,1
108,7.44,-2.44,-2.54,1
109,7.45,-8.87,-10.54,1
110,7.47,17.96,-16.65,1
111,7.48,-0.15,-4.84,1
112,7.49,12.99,13.85,1
113,7.51,-10.81,-1.53,1
114,7.52,-2.38,-2.8,1
115,7.53,14.7,-8.32,1
116,7.55,17.8,-7.18,1
117,7.56,23.1,-3.57,1
118,7.57,4.63,-11.86,1
119,7.59,7.6,-1.04,1
120,7.6,1.61,-0.52,1
121,7.61,-1.62,-13.27,1
122,7.63,10.12,21.14,1
123,7.64,10.57,-9.07,1
124,7.65,15.52,-14.98,1
125,7.67,-2.23,-7.68,1
126,7.68,14.12,-4.67,1
127,7.69,-2.44,-20.87,1
128,7.71,-1.04,-6.34,1
129,7.72,-4.68,-8.63,1
130,7.73,10.46,-10.85,1
131,7.75,11.67,-16.03,1
132,7.76,13.8,-14.21,1
133,7.77,9.59,-17.06,1
134,7.79,7.18,-18.46,1
135,7.8,12.02,-10.69,1
136,7.81,5.84,-9.68,1
137,7.83,-3.49,11.87,1
138,7.84,-8.74,13.39,1
139,7.85,1.04,-3.38,1
140,7.87,-7.28,3.27,1
141,7.88,11.75,-24.58,1
142,7.89,6.41,1.55,1
143,7.91,15.44,6.55,1
144,7.92,0.99,2.62,1
145,7.93,7.11,4.5,1
146,7.95,4.69,3.43,1
147,7.96,7.66,4.8,1
148,7.97,-8.41,13.79,1
149,7.99,0.45,2.65,1
150,8.0,3.8,4.45,1
151,8.01,-15.33,6.25,1
152,8.03,-2.74,7.84,1
153,8.04,-11.5,5.68,1
154,8.05,-0.87,8.13,1
155,8.07,13.07,9.78,1
156,8.08,-6.53,10.52,1
157,8.09,-2.73,19.42,1
158,8.11,21.86,-2.11,1
159,8.12,-2.11,-15.95,1
160,8.13,8.8,23.96,1
161,8.15,-14.99,-15.39,0
162,8.16,3.1,-9.89,0
163,8.17,0.21,-16.27,0
164,8.19,-4.96,13.81,0
165,8.2,-13.27,7.07,0
166,8.21,11.67,-10.74,0
167,8.23,14.24,-8.65,0
168,8.24,-4.38,8.69,0
169,8.25,-57.93,-2.13,0
170,8.27,-96.07,6.58,0
171,8.28,-123.9,-12.94,0
172,8.29,-122.76,9.61,0
173,8.31,-109.9,0.91,0
174,8.32,-106.66,30.46,0
175,8.33,-77.65,34.71,0
176,8.35,-58.27,57.17,0
177,8.36,-28.06,15.96,0
178,8.37,1.02,10.76,0
179,8.39,45.61,-4.41,0
180,8.4,85.33,-46.81,0
181,8.41,149.02,-47.26,0
182,8.43,168.47,-37.06,0
183,8.44,195.51,-21.1,0
184,8.45,198.43,-18.79,0
185,8.47,193.37,-22.99,0
186,8.48,157.66,10.99,0
187,8.49,149.33,17.93,0
188,8.51,99.76,-0.19,0
189,8.52,94.91,4.75,0
190,8.53,66.2,26.47,0
191,8.55,47.3,4.17,1
192,8.56,29.33,-14.32,1
193,8.57,7.35,7.24,1
194,8.59,-6.72,-3.65,1
195,8.6,-32.5,-7.16,1
196,8.61,-39.32,-5.32,1
197,8.63,-54.67,0.56,1
198,8.64,-60.66,6.03,1
199,8.65,-67.24,6.75,1
200,8.67,-75.37,-2.25,1
201,8.68,-61.89,12.25,1
202,8.69,-67.38,29.74,1
203,8.71,-92.08,-0.59,1
204,8.72,-86.27,5.29,1
205,8.73,-65.01,-0.1,1
206,8.75,-71.61,-15.52,1
207,8.76,-77.22,-2.5,1
208,8.77,-79.1,2.93,1
209,8.79,-53.62,0.85,1
210,8.8,-58.37,-14.67,1
211,8.81,-53.95,8.95,1
212,8.83,-50.07,-5.94,1
213,8.84,-44.54,-3.08,1
214,8.85,-42.03,2.68,1
215,8.87,-32.77,-10.1,1
216,8.88,-35.67,-1.09,1
217,8.89,-37.99,1.53,1
218,8.91,-17.67,11.83,1
219,8.92,-17.72,6.78,1
220,8.93,-22.44,7.9,1
221,8.95,-21.59,9.26,1
222,8.96,-18.37,-6.29,1
223,8.97,-8.6,5.96,1
224,8.99,14.29,-6.15,1
225,9.0,-5.83,4.38,1
226,9.01,10.8,-1.33,1
227,9.03,-4.54,-11.55,1
228,9.04,1.45,-27.06,1
229,9.05,30.52,-13.35,1
230,9.07,23.02,9.3,1
231,9.08,20.11,-5.56,1
232,9.09,8.37,5.04,1
233,9.11,28.43,-10.48,1
234,9.12,41.94,-15.46,1
235,9.13,34.32,-20.3,1
236,9.15,38.25,-12.61,1
237,9.16,20.86,-16.77,1
238,9.17,35.32,-3.77,1
239,9.19,33.68,8.97,1
240,9.2,35.47,-4.27,1
241,9.21,25.43,5.25,1
242,9.23,31.77,7.26,1
243,9.24,20.03,-11.32,1
244,9.25,25.99,-9.15,1
245,9.27,28.93,3.32,1
246,9.28,24.03,12.83,1
247,9.29,19.11,8.48,1
248,9.31,22.57,-2.03,1
249,9.32,16.42,8.41,1
250,9.33,6.76,23.89,1
251,9.35,20.81,23.46,1
252,9.36,22.96,2.42,1
253,9.37,6.0,12.06,1
254,9.39,17.1,-12.38,1
255,9.4,17.53,-9.87,1
256,9.41,18.44,-18.11,1
257,9.43,7.78,8.83,1
258,9.44,5.77,-16.67,1
259,9.45,5.17,16.05,1
260,9.47,-14.56,4.11,1
261,9.48,-11.53,8.35,1
262,9.49,0.94,13.07,1
263,9.51,6.93,-7.45,1
264,9.52,-10.95,0.8,1
265,9.53,11.2,9.89,1
266,9.55,-6.66,0.02,1
267,9.56,3.18,3.85,1
268,9.57,-13.38,0.62,1
269,9.59,-15.35,15.24,1
270,9.6,-8.72,-6.85,1
271,9.61,-6.65,8.8,1
272,9.63,-19.09,-9.14,1
273,9.64,-11.86,19.23,1
274,9.65,-3.24,2.86,1
275,9.67,1.3,-4.07,1
276,9.68,-17.82,-0.07,1
277,9.69,-18.85,-4.7,1
278,9.71,-4.99,23.28,1
279,9.72,-8.48,7.13,1
280,9.73,-5.36,-2.85,1
281,9.75,-6.39,0.67,1
282,9.76,-12.08,-17.72,1
283,9.77,-4.24,13.96,1
284,9.79,-18.29,-0.1,1
285,9.8,-7.73,-4.47,1
286,9.81,-2.28,1.01,1
287,9.83,-5.52,-17.2,1
288,9.84,-6.5,-1.04,1
289,9.85,-5.21,-5.51,1
290,9.87,-6.03,3.86,1
291,9.88,-8.29,-5.86,1
292,9.89,-9.97,16.47,1
293,9.91,-11.96,-10.49,1
294,9.92,3.9,-1.06,1
295,9.93,0.63,-16.1,1
296,9.95,1.03,8.66,1
297,9.96,20.28,-12.33,1
298,9.97,5.87,3.14,1
299,9.99,0.93,-4.26,1
300,10.0,-15.23,-8.49,1
301,10.01,-16.01,2.6,1
302,10.03,0.01,-5.92,1
303,10.04,1.94,1.28,1
304,10.05,17.44,-3.84,1
305,10.07,3.65,0.69,1
306,10.08,-4.19,-6.16,1
307,10.09,9.11,-6.93,1
308,10.11,-4.73,-2.99,1
309,10.12,7.18,-0.74,1
310,10.13,12.68,1.91,1
311,10.15,-8.98,3.57,0
312,10.16,11.12,-2.7,0
313,10.17,-6.0,-2.1,0
314,10.19,6.48,-4.59,0
315,10.2,0.16,44.19,0
316,10.21,-47.89,15.52,0
317,10.23,-100.28,14.26,0
318,10.24,-133.36,-23.73,0
319,10.25,-123.8,-10.9,0
320,10.27,-109.29,-2.53,0
321,10.28,-44.28,-45.49,0
322,10.29,-22.05,-9.64,0
323,10.31,25.99,-15.64,0
324,10.32,61.92,-20.7,0
325,10.33,74.46,-14.93,0
326,10.35,96.96,-18.35,0
327,10.36,113.08,-7.18,0
328,10.37,123.45,12.11,0
329,10.39,106.26,5.93,0
330,10.4,112.93,-0.14,0
331,10.41,96.29,-2.22,0
332,10.43,80.94,27.13,0
333,10.44,61.61,25.19,0
334,10.45,64.29,-8.76,0
335,10.47,59.53,26.44,0
336,10.48,58.69,33.98,0
337,10.49,44.27,9.9,0
338,10.51,9.68,3.38,0
339,10.52,35.42,-1.92,0
340,10.53,-11.84,10.44,0
341,10.55,-18.0,5.21,1
342,10.56,-22.76,8.6,1
343,10.57,-19.27,11.69,1
344,10.59,-23.87,21.31,1
345,10.6,-23.19,0.92,1
346,10.61,-43.52,-15.34,1
347,10.63,-40.17,-24.3,1
348,10.64,-56.84,-11.22,1
349,10.65,-44.95,3.07,1
350,10.67,-37.14,0.2,1
351,10.68,-46.0,-0.68,1
352,10.69,-51.58,6.7,1
353,10.71,-44.12,15.44,1
354,10.72,-66.26,6.93,1
355,10.73,-42.06,18.69,1
356,10.75,-40.76,23.83,1
357,10.76,-60.34,14.83,1
358,10.77,-37.8,41.39,1
359,10.79,-43.62,33.3,1
360,10.8,-54.03,-13.02,1
361,10.81,-40.44,-3.2,1
362,10.83,-44.9,-28.74,1
363,10.84,-10.94,-39.38,1
364,10.85,-16.33,-29.28,1
365,10.87,-25.24,-38.0,1
366,10.88,-22.99,-16.91,1
367,10.89,-28.25,-10.86,1
368,10.91,-21.01,1.38,1
369,10.92,-11.78,-0.17,1
370,10.93,-0.49,-10.23,1
371,10.95,3.21,-22.13,1
372,10.96,22.14,-40.62,1
373,10.97,14.39,-4.39,1
374,10.99,23.1,-41.74,1
375,11.0,30.6,-24.64,1
376,11.01,-2.13,-1.21,1
377,11.03,17.27,-6.79,1
378,11.04,23.88,18.97,1
379,11.05,37.7,-14.29,1
380,11.07,21.96,-12.37,1
381,11.08,17.77,7.73,1
382,11.09,37.07,-12.5,1
383,11.11,39.26,24.14,1
384,11.12,23.4,26.82,1
385,11.13,20.02,15.92,1
386,11.15,13.89,36.78,1
387,11.16,6.0,32.86,1
388,11.17,10.96,31.5,1
389,11.19,14.57,12.65,1
390,11.2,25.88,11.22,1
391,11.21,21.04,27.76,1
392,11.23,26.48,4.32,1
393,11.24,12.33,9.49,1
394,11.25,9.73,-1.91,1
395,11.27,12.05,4.0,1
396,11.28,-11.75,5.59,1
397,11.29,2.44,38.14,1
398,11.31,-6.66,27.47,1
399,11.32,10.44,-18.0,1
400,11.33,23.9,-6.71,1
401,11.35,10.03,-21.33,1
402,11.36,-0.03,-15.83,1
403,11.37,-3.03,13.59,1
404,11.39,9.8,-5.42,1
405,11.4,-12.12,4.74,1
406,11.41,1.03,-27.01,1
407,11.43,-15.01,-17.57,1
408,11.44,12.16,-15.67,1
409,11.45,-13.6,-21.37,1
410,11.47,-3.72,7.43,1
411,11.48,3.07,-21.41,1
412,11.49,11.43,-9.81,1
413,11.51,7.28,-6.47,1
414,11.52,-17.11,-5.13,1
415,11.53,6.45,-5.48,1
416,11.55,-5.34,-0.77,1
417,11.56,7.69,-5.25,1
418,11.57,0.12,-8.87,1
419,11.59,8.18,8.14,1
420,11.6,9.16,-3.81,1
421,11.61,9.96,-34.85,1
422,11.63,7.6,-11.35,1
423,11.64,-15.86,0.37,1
424,11.65,-7.59,12.96,1
425,11.67,-17.66,-1.38,1
426,11.68,-12.94,19.92,1
427,11.69,-18.49,1.86,1
428,11.71,-16.87,16.35,1
429,11.72,-17.13,-5.06,1
430,11.73,-12.72,-17.18,1
431,11.75,-4.69,-25.89,1
432,11.76,3.04,2.18,1
433,11.77,4.86,-0.45,1
434,11.79,-2.81,14.02,1
435,11.8,-8.29,13.59,1
436,11.81,-6.98,-9.93,1
437,11.83,-2.24,-0.63,1
438,11.84,5.56,-0.31,1
439,11.85,6.44,-6.27,1
440,11.87,1.54,-7.11,1
441,11.88,-2.84,9.86,1
442,11.89,-4.08,1.44,1
443,11.91,-8.08,8.73,1
444,11.92,1.55,20.74,1
445,11.93,-7.3,-12.16,1
446,11.95,-2.01,-0.23,1
447,11.96,-1.1,4.67,1
448,11.97,4.26,21.16,1
449,11.99,13.09,14.25,1
450,12.0,-1.9,21.94,1
451,12.01,-13.34,6.34,1
452,12.03,-13.66,16.25,1
453,12.04,7.59,1.18,1
454,12.05,1.4,9.49,1
455,12.07,-15.4,5.88,1
456,12.08,6.95,-0.11,1
457,12.09,-2.28,4.76,1
458,12.11,6.33,5.47,1
459,12.12,8.57,3.69,1
460,12.13,-2.14,-1.99,1
461,12.15,-3.62,11.65,2
462,12.16,3.95,10.16,2
463,12.17,-21.81,-7.92,2
464,12.19,5.98,-3.9,2
465,12.2,20.68,21.15,2
466,12.21,21.5,10.3,2
467,12.23,14.34,5.34,2
468,12.24,71.68,-18.77,2
469,12.25,93.8,-11.03,2
470,12.27,123.22,-20.1,2
471,12.28,131.52,-8.3,2
472,12.29,124.57,-13.0,2
473,12.31,128.93,-7.71,2
474,12.32,85.53,-7.07,2
475,12.33,63.74,-28.65,2
476,12.35,15.29,-19.47,2
477,12.36,-57.94,-23.45,2
478,12.37,-127.33,-28.22,2
479,12.39,-192.97,-10.33,2
480,12.4,-206.49,-5.79,2
481,12.41,-193.22,12.86,2
482,12.43,-202.8,19.97,2
483,12.44,-193.42,9.81,2
484,12.45,-170.56,22.13,2
485,12.47,-132.68,18.42,2
486,12.48,-100.3,18.98,2
487,12.49,-75.67,-1.9,2
488,12.51,-52.73,6.19,2
489,12.52,-44.36,22.36,2
490,12.53,-9.43,29.11,2
491,12.55,-11.74,29.8,1
492,12.56,6.1,5.1,1
493,12.57,21.68,-4.49,1
494,12.59,40.79,-10.09,1
495,12.6,57.93,-7.7,1
496,12.61,64.89,-32.14,1
497,12.63,54.5,-38.45,1
498,12.64,78.48,-32.98,1
499,12.65,64.76,-5.47,1
500,12.67,61.71,-16.65,1
501,12.68,75.65,5.2,1
502,12.69,72.04,5.36,1
503,12.71,68.47,3.56,1
504,12.72,72.85,-1.3,1
505,12.73,72.54,-1.44,1
506,12.75,71.01,7.81,1
507,12.76,56.8,6.64,1
508,12.77,45.34,-3.63,1
509,12.79,52.63,12.83,1
510,12.8,57.72,2.55,1
511,12.81,57.72,5.38,1
512,12.83,53.8,11.4,1
513,12.84,55.81,-9.12,1
514,12.85,27.85,17.16,1
515,12.87,19.22,-3.66,1
516,12.88,16.43,11.38,1
517,12.89,14.32,6.75,1
518,12.91,33.22,-11.92,1
519,12.92,13.84,5.37,1
520,12.93,9.34,-4.95,1
521,12.95,18.53,-2.44,1
522,12.96,-1.88,-1.47,1
523,12.97,11.1,-12.44,1
524,12.99,-7.55,-6.42,1
525,13.0,-4.25,-1.18,1
526,13.01,-12.88,-14.53,1
527,13.03,-14.9,-4.96,1
528,13.04,-25.2,-3.3,1
529,13.05,-23.31,-28.62,1
530,13.07,-27.52,3.95,1
531,13.08,-36.05,7.09,1
532,13.09,-23.28,-6.73,1
533,13.11,-24.7,2.94,1
534,13.12,-36.88,1.58,1
535,13.13,-34.49,-1.89,1
536,13.15,-21.48,-23.47,1
537,13.16,-36.31,-8.74,1
538,13.17,-24.75,5.57,1
539,13.19,-36.33,1.78,1
540,13.2,-29.21,2.4,1
541,13.21,-17.17,-5.87,1
542,13.23,-17.15,-2.1,1
543,13.24,-16.92,21.95,1
544,13.25,-21.66,-9.7,1
545,13.27,-24.87,13.53,1
546,13.28,-25.27,13.32,1
547,13.29,-23.24,4.98,1
548,13.31,-17.21,9.04,1
549,13.32,-3.26,19.02,1
550,13.33,-12.03,-7.01,1
551,13.35,-17.11,2.08,1
552,13.36,-17.49,-5.81,1
553,13.37,-25.23,10.7,1
554,13.39,-19.16,-0.58,1
555,13.4,-9.96,-7.7,1
556,13.41,-13.93,17.86,1
557,13.43,-22.53,20.04,1
558,13.44,-8.49,3.62,1
559,13.45,-11.37,4.72,1
560,13.47,2.09,-19.09,1
561,13.48,-6.61,8.16,1
562,13.49,-2.71,12.65,1
563,13.51,16.92,-0.11,1
564,13.52,13.03,5.68,1
565,13.53,16.92,-0.46,1
566,13.55,16.23,8.05,1
567,13.56,-4.28,-0.18,1
568,13.57,6.43,-10.92,1
569,13.59,2.38,0.21,1
570,13.6,19.87,4.8,1
571,13.61,26.93,20.42,1
572,13.63,18.86,29.66,1
573,13.64,15.48,-10.88,1
574,13.65,11.92,-1.76,1
575,13.67,2.95,-27.26,1
576,13.68,10.27,-0.26,1
577,13.69,4.06,-1.69,1
578,13.71,9.1,1.97,1
579,13.72,39.38,8.33,1
580,13.73,16.89,-1.45,1
581,13.75,7.9,-11.58,1
582,13.76,12.79,1.19,1
583,13.77,10.64,-10.85,1
584,13.79,2.78,0.18,1
585,13.8,-12.12,-5.68,1
586,13.81,-2.46,-10.67,1
587,13.83,21.99,6.98,1
588,13.84,3.86,-8.16,1
589,13.85,27.03,-8.83,1
590,13.87,10.76,-7.96,1
591,13.88,-1.63,-8.45,1
592,13.89,-8.79,-18.16,1
593,13.91,-3.5,-2.71,1
594,13.92,-11.95,-2.65,1
595,13.93,-15.32,1.32,1
596,13.95,2.91,1.41,1
597,13.96,1.17,4.59,1
598,13.97,-11.59,-4.37,1
599,13.99,6.99,22.47,1
600,14.0,-2.42,2.97,1
601,14.01,-4.07,-17.47,1
602,14.03,-11.75,-16.11,1
603,14.04,-1.3,5.69,1
604,14.05,12.77,-2.68,1
605,14.07,11.9,-5.44,1
606,14.08,-9.4,-3.91,1
607,14.09,-21.0,-10.7,1
608,14.11,-2.18,-7.54,1
609,14.12,-2.94,3.91,1
610,14.13,-0.7,55.74,1
611,14.15,8.01,57.77,1
612,14.16,-6.79,174.93,1
613,14.17,141.72,370.5,1
614,14.19,70.98,79.73,1
615,14.2,37.97,92.28,1
616,14.21,52.16,61.47,1
617,14.23,145.84,-369.98,1
618,14.24,228.95,-143.63,1
619,14.25,85.08,-100.01,1
620,14.27,-18.15,-28.64,1
621,14.28,153.99,106.54,1
622,14.29,53.57,219.09,1
623,14.31,-37.78,147.99,1
624,14.32,-78.66,114.01,1
625,14.33,-74.55,59.37,1
626,14.35,-75.38,20.96,1
627,14.36,-128.33,-18.06,1
628,14.37,-222.32,-48.91,1
629,14.39,-160.32,-74.54,1
630,14.4,-231.95,-94.49,1
631,14.41,-339.37,-189.31,1
632,14.43,-251.75,-272.72,1
633,14.44,-167.97,-211.3,1
634,14.45,-133.27,-442.9,1
635,14.47,-119.66,-145.16,1
636,14.48,-179.28,-446.5,1
637,14.49,-201.09,174.06,1
638,14.51,25.36,-225.93,1
639,14.52,41.73,-284.05,1
640,14.53,-85.21,52.67,1
641,14.55,180.82,49.59,1
642,14.56,162.78,-136.33,1
643,14.57,151.07,-173.45,1
644,14.59,-19.02,-39.41,1
645,14.6,217.33,75.49,1
646,14.61,45.92,-322.39,1
647,14.63,32.35,-148.17,1
648,14.64,-26.3,189.88,1
649,14.65,191.89,349.55,1
650,14.67,115.59,288.88,1
651,14.68,5.53,-59.39,1
652,14.69,-35.63,-15.86,1
653,14.71,106.43,124.12,1
654,14.72,140.89,207.44,1
655,14.73,60.33,647.82,1
656,14.75,-123.77,303.3,1
657,14.76,207.52,98.9,1
658,14.77,91.71,180.24,1
659,14.79,163.29,300.6,1
660,14.8,-55.61,58.44,1
661,14.81,45.41,-73.86,1
662,14.83,206.75,411.07,1
663,14.84,192.61,-29.49,1
664,14.85,108.48,71.64,1
665,14.87,148.34,187.5,1
666,14.88,-167.38,-240.66,1
667,14.89,-71.73,-265.32,1
668,14.91,-114.61,38.95,1
669,14.92,150.21,248.78,1
670,14.93,-39.71,-273.64,1
671,14.95,33.14,-343.81,1
672,14.96,50.75,87.53,1
673,14.97,-74.61,-183.38,1
674,14.99,-108.0,-61.62,1
675,15.0,-20.21,-278.5,1
676,15.01,-138.55,-198.11,1
677,15.03,-170.22,-220.45,1
678,15.04,-222.52,-168.64,1
679,15.05,-113.7,-3.62,1
680,15.07,-48.46,135.1,1
681,15.08,11.78,86.87,1
682,15.09,50.42,155.5,1
683,15.11,74.28,141.56,1
684,15.12,77.24,142.59,1
685,15.13,88.55,166.84,1
686,15.15,75.59,119.13,1
687,15.16,71.14,122.67,1
688,15.17,68.54,128.72,1
689,15.19,80.73,144.73,1
690,15.2,56.64,142.21,1
691,15.21,55.37,142.79,1
692,15.23,37.36,125.89,1
693,15.24,48.94,88.8,1
694,15.25,22.51,80.49,1
695,15.27,1.58,60.46,1
696,15.28,-12.97,29.95,1
697,15.29,-17.28,23.32,1
698,15.31,-24.02,-25.73,1
699,15.32,-34.41,-36.48,1
700,15.33,-40.63,-49.86,1
701,15.35,-39.81,-47.44,1
702,15.36,-59.1,-66.28,1
703,15.37,-43.98,-84.92,1
704,15.39,-58.86,-67.58,1
705,15.4,-53.87,-99.95,1
706,15.41,-49.25,-83.5,1
707,15.43,-49.6,-111.71,1
708,15.44,-48.8,-115.24,1
709,15.45,-46.61,-120.25,1
710,15.47,-49.27,-115.98,1
711,15.48,-54.75,-115.71,1
712,15.49,-47.16,-100.75,1
713,15.51,-48.46,-104.27,1
714,15.52,-36.06,-105.81,1
715,15.53,-40.16,-119.92,1
716,15.55,-72.8,-109.68,1
717,15.56,-30.21,-95.95,1
718,15.57,-40.21,-69.85,1
719,15.59,-22.46,-57.78,1
720,15.6,-10.37,-45.81,1
721,15.61,-21.33,-64.37,1
722,15.63,-10.91,-42.59,1
723,15.64,-4.5,-75.44,1
724,15.65,-5.85,-58.18,1
725,15.67,-2.43,-38.79,1
726,15.68,11.31,-15.14,1
727,15.69,9.89,-16.22,1
728,15.71,7.77,-7.68,1
729,15.72,5.89,1.13,1
730,15.73,1.36,12.92,1
731,15.75,18.44,-5.33,1
732,15.76,9.97,16.73,1
733,15.77,10.62,30.71,1
734,15.79,13.39,50.67,1
735,15.8,17.09,47.57,1
736,15.81,12.66,32.34,1
737,15.83,26.33,41.69,1
738,15.84,30.39,74.86,1
739,15.85,28.47,38.21,1
740,15.87,28.51,42.22,1
741,15.88,17.36,54.48,1
742,15.89,38.0,58.39,1
743,15.91,16.47,39.86,1
744,15.92,41.17,45.24,1
745,15.93,24.69,64.0,1
746,15.95,25.39,44.62,1
747,15.96,25.87,64.32,1
748,15.97,22.46,53.81,1
749,15.99,13.6,40.5,1
750,16.0,8.22,53.4,1
751,16.01,12.97,55.49,1
752,16.03,14.76,45.37,1
753,16.04,16.1,61.7,1
754,16.05,22.32,37.37,1
755,16.07,17.65,34.16,1
756,16.08,10.74,29.24,1
757,16.09,14.9,30.6,1
758,16.11,2.68,12.93,1
759,16.12,4.69,2.53,1
760,16.13,14.86,14.59,1
761,16.15,2.54,9.71,1
762,16.16,5.08,-7.37,2
763,16.17,8.19,23.22,2
764,16.19,-13.88,9.9,2
765,16.2,63.14,-40.2,2
766,16.21,121.78,-30.29,2
767,16.23,150.56,-13.3,2
768,16.24,140.2,-20.07,2
769,16.25,100.14,-49.63,2
770,16.27,64.92,-66.46,2
771,16.28,7.77,-40.74,2
772,16.29,-51.89,-11.58,2
773,16.31,-72.91,-29.02,2
774,16.32,-101.42,-8.47,2
775,16.33,-115.88,4.72,2
776,16.35,-142.41,29.94,2
777,16.36,-109.56,15.6,2
778,16.37,-135.92,6.18,2
779,16.39,-113.23,30.95,2
780,16.4,-123.85,32.91,2
781,16.41,-96.28,19.33,2
782,16.42,-95.81,30.48,2
783,16.44,-77.31,38.18,2
784,16.45,-33.93,27.2,2
785,16.47,-46.62,8.17,2
786,16.48,-54.06,10.65,2
787,16.49,-38.21,2.6,2
788,16.51,-19.88,-21.72,2
789,16.52,-16.93,-24.27,2
790,16.53,-5.13,-14.15,2
791,16.55,9.36,-34.7,1
792,16.56,27.54,-18.46,1
793,16.57,27.45,-40.84,1
794,16.59,34.89,-31.86,1
795,16.6,33.89,-21.54,1
796,16.61,41.01,-17.72,1
797,16.63,57.75,-21.93,1
798,16.64,57.68,-31.47,1
799,16.65,40.55,-28.03,1
800,16.67,49.43,-52.49,1
801,16.68,53.89,-45.27,1
802,16.69,55.84,-37.64,1
803,16.71,42.91,-27.8,1
804,16.72,50.87,-37.41,1
805,16.73,36.86,1.04,1
806,16.75,32.73,0.19,1
807,16.76,39.96,-6.98,1
808,16.77,43.35,-11.23,1
809,16.79,58.94,-15.2,1
810,16.8,49.14,-5.52,1
811,16.81,29.5,13.36,1
812,16.83,38.41,-15.27,1
813,16.84,23.49,13.05,1
814,16.85,12.95,16.88,1
815,16.87,22.49,6.97,1
816,16.88,4.56,19.47,1
817,16.89,15.27,12.56,1
818,16.91,-1.38,23.29,1
819,16.92,7.61,4.56,1
820,16.93,0.81,10.72,1
821,16.95,-2.91,22.71,1
822,16.96,-5.31,22.82,1
823,16.97,-0.93,9.12,1
824,16.99,1.38,11.74,1
825,17.0,-12.95,8.82,1
826,17.01,6.5,24.53,1
827,17.03,-14.44,-6.19,1
828,17.04,-21.81,15.26,1
829,17.05,-40.19,22.39,1
830,17.06,-15.12,13.52,1
831,17.08,-18.12,7.76,1
832,17.09,-4.4,23.99,1
833,17.11,-14.73,19.1,1
834,17.12,-10.23,21.83,1
835,17.13,-5.85,17.05,1
836,17.15,-18.83,5.55,1
837,17.16,-13.79,0.57,1
838,17.17,-11.6,5.82,1
839,17.19,-27.38,1.07,1
840,17.2,-33.12,-3.83,1
841,17.21,-22.24,7.22,1
842,17.23,-12.73,-5.38,1
843,17.24,-9.87,-9.39,1
844,17.25,-16.26,5.47,1
845,17.27,-18.76,-15.98,1
846,17.28,-14.08,-24.09,1
847,17.29,-14.88,-1.24,1
848,17.31,-25.89,4.35,1
849,17.32,-20.41,-8.52,1
850,17.33,-12.5,-14.66,1
851,17.35,-13.84,21.35,1
852,17.36,-0.43,0.94,1
853,17.37,-0.32,9.73,1
854,17.39,-17.58,-4.91,1
855,17.4,-5.23,4.78,1
856,17.41,-13.64,-2.81,1
857,17.43,-10.76,-10.62,1
858,17.44,13.5,-17.58,1
859,17.45,9.85,-4.29,1
860,17.47,12.46,-2.37,1
861,17.48,-3.42,-19.27,1
862,17.49,-9.84,-11.69,1
863,17.51,-6.44,-13.29,1
864,17.52,1.5,-5.47,1
865,17.53,1.76,-8.12,1
866,17.55,-2.47,-2.21,1
867,17.56,13.7,-5.41,1
868,17.57,6.27,-9.73,1
869,17.59,2.16,-18.63,1
870,17.6,12.81,6.16,1
871,17.61,5.87,19.76,1
872,17.63,21.47,3.51,1
873,17.64,15.24,0.91,1
874,17.65,19.63,8.71,1
875,17.67,1.97,-0.38,1
876,17.68,-6.05,3.6,1
877,17.69,-0.44,-7.08,1
878,17.7,3.41,4.72,1
879,17.72,10.05,3.58,1
880,17.73,-7.42,-2.99,1
881,17.75,12.74,-1.1,1
882,17.76,-0.26,7.14,1
883,17.77,15.46,4.78,1
884,17.79,3.77,1.79,1
885,17.8,8.49,6.54,1
886,17.81,9.21,14.2,1
887,17.83,0.14,-4.27,1
888,17.84,3.49,-3.7,1
889,17.85,-10.18,13.07,1
890,17.87,0.45,3.97,1
891,17.88,-23.99,1.2,1
892,17.89,3.89,-8.11,1
893,17.91,15.34,2.88,1
894,17.92,9.61,-0.86,1
895,17.93,17.89,-7.57,1
896,17.95,2.98,-19.18,1
897,17.96,-5.1,1.88,1
898,17.97,2.09,13.94,1
899,17.99,-6.55,1.65,1
900,18.0,-1.7,-7.47,1
901,18.01,-11.38,-12.4,1
902,18.03,-0.56,-7.7,1
903,18.04,-13.29,-12.51,1
904,18.05,6.17,17.79,1
905,18.07,-7.36,14.21,1
906,18.08,-0.68,-1.88,1
907,18.09,17.89,1.68,1
908,18.11,6.47,6.89,1
909,18.12,-0.25,-8.19,1
910,18.13,10.09,1.51,1
911,18.15,-8.63,-17.47,1
912,18.16,0.77,3.17,0
913,18.17,-9.27,9.04,0
914,18.19,3.8,4.04,0
915,18.2,15.46,-30.75,0
916,18.21,-77.94,31.17,0
917,18.23,-87.7,18.6,0
918,18.24,-119.29,31.56,0
919,18.25,-132.06,12.97,0
920,18.27,-134.36,20.58,0
921,18.28,-112.22,23.24,0
922,18.29,-77.73,3.32,0
923,18.31,-54.31,1.35,0
924,18.32,-18.73,-6.0,0
925,18.33,7.55,1.19,0
926,18.34,42.81,-45.33,0
927,18.36,96.55,-26.69,0
928,18.37,170.08,-40.63,0
929,18.39,217.64,-45.25,0
930,18.4,214.43,-17.14,0
931,18.41,220.97,-7.04,0
932,18.43,201.75,-13.4,0
933,18.44,165.66,-23.9,0
934,18.45,142.42,-19.44,0
935,18.47,111.54,13.02,0
936,18.48,94.38,-12.82,0
937,18.49,59.26,-28.24,0
938,18.51,53.39,14.05,0
939,18.52,21.94,2.6,0
940,18.53,-11.7,-10.76,0
941,18.55,41.84,-12.13,1
942,18.56,10.84,-18.87,1
943,18.57,-25.68,24.76,1
944,18.59,-60.76,19.98,1
945,18.6,-79.29,26.21,1
946,18.61,-88.02,32.6,1
947,18.63,-128.07,41.83,1
948,18.64,-107.66,20.42,1
949,18.65,-111.76,20.65,1
950,18.67,-108.2,44.52,1
951,18.68,-99.97,30.75,1
952,18.69,-93.09,31.3,1
953,18.71,-74.82,-4.28,1
954,18.72,-87.78,19.45,1
955,18.73,-80.45,3.55,1
956,18.75,-76.87,6.9,1
957,18.76,-78.0,4.11,1
958,18.77,-64.22,11.76,1
959,18.79,-53.27,-3.04,1
960,18.8,-49.45,-6.9,1
961,18.81,-55.38,-7.49,1
962,18.83,-22.99,-3.45,1
963,18.84,-37.33,-13.32,1
964,18.85,-31.78,-26.76,1
965,18.87,-19.57,-12.63,1
966,18.88,-2.42,-18.77,1
967,18.89,-12.54,-17.64,1
968,18.91,0.27,8.93,1
969,18.92,13.3,-9.06,1
970,18.93,-1.12,-8.23,1
971,18.95,1.04,-18.85,1
972,18.96,14.65,-4.76,1
973,18.97,15.16,24.91,1
974,18.98,29.85,-13.53,1
975,19.0,15.01,-5.67,1
976,19.01,38.33,-15.72,1
977,19.025,22.7,3.7,1
978,19.04,28.42,-3.68,1
979,19.05,18.37,-6.02,1
980,19.07,23.41,-5.25,1
981,19.08,28.63,-16.44,1
982,19.09,26.31,-8.04,1
983,19.11,41.25,-7.99,1
984,19.12,46.29,-3.38,1
985,19.13,39.85,1.43,1
986,19.15,32.24,3.48,1
987,19.16,28.57,23.56,1
988,19.17,26.67,3.45,1
989,19.19,22.18,8.62,1
990,19.2,31.06,4.19,1
991,19.21,17.58,-20.46,1
992,19.23,28.82,-6.01,1
993,19.24,24.4,5.45,1
994,19.25,20.11,-25.11,1
995,19.27,14.09,-10.76,1
996,19.28,25.0,18.27,1
997,19.29,30.3,7.64,1
998,19.31,15.47,14.45,1
999,19.32,18.98,4.45,1
1000,19.33,18.62,17.48,1
1001,19.35,-3.11,-2.95,1
1002,19.36,1.96,5.16,1
1003,19.37,11.57,-9.01,1
1004,19.39,7.56,12.93,1
1005,19.4,15.64,5.2,1
1006,19.41,-5.07,-5.72,1
1007,19.43,4.85,0.8,1
1008,19.44,6.22,12.06,1
1009,19.45,-5.71,5.49,1
1010,19.47,-6.03,7.41,1
1011,19.48,-8.89,1.78,1
1012,19.49,1.27,-12.95,1
1013,19.51,-5.21,-2.45,1
1014,19.52,-12.47,0.12,1
1015,19.53,-2.03,12.58,1
1016,19.55,0.98,12.94,1
1017,19.56,-5.99,-10.16,1
1018,19.57,-1.85,13.31,1
1019,19.59,-19.8,-8.79,1
1020,19.6,-14.57,-13.92,1
1021,19.61,-22.96,-12.18,1
1022,19.62,-13.59,-4.65,1
1023,19.64,-14.42,-13.63,1
1024,19.65,-6.94,-12.66,1
1025,19.67,-18.07,1.38,1
1026,19.68,-12.27,9.36,1
1027,19.69,-13.39,-1.86,1
1028,19.71,2.23,-14.9,1
1029,19.72,-6.21,-6.15,1
1030,19.73,-15.45,-1.79,1
1031,19.75,-4.41,-5.7,1
1032,19.76,-12.8,-3.47,1
1033,19.77,-14.6,-2.79,1
1034,19.79,-6.92,-1.04,1
1035,19.8,-5.75,-4.36,1
1036,19.81,-8.57,17.46,1
1037,19.83,0.84,1.87,1
1038,19.84,-7.02,-5.76,1
1039,19.85,-10.18,-0.06,1
1040,19.87,-9.58,21.24,1
1041,19.88,0.87,5.81,1
1042,19.89,-14.25,-16.12,1
1043,19.91,-2.28,4.77,1
1044,19.92,-5.53,-7.54,1
1045,19.93,3.79,6.44,1
1046,19.95,5.38,17.01,1
1047,19.96,10.71,16.08,1
1048,19.97,-4.34,11.98,1
1049,19.99,7.24,7.17,1
1050,20.0,-6.07,19.39,1
1051,20.01,13.18,-3.27,1
1052,20.03,6.9,-13.12,1
1053,20.04,-10.38,4.98,1
1054,20.05,-0.59,-6.01,1
1055,20.07,-1.37,-3.49,1
1056,20.08,6.86,-15.44,1
1057,20.09,-2.44,6.41,1
1058,20.11,4.47,-25.47,1
1059,20.12,12.83,-8.32,1
1060,20.13,-7.4,-0.43,1
1061,20.15,14.55,3.35,1
1062,20.16,11.95,15.61,0
1063,20.17,-1.89,18.52,0
1064,20.19,7.66,-27.51,0
1065,20.2,8.73,-12.22,0
1066,20.21,0.51,6.25,0
1067,20.23,-51.63,-10.08,0
1068,20.24,-97.78,-13.23,0
1069,20.25,-140.94,14.36,0
1070,20.26,-133.61,25.79,0
1071,20.28,-115.08,-15.37,0
1072,20.29,-65.06,19.44,0
1073,20.3,-22.36,-26.05,0
1074,20.32,14.66,-44.25,0
1075,20.33,62.71,-7.14,0
1076,20.35,73.39,-2.44,0
1077,20.36,100.36,-12.15,0
1078,20.37,117.5,-3.57,0
1079,20.39,114.08,10.25,0
1080,20.4,101.6,23.78,0
1081,20.41,118.31,14.85,0
1082,20.43,117.68,21.83,0
1083,20.44,108.62,28.77,0
1084,20.45,94.14,7.69,0
1085,20.47,87.5,10.73,0
1086,20.48,70.56,20.12,0
1087,20.49,65.86,-4.99,0
1088,20.51,48.33,5.65,0
1089,20.52,40.88,-5.18,0
1090,20.53,17.65,2.22,0
1091,20.55,4.74,11.94,1
1092,20.56,-3.36,38.64,1
1093,20.57,-31.68,-14.67,1
1094,20.59,-21.78,19.16,1
1095,20.6,-46.47,21.84,1
1096,20.61,-58.41,-8.72,1
1097,20.63,-69.73,2.39,1
1098,20.64,-67.75,-9.04,1
1099,20.65,-73.99,-24.32,1
1100,20.67,-77.49,-4.15,1
1101,20.68,-55.15,4.07,1
1102,20.69,-63.03,-9.25,1
1103,20.71,-53.36,6.79,1
1104,20.72,-50.62,-15.67,1
1105,20.73,-32.95,-11.46,1
1106,20.75,-53.63,1.09,1
1107,20.76,-30.08,-9.11,1
1108,20.77,-35.45,-12.27,1
1109,20.79,-31.02,-4.63,1
1110,20.8,-41.33,0.81,1
1111,20.81,-23.2,-28.38,1
1112,20.83,-15.43,-22.29,1
1113,20.84,-22.89,-9.69,1
1114,20.85,-15.46,5.57,1
1115,20.87,-16.02,-24.93,1
1116,20.88,-10.42,-24.35,1
1117,20.89,-18.13,0.03,1
1118,20.9,-24.64,-13.76,1
1119,20.92,-21.94,-0.23,1
1120,20.93,-10.72,-10.73,1
1121,20.94,-4.99,-2.17,1
1122,20.96,3.35,-5.66,1
1123,20.97,-6.35,-12.58,1
1124,20.99,0.04,-7.29,1
1125,21.0,-3.32,-1.86,1
1126,21.01,3.36,-2.51,1
1127,21.03,13.66,10.12,1
1128,21.04,17.34,-1.06,1
1129,21.05,4.67,25.08,1
1130,21.07,5.91,3.94,1
1131,21.08,10.57,6.54,1
1132,21.09,21.13,17.68,1
1133,21.11,19.4,7.29,1
1134,21.12,22.37,-5.17,1
1135,21.13,25.56,16.17,1
1136,21.15,28.38,-0.52,1
1137,21.16,26.73,-5.46,1
1138,21.17,1.45,20.09,1
1139,21.19,17.47,2.52,1
1140,21.2,41.94,20.86,1
1141,21.21,27.83,14.87,1
1142,21.23,34.69,-3.43,1
1143,21.24,30.95,-5.05,1
1144,21.25,20.38,-3.22,1
1145,21.27,14.53,17.27,1
1146,21.28,3.55,-7.88,1
1147,21.29,12.81,5.01,1
1148,21.31,7.54,9.83,1
1149,21.32,13.46,14.08,1
1150,21.33,7.06,-14.6,1
1151,21.35,17.37,-2.43,1
1152,21.36,15.57,21.12,1
1153,21.37,10.47,4.01,1
1154,21.39,2.6,-2.64,1
1155,21.4,5.88,-7.31,1
1156,21.41,11.2,-4.72,1
1157,21.43,3.06,26.38,1
1158,21.44,2.33,12.07,1
1159,21.45,-2.68,2.08,1
1160,21.47,-2.44,3.81,1
1161,21.48,4.2,3.95,1
1162,21.49,4.31,5.19,1
1163,21.51,-7.4,0.67,1
1164,21.52,-11.97,-17.59,1
1165,21.53,-12.7,8.51,1
1166,21.54,-13.85,17.31,1
1167,21.56,-10.58,-5.75,1
1168,21.57,0.68,1.99,1
1169,21.58,6.52,3.85,1
1170,21.6,4.91,-4.79,1
1171,21.61,-4.74,-1.06,1
1172,21.62,1.46,17.65,1
1173,21.64,2.27,-5.65,1
1174,21.65,-0.62,-5.78,1
1175,21.67,-5.33,-12.65,1
1176,21.68,-7.85,-8.85,1
1177,21.69,-8.56,3.25,1
1178,21.71,-3.02,-7.5,1
1179,21.72,-11.42,-16.56,1
1180,21.73,-5.82,-16.27,1
1181,21.75,-24.62,-17.66,1
1182,21.76,-12.04,-3.25,1
1183,21.77,-6.07,-18.49,1
1184,21.79,-16.72,4.09,1
1185,21.8,-6.66,7.59,1
1186,21.81,-13.83,4.25,1
1187,21.83,-2.07,-14.55,1
1188,21.84,-13.34,-24.82,1
1189,21.85,-1.35,0.89,1
1190,21.87,-8.11,-7.85,1
1191,21.88,5.32,-19.26,1
1192,21.89,-3.12,-12.26,1
1193,21.91,-3.97,-11.1,1
1194,21.92,6.36,-3.43,1
1195,21.93,-0.94,-2.35,1
1196,21.95,-17.13,-7.99,1
1197,21.96,1.48,-0.95,1
1198,21.97,11.46,-0.58,1
1199,21.99,0.34,-8.6,1
1200,22.0,-2.37,12.7,1
1201,22.01,-11.66,28.81,1
1202,22.03,5.4,18.74,1
1203,22.04,-16.01,4.71,1
1204,22.05,-7.08,14.62,1
1205,22.07,6.84,-0.72,1
1206,22.08,9.96,-8.44,1
1207,22.09,9.88,-29.11,1
1208,22.11,15.24,4.43,1
1209,22.12,6.49,6.45,1
1210,22.13,11.19,3.64,1
1211,22.15,11.52,20.63,1
1212,22.16,-3.24,0.11,2
1213,22.17,9.31,-2.97,2
1214,22.18,0.67,4.27,2
1215,22.2,-6.39,-14.84,2
1216,22.21,13.25,6.93,2
1217,22.22,17.92,1.05,2
1218,22.24,10.53,3.99,2
1219,22.25,-1.15,16.82,2
1220,22.26,-12.49,10.44,2
1221,22.28,4.36,16.88,2
1222,22.29,-5.27,17.69,2
1223,22.31,-14.68,19.08,2
1224,22.32,-27.37,-9.42,2
1225,22.33,74.38,-15.84,2
1226,22.35,94.32,-32.89,2
1227,22.36,113.15,-17.27,2
1228,22.37,111.57,7.93,2
1229,22.39,125.12,20.19,2
1230,22.4,94.39,16.45,2
1231,22.41,88.07,11.77,2
1232,22.43,62.49,17.42,2
1233,22.44,30.64,-3.29,2
1234,22.45,-14.74,-5.22,2
1235,22.47,-60.4,4.75,2
1236,22.48,-115.46,-3.27,2
1237,22.49,-178.04,16.05,2
1238,22.51,-197.8,33.18,2
1239,22.52,-209.26,-0.03,2
1240,22.53,-194.33,-8.3,2
1241,22.55,-186.93,15.8,1
1242,22.56,-154.7,-4.12,1
1243,22.57,-126.03,-6.79,1
1244,22.59,-99.39,2.47,1
1245,22.6,-83.38,-18.28,1
1246,22.61,-59.9,-8.08,1
1247,22.63,-26.97,2.4,1
1248,22.64,-20.22,-21.68,1
1249,22.65,-9.04,-19.33,1
1250,22.67,15.39,-16.8,1
1251,22.68,32.12,-17.76,1
1252,22.69,62.2,-33.02,1
1253,22.71,40.97,-4.29,1
1254,22.72,39.4,-13.1,1
1255,22.73,70.3,-11.83,1
1256,22.75,70.28,-12.1,1
1257,22.76,70.02,-11.93,1
1258,22.77,75.37,9.94,1
1259,22.79,100.49,11.29,1
1260,22.8,88.37,5.37,1
1261,22.81,36.97,19.22,1
1262,22.82,46.82,24.0,1
1263,22.84,68.3,11.55,1
1264,22.85,74.54,0.29,1
1265,22.86,75.67,16.85,1
1266,22.88,67.2,11.66,1
1267,22.89,70.14,-9.87,1
1268,22.9,83.23,-2.73,1
1269,22.92,56.79,-9.33,1
1270,22.93,57.55,0.82,1
1271,22.95,50.32,17.71,1
1272,22.96,59.57,-3.63,1
1273,22.97,36.56,24.28,1
1274,22.99,25.49,0.32,1
1275,23.0,23.26,-6.89,1
1276,23.01,15.0,2.98,1
1277,23.03,11.61,0.43,1
1278,23.04,19.26,-5.74,1
1279,23.05,-2.66,3.39,1
1280,23.07,-3.75,-2.6,1
1281,23.08,-9.41,4.89,1
1282,23.09,-11.46,6.44,1
1283,23.11,-21.83,8.98,1
1284,23.12,-31.48,8.66,1
1285,23.13,-16.56,-5.8,1
1286,23.15,-39.1,-20.28,1
1287,23.16,-27.6,-2.64,1
1288,23.17,-34.03,-7.35,1
1289,23.19,-31.17,4.75,1
1290,23.2,-38.29,-9.37,1
1291,23.21,-20.76,-2.92,1
1292,23.23,-24.75,-23.55,1
1293,23.24,-43.28,-21.94,1
1294,23.25,-34.38,-12.81,1
1295,23.27,-23.32,-10.52,1
1296,23.28,-30.08,-17.19,1
1297,23.29,-31.9,11.42,1
1298,23.31,-25.98,22.46,1
1299,23.32,-31.87,4.37,1
1300,23.33,-21.45,3.93,1
1301,23.35,-22.1,1.32,1
1302,23.36,-14.05,-3.08,1
1303,23.37,-31.29,11.93,1
1304,23.39,-35.14,-6.72,1
1305,23.4,-25.6,7.51,1
1306,23.41,-20.06,-11.37,1
1307,23.43,-12.51,12.15,1
1308,23.44,-23.64,21.65,1
1309,23.45,-8.12,9.26,1
1310,23.46,-17.43,7.79,1
1311,23.48,-21.99,-29.3,1
1312,23.49,-17.44,0.13,1
1313,23.5,-0.27,9.52,1
1314,23.52,-7.76,5.92,1
1315,23.53,10.95,-12.71,1
1316,23.54,-2.17,18.13,1
1317,23.56,4.54,-2.48,1
1318,23.57,5.74,-0.7,1
1319,23.59,-6.02,-8.51,1
1320,23.6,9.29,14.12,1
1321,23.61,14.01,-2.25,1
1322,23.63,14.85,8.23,1
1323,23.64,-0.29,4.86,1
1324,23.65,9.98,6.33,1
1325,23.67,11.96,16.64,1
1326,23.68,14.58,-8.39,1
1327,23.69,0.8,-2.34,1
1328,23.71,16.92,-7.95,1
1329,23.72,15.5,6.78,1
1330,23.73,19.68,-9.9,1
1331,23.75,7.27,3.0,1
1332,23.76,4.21,-2.34,1
1333,23.77,6.05,0.71,1
1334,23.79,3.6,2.44,1
1335,23.8,-0.33,-4.67,1
1336,23.81,10.54,4.49,1
1337,23.83,9.66,10.39,1
1338,23.84,14.14,-12.32,1
1339,23.85,8.38,0.32,1
1340,23.87,0.77,-17.13,1
1341,23.88,14.15,0.13,1
1342,23.89,-0.45,6.04,1
1343,23.91,7.42,6.09,1
1344,23.92,8.83,-11.27,1
1345,23.93,4.34,10.0,1
1346,23.95,-0.05,2.28,1
1347,23.96,11.57,0.01,1
1348,23.97,5.07,-1.4,1
1349,23.99,9.77,-8.06,1
1350,24.0,2.97,1.91,1
1351,24.01,2.39,-19.0,1
1352,24.03,-13.16,-3.27,1
1353,24.04,-15.2,-18.53,1
1354,24.05,0.51,0.81,1
1355,24.07,7.14,-7.07,1
1356,24.08,-0.34,-2.08,1
1357,24.09,13.19,-15.0,1
1358,24.1,10.13,11.16,1
1359,24.12,-1.35,38.57,1
1360,24.13,12.98,39.89,1
1361,24.14,18.93,-24.02,1
1362,24.16,18.37,155.65,1
1363,24.17,30.83,423.22,1
1364,24.18,143.52,134.05,1
1365,24.2,61.42,33.83,1
1366,24.21,-29.11,-277.1,1
1367,24.225,243.47,-383.02,1
1368,24.24,201.14,86.36,1
1369,24.25,92.64,173.9,1
1370,24.27,17.08,230.05,1
1371,24.28,120.43,72.67,1
1372,24.29,-67.67,57.07,1
1373,24.31,56.89,-209.03,1
1374,24.32,-108.96,175.07,1
1375,24.33,-47.92,34.85,1
1376,24.35,-236.14,-6.29,1
1377,24.36,-247.16,-74.69,1
1378,24.37,-393.3,-253.65,1
1379,24.39,-248.57,23.14,1
1380,24.4,-329.43,-358.56,1
1381,24.41,-26.32,-344.64,1
1382,24.43,-42.83,-259.22,1
1383,24.44,-157.45,-187.39,1
1384,24.45,-162.0,-173.44,1
1385,24.47,-60.5,0.51,1
1386,24.48,65.13,-203.72,1
1387,24.49,43.17,-204.77,1
1388,24.51,-150.57,-114.79,1
1389,24.52,104.74,245.57,1
1390,24.53,-73.96,-125.44,1
1391,24.55,-73.98,69.46,1
1392,24.56,53.1,-57.03,1
1393,24.57,112.55,124.22,1
1394,24.59,143.58,102.32,1
1395,24.6,34.3,-216.98,1
1396,24.61,-13.83,-138.41,1
1397,24.63,218.78,273.26,1
1398,24.64,264.51,-11.32,1
1399,24.65,-141.64,4.25,1
1400,24.67,64.98,258.69,1
1401,24.68,200.46,440.96,1
1402,24.69,184.95,388.14,1
1403,24.71,158.64,478.84,1
1404,24.72,109.61,228.85,1
1405,24.73,97.4,197.12,1
1406,24.75,264.32,1.53,1
1407,24.76,-40.43,41.93,1
1408,24.77,-30.63,-84.86,1
1409,24.78,59.61,60.05,1
1410,24.8,86.23,-191.09,1
1411,24.81,104.41,321.62,1
1412,24.82,40.41,-172.96,1
1413,24.84,176.86,4.06,1
1414,24.85,-16.46,-110.08,1
1415,24.86,-215.2,-226.3,1
1416,24.88,-90.21,-182.85,1
1417,24.89,34.48,0.28,1
1418,24.91,-51.78,110.46,1
1419,24.92,-111.82,39.26,1
1420,24.93,17.19,-329.69,1
1421,24.95,-39.67,-68.02,1
1422,24.96,-60.83,-132.81,1
1423,24.97,-36.46,175.7,1
1424,24.99,-138.1,-87.11,1
1425,25.0,-47.7,-14.07,1
1426,25.01,-139.22,-87.25,1
1427,25.03,-64.59,-113.85,1
1428,25.04,-56.11,-224.88,1
1429,25.05,-63.55,-62.45,1
1430,25.07,-189.19,-40.02,1
1431,25.08,-141.55,-97.88,1
1432,25.09,-134.74,-44.85,1
1433,25.11,-75.03,-27.35,1
1434,25.12,-54.17,12.01,1
1435,25.13,9.42,86.12,1
1436,25.15,57.33,109.76,1
1437,25.16,78.53,148.23,1
1438,25.17,105.19,164.39,1
1439,25.19,96.77,213.48,1
1440,25.2,97.97,221.82,1
1441,25.21,117.85,224.19,1
1442,25.23,109.5,191.62,1
1443,25.24,104.09,179.86,1
1444,25.25,80.8,126.04,1
1445,25.27,91.96,127.57,1
1446,25.28,73.21,102.59,1
1447,25.29,61.08,46.03,1
1448,25.31,62.24,47.18,1
1449,25.32,50.29,9.12,1
1450,25.33,33.98,16.12,1
1451,25.35,37.66,-34.12,1
1452,25.36,36.46,-45.85,1
1453,25.37,3.16,-66.21,1
1454,25.38,-7.56,-74.09,1
1455,25.4,-18.21,-95.08,1
1456,25.41,-15.55,-102.97,1
1457,25.42,-30.24,-107.62,1
1458,25.44,-46.71,-104.04,1
1459,25.45,-53.33,-122.27,1
1460,25.46,-64.63,-111.31,1
1461,25.48,-43.68,-110.11,1
1462,25.49,-49.39,-106.84,1
1463,25.5,-42.93,-92.1,1
1464,25.52,-48.13,-108.56,1
1465,25.53,-56.51,-96.39,1
1466,25.55,-49.05,-98.59,1
1467,25.56,-51.91,-73.84,1
1468,25.57,-40.16,-72.71,1
1469,25.59,-36.06,-77.21,1
1470,25.6,-41.09,-75.31,1
1471,25.61,-36.64,-55.21,1
1472,25.63,-37.4,-82.57,1
1473,25.64,-29.1,-57.09,1
1474,25.65,-36.86,-41.36,1
1475,25.67,-14.43,-28.09,1
1476,25.68,-22.95,-25.21,1
1477,25.69,-26.49,-39.88,1
1478,25.71,-8.63,-5.59,1
1479,25.72,-0.32,-16.19,1
1480,25.73,11.32,-2.97,1
1481,25.75,2.42,22.33,1
1482,25.76,-5.62,23.36,1
1483,25.77,-1.2,32.68,1
1484,25.79,-6.59,15.87,1
1485,25.8,-14.24,42.86,1
1486,25.81,10.04,35.98,1
1487,25.83,14.71,43.59,1
1488,25.84,17.15,43.77,1
1489,25.85,12.43,59.23,1
1490,25.87,25.42,65.02,1
1491,25.88,3.84,44.48,1
1492,25.89,2.95,51.14,1
1493,25.91,0.11,35.37,1
1494,25.92,12.42,28.67,1
1495,25.93,27.13,36.84,1
1496,25.95,10.72,46.22,1
1497,25.96,10.18,45.03,1
1498,25.97,14.39,38.18,1
1499,25.99,25.57,48.02,1
1500,26.0,10.49,43.39,1
1501,26.01,16.48,14.19,1
1502,26.02,27.12,32.65,1
1503,26.04,15.95,35.18,1
1504,26.05,9.75,39.16,1
1505,26.06,31.31,37.47,1
1506,26.08,20.79,13.94,1
1507,26.09,12.4,14.0,1
1508,26.1,14.83,25.06,1
1509,26.12,16.51,9.69,1
1510,26.13,29.98,5.81,1
1511,26.14,13.91,15.31,1
1512,26.16,20.39,16.47,2
1513,26.17,-1.38,22.49,2
1514,26.19,-1.22,-5.81,2
1515,26.2,2.55,1.84,2
1516,26.21,-9.42,-21.96,2
1517,26.23,75.09,-56.42,2
1518,26.24,137.38,-46.55,2
1519,26.25,151.11,-5.57,2
1520,26.27,130.48,-49.51,2
1521,26.28,96.2,-6.6,2
1522,26.29,42.31,-18.55,2
1523,26.31,-3.67,-12.31,2
1524,26.32,-42.09,-11.15,2
1525,26.33,-81.87,17.1,2
1526,26.35,-103.62,28.06,2
1527,26.36,-124.17,29.25,2
1528,26.37,-119.91,10.3,2
1529,26.39,-125.93,44.95,2
1530,26.4,-108.26,22.33,2
1531,26.41,-89.49,19.07,2
1532,26.43,-91.45,13.37,2
1533,26.44,-98.28,13.96,2
1534,26.45,-70.5,14.55,2
1535,26.47,-72.09,25.89,2
1536,26.48,-56.49,28.84,2
1537,26.49,-40.0,0.41,2
1538,26.51,-33.24,-1.88,2
1539,26.52,-42.15,-6.62,2
1540,26.53,-3.31,-22.2,2
1541,26.55,-14.58,-21.49,1
1542,26.56,-2.73,-18.78,1
1543,26.57,12.25,-20.71,1
1544,26.59,19.73,-25.44,1
1545,26.6,18.79,-17.19,1
1546,26.61,38.58,-31.84,1
1547,26.63,39.41,-24.21,1
1548,26.64,40.33,-24.17,1
1549,26.65,32.91,-11.56,1
1550,26.67,61.33,-3.11,1
1551,26.68,45.95,-27.7,1
1552,26.69,52.35,-30.67,1
1553,26.7,44.12,-38.32,1
1554,26.72,54.45,-11.44,1
1555,26.73,48.8,-24.31,1
1556,26.75,54.05,-9.13,1
1557,26.76,49.89,-5.87,1
1558,26.77,44.27,-7.69,1
1559,26.78,41.54,-27.83,1
1560,26.8,47.29,-11.51,1
1561,26.81,34.41,-15.48,1
1562,26.83,47.19,-6.82,1
1563,26.84,30.39,-19.67,1
1564,26.85,24.09,-15.48,1
1565,26.87,19.56,-6.15,1
1566,26.88,13.7,-7.16,1
1567,26.89,1.63,-7.17,1
1568,26.91,4.63,-0.64,1
1569,26.92,6.96,5.37,1
1570,26.93,5.53,-13.04,1
1571,26.95,-1.05,4.61,1
1572,26.96,-3.24,17.54,1
1573,26.97,-14.28,7.05,1
1574,26.99,-17.62,11.62,1
1575,27.0,-7.26,15.93,1
1576,27.01,-14.7,13.42,1
1577,27.03,-4.15,13.45,1
1578,27.04,2.28,-2.0,1
1579,27.05,-5.89,4.83,1
1580,27.07,-6.29,8.04,1
1581,27.08,-25.32,-3.43,1
1582,27.09,-19.35,7.96,1
1583,27.11,-19.11,10.81,1
1584,27.12,-22.19,14.11,1
1585,27.13,-19.4,4.37,1
1586,27.15,-15.7,23.63,1
1587,27.16,-20.49,5.71,1
1588,27.17,-27.68,12.57,1
1589,27.19,-10.58,25.12,1
1590,27.2,-9.46,15.25,1
1591,27.21,-6.46,20.48,1
1592,27.23,-17.04,7.7,1
1593,27.24,-15.35,17.19,1
1594,27.25,-26.55,28.86,1
1595,27.27,-22.42,3.12,1
1596,27.28,-14.8,14.8,1
1597,27.29,-18.1,4.2,1
1598,27.3,-4.54,8.52,1
1599,27.32,1.3,-16.5,1
1600,27.33,-15.06,6.27,1
1601,27.34,-11.19,-14.8,1
1602,27.36,-14.96,1.59,1
1603,27.37,-7.16,11.33,1
1604,27.38,-9.57,23.23,1
1605,27.4,3.62,-2.53,1
1606,27.41,-5.14,5.73,1
1607,27.42,18.75,7.53,1
1608,27.44,-6.77,-17.92,1
1609,27.45,-3.6,-11.97,1
1610,27.46,-17.98,-16.75,1
1611,27.48,-3.79,-11.41,1
1612,27.49,2.24,-15.63,1
1613,27.51,-6.26,-3.79,1
1614,27.52,0.7,0.81,1
1615,27.53,2.73,-1.5,1
1616,27.55,10.85,-11.51,1
1617,27.56,5.5,3.58,1
1618,27.57,3.66,-7.2,1
1619,27.59,16.42,-10.87,1
1620,27.6,7.69,-22.13,1
1621,27.61,-4.84,12.17,1
1622,27.63,11.88,3.57,1
1623,27.64,4.85,-15.93,1
1624,27.65,8.17,-11.56,1
1625,27.67,7.77,5.0,1
1626,27.68,9.56,-12.25,1
1627,27.69,3.01,-6.56,1
1628,27.71,14.02,-11.77,1
1629,27.72,5.17,13.64,1
1630,27.73,2.34,-2.78,1
1631,27.75,-9.03,-18.59,1
1632,27.76,-6.02,18.06,1
1633,27.77,-14.25,14.7,1
1634,27.79,-22.06,2.68,1
1635,27.8,-1.85,-10.06,1
1636,27.81,17.48,5.36,1
1637,27.83,3.88,4.17,1
1638,27.84,18.06,3.37,1
1639,27.85,7.76,-3.56,1
1640,27.87,21.88,2.76,1
1641,27.88,-13.59,-10.23,1
1642,27.89,-4.05,-9.37,1
1643,27.91,5.84,-9.47,1
1644,27.92,10.15,-9.04,1
1645,27.93,9.48,-19.57,1
1646,27.94,5.96,9.23,1
1647,27.96,0.74,13.23,1
1648,27.97,-11.64,19.68,1
1649,27.98,8.58,9.03,1
1650,28.0,-7.42,-10.54,1
1651,28.01,0.98,-7.38,1
1652,28.02,4.9,20.84,1
1653,28.04,7.74,-0.17,1
1654,28.05,-12.6,5.73,1
1655,28.06,3.27,3.26,1
1656,28.08,0.43,14.43,1
1657,28.09,8.24,-7.29,1
1658,28.1,8.89,-11.81,1
1659,28.12,9.62,-3.59,1
1660,28.13,6.26,14.16,1
1661,28.15,19.8,12.61,1
1662,28.16,11.3,18.62,0
1663,28.17,2.7,27.29,0
1664,28.19,14.41,9.93,0
1665,28.2,-64.83,11.66,0
1666,28.21,-112.24,18.43,0
1667,28.23,-134.28,31.48,0
1668,28.24,-153.17,7.33,0
1669,28.25,-126.2,2.44,0
1670,28.27,-114.4,-12.48,0
1671,28.28,-90.9,-16.5,0
1672,28.29,-66.24,-20.75,0
1673,28.31,-21.14,-43.98,0
1674,28.32,16.2,-40.76,0
1675,28.33,67.76,-37.6,0
1676,28.35,135.86,-29.68,0
1677,28.36,200.3,-48.51,0
1678,28.37,224.42,-15.94,0
1679,28.39,203.5,7.22,0
1680,28.4,190.79,12.45,0
1681,28.41,164.08,-11.32,0
1682,28.43,156.45,25.08,0
1683,28.44,118.62,23.56,0
1684,28.45,94.23,31.05,0
1685,28.47,77.94,33.24,0
1686,28.48,52.5,4.2,0
1687,28.49,6.73,0.14,0
1688,28.51,4.56,-5.25,0
1689,28.52,57.57,-18.76,0
1690,28.53,-2.97,-28.92,0
1691,28.55,-18.59,-37.6,1
1692,28.56,-47.31,-26.42,1
1693,28.57,-59.77,6.21,1
1694,28.58,-78.74,15.46,1
1695,28.6,-82.1,11.12,1
1696,28.61,-81.82,11.08,1
1697,28.62,-96.0,12.68,1
1698,28.64,-80.68,30.01,1
1699,28.65,-86.78,11.02,1
1700,28.67,-92.41,10.06,1
1701,28.68,-73.33,12.66,1
1702,28.69,-95.88,5.88,1
1703,28.7,-76.83,5.49,1
1704,28.72,-78.45,26.92,1
1705,28.73,-45.7,13.76,1
1706,28.75,-66.2,6.63,1
1707,28.76,-45.02,-4.19,1
1708,28.77,-52.65,0.21,1
1709,28.79,-55.42,5.86,1
1710,28.8,-27.54,8.62,1
1711,28.81,-37.63,9.74,1
1712,28.83,-50.82,-2.73,1
1713,28.84,-26.2,6.55,1
1714,28.85,-18.31,-11.51,1
1715,28.87,-13.23,-2.82,1
1716,28.88,-12.13,-2.01,1
1717,28.89,-15.09,22.39,1
1718,28.91,-0.67,-8.63,1
1719,28.92,7.5,-15.91,1
1720,28.93,9.41,4.08,1
1721,28.95,12.49,5.44,1
1722,28.96,27.28,-9.68,1
1723,28.97,6.07,-2.48,1
1724,28.99,27.27,12.33,1
1725,29.0,20.25,-6.08,1
1726,29.01,16.56,-13.59,1
1727,29.03,25.66,1.95,1
1728,29.04,39.03,2.75,1
1729,29.05,21.47,-16.4,1
1730,29.07,52.01,-14.03,1
1731,29.08,36.35,-7.27,1
1732,29.09,36.31,-27.79,1
1733,29.11,21.41,-19.04,1
1734,29.12,37.44,-6.79,1
1735,29.13,29.76,-12.87,1
1736,29.15,20.79,-18.45,1
1737,29.16,29.54,10.47,1
1738,29.17,23.55,-20.98,1
1739,29.19,22.34,0.72,1
1740,29.2,35.23,-12.16,1
1741,29.21,28.93,-10.57,1
1742,29.22,24.69,-12.24,1
1743,29.24,10.86,10.37,1
1744,29.25,2.53,1.5,1
1745,29.26,15.27,19.92,1
1746,29.28,18.4,-2.41,1
1747,29.29,20.84,5.48,1
1748,29.3,14.46,5.58,1
1749,29.32,13.02,12.91,1
1750,29.33,18.12,4.56,1
1751,29.34,8.71,-16.52,1
1752,29.36,4.21,5.53,1
1753,29.37,1.04,2.73,1
1754,29.38,-1.67,-9.57,1
1755,29.4,-8.44,21.54,1
1756,29.41,-6.24,26.79,1
1757,29.42,-1.07,-10.38,1
1758,29.44,-20.24,7.18,1
1759,29.45,-21.94,31.38,1
1760,29.47,-7.35,3.39,1
1761,29.48,-7.93,-11.29,1
1762,29.49,1.39,13.27,1
1763,29.51,4.66,-17.36,1
1764,29.52,-9.24,-18.13,1
1765,29.53,-5.09,8.43,1
1766,29.55,-10.24,-13.03,1
1767,29.56,-3.32,5.06,1
1768,29.57,-6.34,20.15,1
1769,29.59,2.6,-0.97,1
1770,29.6,-9.68,0.02,1
1771,29.61,-4.64,15.15,1
1772,29.63,-25.69,-2.43,1
1773,29.64,-3.87,7.26,1
1774,29.65,-4.92,1.53,1
1775,29.67,11.85,-4.39,1
1776,29.68,-13.17,-20.5,1
1777,29.69,-8.29,19.93,1
1778,29.71,-1.81,7.52,1
1779,29.72,5.23,-2.36,1
1780,29.73,-15.47,3.29,1
1781,29.75,-15.46,-10.41,1
1782,29.76,-14.84,0.19,1
1783,29.77,0.66,3.98,1
1784,29.79,3.53,1.53,1
1785,29.8,0.52,-1.47,1
1786,29.81,-12.38,19.84,1
1787,29.83,2.41,-9.32,1
1788,29.84,-6.31,-14.47,1
1789,29.85,1.84,7.93,1
1790,29.86,11.81,-4.3,1
1791,29.88,1.08,-5.7,1
1792,29.89,-2.94,-9.84,1
1793,29.9,-9.03,-1.48,1
1794,29.92,-7.73,-8.34,1
1795,29.93,7.38,-1.59,1
1796,29.94,-7.93,17.67,1
1797,29.96,-15.11,18.08,1
1798,29.97,1.41,-2.2,1
1799,29.98,-5.78,-14.35,1
1800,30.0,-5.9,0.63,1
1801,30.01,-4.45,13.62,1
1802,30.02,0.16,-10.08,1
1803,30.04,-1.78,-3.47,1
1804,30.05,-14.26,16.16,1
1805,30.06,4.45,2.06,1
1806,30.08,-9.72,-6.55,1
1807,30.09,-1.76,0.8,1
1808,30.11,13.59,13.17,1
1809,30.12,12.17,2.84,1
1810,30.13,10.45,1.35,1
1811,30.15,0.8,5.25,1
1812,30.16,2.26,-19.97,0
1813,30.17,12.24,-23.03,0
1814,30.19,4.57,-2.38,0
1815,30.2,-0.89,-23.11,0
1816,30.21,-0.1,17.48,0
1817,30.23,-36.0,-22.24,0
1818,30.24,-90.9,34.69,0
1819,30.25,-113.23,14.47,0
1820,30.27,-127.47,19.11,0
1821,30.28,-116.06,-6.11,0
1822,30.29,-80.64,-14.52,0
1823,30.31,-44.39,-20.05,0
1824,30.32,12.65,-30.0,0
1825,30.33,15.56,-49.44,0
1826,30.35,61.19,-34.36,0
1827,30.36,84.64,-17.06,0
1828,30.37,124.55,1.24,0
1829,30.39,126.32,14.28,0
1830,30.4,130.55,-6.72,0
1831,30.41,140.42,18.8,0
1832,30.43,108.09,21.55,0
1833,30.44,100.16,34.58,0
1834,30.45,112.53,28.63,0
1835,30.47,101.83,15.42,0
1836,30.48,60.75,14.79,0
1837,30.49,50.95,4.05,0
1838,30.5,43.92,16.64,0
1839,30.52,17.24,31.39,0
1840,30.53,35.63,-4.67,0
1841,30.54,-7.91,-14.49,0
1842,30.56,13.31,1.95,1
1843,30.57,-14.18,-16.37,1
1844,30.58,-18.61,-18.1,1
1845,30.6,-21.61,5.36,1
1846,30.61,-38.85,7.73,1
1847,30.62,-37.4,5.54,1
1848,30.64,-42.84,-7.11,1
1849,30.65,-44.0,-11.11,1
1850,30.67,-60.41,20.46,1
1851,30.68,-83.09,29.24,1
1852,30.69,-66.41,11.99,1
1853,30.7,-44.56,15.14,1
1854,30.72,-66.54,15.21,1
1855,30.73,-74.87,-20.65,1
1856,30.75,-56.05,-39.16,1
1857,30.76,-48.95,-22.86,1
1858,30.77,-41.67,-1.49,1
1859,30.79,-37.11,-32.67,1
1860,30.8,-57.04,-9.28,1
1861,30.81,-38.51,1.51,1
1862,30.83,-37.76,18.85,1
1863,30.84,-29.27,18.29,1
1864,30.85,-20.17,-6.17,1
1865,30.87,-28.07,2.22,1
1866,30.88,-38.63,5.75,1
1867,30.89,-22.39,-20.65,1
1868,30.91,-19.91,-27.52,1
1869,30.92,-18.83,-9.42,1
1870,30.93,14.93,-6.49,1
1871,30.95,-2.0,3.73,1
1872,30.96,-1.17,-20.97,1
1873,30.97,5.34,-13.21,1
1874,30.99,20.34,-17.09,1
1875,31.0,10.94,3.66,1
1876,31.01,-0.06,5.74,1
1877,31.03,4.57,19.25,1
1878,31.04,26.49,3.86,1
1879,31.05,4.53,-12.74,1
1880,31.07,23.1,10.21,1
1881,31.08,9.64,2.61,1
1882,31.09,22.78,0.92,1
1883,31.11,17.18,2.03,1
1884,31.12,32.8,13.83,1
1885,31.13,14.74,-8.67,1
1886,31.14,13.28,16.53,1
1887,31.16,12.49,2.36,1
1888,31.17,17.25,25.93,1
1889,31.18,23.01,4.45,1
1890,31.2,19.07,1.89,1
1891,31.21,42.77,3.27,1
1892,31.22,28.88,22.3,1
1893,31.24,16.55,8.69,1
1894,31.25,-6.82,-0.56,1
1895,31.26,4.64,10.42,1
1896,31.28,16.67,17.57,1
1897,31.29,-3.49,10.48,1
1898,31.3,16.82,3.79,1
1899,31.32,17.66,-9.7,1
1900,31.33,11.12,-12.91,1
1901,31.34,16.98,-19.13,1
1902,31.36,16.17,-23.2,1
1903,31.37,29.51,0.86,1
1904,31.39,13.02,7.15,1
1905,31.4,11.04,-3.25,1
1906,31.41,9.45,5.61,1
1907,31.43,8.38,16.82,1
1908,31.44,10.02,-10.26,1
1909,31.45,20.96,13.37,1
1910,31.47,1.1,-8.9,1
1911,31.48,-1.87,-14.81,1
1912,31.49,-13.1,-2.43,1
1913,31.51,14.68,-12.37,1
1914,31.52,-16.54,8.35,1
1915,31.53,-13.02,-3.84,1
1916,31.55,14.34,4.42,1
1917,31.56,5.9,4.43,1
1918,31.57,9.02,14.01,1
1919,31.59,-13.57,6.86,1
1920,31.6,-5.54,-12.0,1
1921,31.61,-28.74,3.66,1
1922,31.63,-4.14,-23.47,1
1923,31.64,2.25,-31.72,1
1924,31.65,-9.12,5.13,1
1925,31.67,-2.09,-1.64,1
1926,31.68,-6.47,-4.88,1
1927,31.69,-9.29,-1.82,1
1928,31.71,-9.6,5.58,1
1929,31.72,-4.57,-17.21,1
1930,31.73,-13.51,2.05,1
1931,31.75,-20.1,-1.84,1
1932,31.76,-17.43,8.69,1
1933,31.77,-9.88,23.08,1
1934,31.78,-16.51,10.37,1
1935,31.8,-0.72,-10.72,1
1936,31.81,-14.95,3.38,1
1937,31.82,-2.29,12.07,1
1938,31.84,3.11,-16.44,1
1939,31.85,-1.78,-10.25,1
1940,31.86,-9.33,2.38,1
1941,31.88,-10.08,2.51,1
1942,31.89,3.15,33.2,1
1943,31.9,-8.77,-25.0,1
1944,31.92,-12.11,-16.64,1
1945,31.93,-10.22,-7.77,1
1946,31.94,17.06,-16.96,1
1947,31.96,16.9,-12.01,1
1948,31.97,-16.68,-5.42,1
1949,31.98,7.69,-0.37,1
1950,32.0,8.75,18.6,1
1951,32.01,6.78,19.82,1
1952,32.03,-8.42,2.77,1
1953,32.04,-11.14,22.39,1
1954,32.05,-13.93,0.86,1
1955,32.07,9.5,21.17,1
1956,32.08,-7.43,1.01,1
1957,32.09,-7.38,-9.29,1
1958,32.11,1.74,-3.17,1
1959,32.12,15.47,-32.36,1
1960,32.13,6.83,-4.63,1
1961,32.15,-3.45,5.1,1
1962,32.16,12.77,2.17,2
1963,32.17,12.2,10.99,2
1964,32.19,1.01,5.58,2
1965,32.2,8.79,26.86,2
1966,32.21,9.85,-20.24,2
1967,32.23,14.31,-22.12,2
1968,32.24,89.84,-6.52,2
1969,32.25,125.21,12.36,2
1970,32.27,139.54,14.59,2
1971,32.28,138.12,15.76,2
1972,32.29,138.74,-3.12,2
1973,32.31,119.09,8.42,2
1974,32.32,74.55,-14.77,2
1975,32.33,29.63,-37.45,2
1976,32.35,-0.8,-11.52,2
1977,32.36,-66.33,-15.98,2
1978,32.37,-131.06,-12.24,2
1979,32.39,-193.92,-5.85,2
1980,32.4,-231.91,4.97,2
1981,32.41,-217.68,21.81,2
1982,32.43,-212.49,30.9,2
1983,32.44,-197.54,22.47,2
1984,32.45,-167.75,24.78,2
1985,32.47,-139.73,33.87,2
1986,32.48,-111.22,24.68,2
1987,32.49,-98.41,7.55,2
1988,32.51,-74.02,13.11,2
1989,32.52,-46.81,10.27,2
1990,32.53,-9.54,-2.22,2
1991,32.54,-2.89,10.5,2
1992,32.56,27.51,10.69,1
1993,32.57,34.72,-16.56,1
1994,32.59,53.97,-6.57,1
1995,32.6,48.19,-35.6,1
1996,32.61,64.11,-3.62,1
1997,32.63,65.28,-6.6,1
1998,32.64,72.44,8.45,1
1999,32.65,80.4,-3.29,1
2000,32.67,81.07,-19.14,1
2001,32.68,100.76,-2.7,1
2002,32.69,91.55,-4.05,1
2003,32.71,85.65,-11.8,1
2004,32.72,90.68,-10.68,1
2005,32.73,82.87,-12.39,1
2006,32.75,61.67,4.5,1
2007,32.76,65.18,0.98,1
2008,32.77,63.57,-17.7,1
2009,32.79,59.75,8.3,1
2010,32.8,55.88,-12.86,1
2011,32.81,50.93,-6.69,1
2012,32.83,53.14,1.92,1
2013,32.84,39.49,-14.83,1
2014,32.85,45.24,-20.81,1
2015,32.87,25.98,-7.91,1
2016,32.88,18.17,-15.14,1
2017,32.89,29.15,-0.49,1
2018,32.91,19.43,-4.48,1
2019,32.92,3.8,-11.6,1
2020,32.93,6.27,11.77,1
2021,32.95,-17.42,11.12,1
2022,32.96,-4.88,14.02,1
2023,32.97,0.69,-6.64,1
2024,32.99,-12.29,-4.25,1
2025,33.0,-14.58,3.7,1
2026,33.01,-21.82,-8.5,1
2027,33.03,-16.36,-14.09,1
2028,33.04,-27.65,-8.89,1
2029,33.05,-22.42,-6.26,1
2030,33.06,-17.7,8.81,1
2031,33.08,-38.25,0.18,1
2032,33.09,-21.66,19.89,1
2033,33.11,-22.15,6.47,1
2034,33.12,-20.18,8.89,1
2035,33.13,-23.08,8.78,1
2036,33.15,-30.76,2.36,1
2037,33.16,-24.69,0.71,1
2038,33.17,-25.66,11.06,1
2039,33.19,-45.66,23.62,1
2040,33.2,-37.03,8.47,1
2041,33.21,-38.1,17.97,1
2042,33.22,-31.47,5.24,1
2043,33.24,-28.2,-3.86,1
2044,33.25,-21.45,-22.24,1
2045,33.27,-38.23,7.26,1
2046,33.28,-26.56,-16.52,1
2047,33.29,-9.82,-13.44,1
2048,33.31,-22.44,2.17,1
2049,33.32,-16.68,2.04,1
2050,33.33,-22.74,8.07,1
2051,33.35,-13.17,4.23,1
2052,33.36,-18.87,27.02,1
2053,33.37,-1.47,8.42,1
2054,33.39,-22.18,-1.77,1
2055,33.4,-6.63,-1.76,1
2056,33.41,-16.0,-0.02,1
2057,33.43,9.59,-8.38,1
2058,33.44,-8.28,-3.77,1
2059,33.45,0.46,-5.02,1
2060,33.47,-2.68,12.82,1
2061,33.48,4.5,4.04,1
2062,33.49,5.02,-5.67,1
2063,33.51,19.45,-4.08,1
2064,33.52,16.33,0.57,1
2065,33.53,13.86,-12.59,1
2066,33.55,7.08,11.72,1
2067,33.56,1.51,5.53,1
2068,33.57,18.61,1.48,1
2069,33.59,9.89,5.25,1
2070,33.6,1.84,-4.66,1
2071,33.61,7.67,22.78,1
2072,33.63,13.58,0.78,1
2073,33.64,9.75,-15.12,1
2074,33.65,27.66,-7.58,1
2075,33.67,20.78,-27.4,1
2076,33.68,1.11,-14.17,1
2077,33.69,13.54,3.76,1
2078,33.71,-1.16,-0.23,1
2079,33.72,10.33,6.42,1
2080,33.73,7.98,-4.74,1
2081,33.75,4.99,-10.58,1
2082,33.76,15.17,13.42,1
2083,33.77,-1.04,9.03,1
2084,33.79,14.79,-18.52,1
2085,33.8,10.23,10.51,1
2086,33.81,-0.66,8.21,1
2087,33.83,3.86,-14.58,1
2088,33.84,-7.08,4.67,1
2089,33.85,0.54,9.15,1
2090,33.87,1.07,1.6,1
2091,33.88,9.42,2.13,1
2092,33.89,3.08,-12.76,1
2093,33.9,8.96,-8.48,1
2094,33.92,2.91,-5.73,1
2095,33.93,-0.3,-9.78,1
2096,33.95,-5.08,-7.73,1
2097,33.96,-1.36,-0.1,1
2098,33.97,0.81,3.75,1
2099,33.99,-7.29,18.41,1
2100,34.0,0.32,3.98,1
2101,34.01,-18.64,9.01,1
2102,34.03,6.86,19.49,1
2103,34.04,5.9,7.98,1
2104,34.05,-8.13,2.09,1
2105,34.07,-2.57,8.15,1
2106,34.08,6.59,-10.37,1
2107,34.09,15.11,18.95,1
2108,34.11,17.51,35.54,1
2109,34.12,-1.91,5.77,1
2110,34.13,6.2,61.88,1
2111,34.15,5.05,164.02,1
2112,34.16,2.01,374.68,1
2113,34.17,6.43,146.3,1
2114,34.19,24.75,-103.5,1
2115,34.2,156.64,-309.34,1
2116,34.21,-169.41,206.29,1
2117,34.23,93.07,97.71,1
2118,34.24,163.37,102.01,1
2119,34.25,136.81,88.56,1
2120,34.27,71.62,-5.13,1
2121,34.28,122.8,83.97,1
2122,34.29,153.74,-1.99,1
2123,34.31,-131.09,-24.2,1
2124,34.32,-176.81,-219.43,1
2125,34.33,-26.79,-251.88,1
2126,34.35,-103.44,13.92,1
2127,34.36,-5.67,-247.14,1
2128,34.37,-199.6,-323.55,1
2129,34.38,-274.33,25.73,1
2130,34.4,-107.56,-297.68,1
2131,34.41,-301.92,-281.98,1
2132,34.43,-66.92,-252.4,1
2133,34.44,61.81,-406.04,1
2134,34.45,-213.34,-382.04,1
2135,34.47,-127.08,-497.33,1
2136,34.48,26.38,203.48,1
2137,34.49,99.14,140.53,1
2138,34.51,-24.52,-304.67,1
2139,34.52,-27.99,-62.27,1
2140,34.53,22.67,7.62,1
2141,34.54,-20.31,325.12,1
2142,34.56,133.07,481.71,1
2143,34.57,84.28,281.21,1
2144,34.59,39.38,-137.5,1
2145,34.6,-29.59,-221.41,1
2146,34.61,78.49,-28.39,1
2147,34.63,82.85,200.07,1
2148,34.64,70.03,587.67,1
2149,34.65,72.48,6.66,1
2150,34.67,-93.78,176.4,1
2151,34.68,-10.18,415.28,1
2152,34.69,97.12,-194.05,1
2153,34.71,95.06,193.98,1
2154,34.72,36.63,-203.82,1
2155,34.73,135.19,122.23,1
2156,34.75,75.27,266.81,1
2157,34.76,89.62,-267.77,1
2158,34.77,-40.72,-47.88,1
2159,34.79,-78.18,121.0,1
2160,34.8,84.53,645.95,1
2161,34.81,182.01,629.89,1
2162,34.83,141.22,497.54,1
2163,34.84,-61.81,117.83,1
2164,34.85,83.87,-283.53,1
2165,34.87,74.83,-41.26,1
2166,34.88,0.25,36.88,1
2167,34.89,4.56,-239.16,1
2168,34.91,33.56,154.85,1
2169,34.92,-47.07,-203.85,1
2170,34.93,0.71,-268.53,1
2171,34.95,-88.27,-164.18,1
2172,34.96,-99.0,-185.0,1
2173,34.97,-104.84,-52.32,1
2174,34.99,-101.15,-52.86,1
2175,35.0,-109.0,-45.85,1
2176,35.01,-49.05,-40.84,1
2177,35.03,-27.53,-53.76,1
2178,35.04,-27.08,-2.2,1
2179,35.05,39.68,14.13,1
2180,35.06,10.89,60.3,1
2181,35.08,9.32,66.91,1
2182,35.09,-1.53,72.64,1
2183,35.11,52.77,48.49,1
2184,35.12,30.72,82.22,1
2185,35.13,37.49,49.01,1
2186,35.15,64.86,84.89,1
2187,35.16,16.31,53.69,1
2188,35.17,44.82,23.2,1
2189,35.19,15.16,-7.49,1
2190,35.2,19.89,-13.58,1
2191,35.21,7.22,-45.0,1
2192,35.22,11.34,-65.83,1
2193,35.24,-1.55,-61.49,1
2194,35.25,-3.39,-90.58,1
2195,35.27,-2.84,-81.23,1
2196,35.28,-22.1,-115.02,1
2197,35.29,-52.38,-84.37,1
2198,35.31,-49.55,-119.04,1
2199,35.32,-39.24,-139.9,1
2200,35.33,-37.53,-122.57,1
2201,35.35,-27.41,-102.83,1
2202,35.36,-38.78,-109.62,1
2203,35.37,-12.18,-89.88,1
2204,35.39,-23.1,-85.86,1
2205,35.4,-15.88,-73.65,1
2206,35.41,-23.31,-71.1,1
2207,35.43,-20.49,-57.62,1
2208,35.44,-28.47,-64.61,1
2209,35.45,-30.26,-43.43,1
2210,35.47,-23.58,-45.93,1
2211,35.48,-39.58,-30.95,1
2212,35.49,-26.96,-31.0,1
2213,35.51,-14.15,-18.18,1
2214,35.52,-11.49,-36.49,1
2215,35.53,-16.6,-18.96,1
2216,35.55,-14.72,13.08,1
2217,35.56,-9.45,-2.96,1
2218,35.57,-8.63,5.41,1
2219,35.59,0.87,29.1,1
2220,35.6,-16.24,19.66,1
2221,35.61,-3.05,48.84,1
2222,35.63,5.86,26.57,1
2223,35.64,-4.12,32.77,1
2224,35.65,1.73,54.12,1
2225,35.67,9.12,51.75,1
2226,35.68,17.87,69.71,1
2227,35.69,21.72,67.43,1
2228,35.71,10.11,45.98,1
2229,35.72,17.89,42.67,1
2230,35.73,10.39,39.27,1
2231,35.75,14.76,51.83,1
2232,35.76,18.45,71.08,1
2233,35.77,15.32,55.7,1
2234,35.79,18.05,48.28,1
2235,35.8,19.99,41.47,1
2236,35.81,26.77,46.83,1
2237,35.83,20.59,55.64,1
2238,35.84,23.35,49.77,1
2239,35.85,19.92,51.95,1
2240,35.87,13.5,39.46,1
2241,35.88,4.3,32.8,1
2242,35.89,-5.07,32.57,1
2243,35.9,-1.06,40.68,1
2244,35.92,19.45,28.72,1
2245,35.93,2.78,19.67,1
2246,35.95,19.29,44.21,1
2247,35.96,11.92,10.89,1
2248,35.97,18.76,36.91,1
2249,35.99,7.52,7.19,1
2250,36.0,10.38,6.19,1
2251,36.01,-3.82,-0.11,1
2252,36.03,21.23,-4.82,1
2253,36.04,-5.0,-13.25,1
2254,36.05,-20.68,-3.66,1
2255,36.07,9.68,-3.17,1
2256,36.08,4.94,-22.32,1
2257,36.09,-2.44,-13.87,1
2258,36.11,3.85,-9.91,1
2259,36.12,9.41,-4.59,1
2260,36.13,12.17,-18.67,1
2261,36.15,5.3,0.95,1
2262,36.16,5.95,-20.14,2
2263,36.17,17.37,-47.43,2
2264,36.19,-4.21,-32.07,2
2265,36.2,1.15,-19.18,2
2266,36.21,10.91,-36.41,2
2267,36.23,-8.24,-66.66,2
2268,36.24,1.79,-52.5,2
2269,36.25,39.41,-44.16,2
2270,36.27,75.81,-50.35,2
2271,36.28,130.8,-32.06,2
2272,36.29,111.2,-3.79,2
2273,36.31,86.18,-9.23,2
2274,36.32,56.38,-20.65,2
2275,36.33,2.54,12.38,2
2276,36.35,-17.17,16.24,2
2277,36.36,-63.89,14.07,2
2278,36.37,-80.01,10.57,2
2279,36.38,-103.86,16.01,2
2280,36.4,-123.37,21.89,2
2281,36.41,-101.88,26.28,2
2282,36.43,-108.35,13.9,2
2283,36.44,-95.91,13.26,2
2284,36.45,-101.92,7.26,2
2285,36.47,-104.16,2.4,2
2286,36.48,-98.01,-0.21,2
2287,36.49,-72.08,24.61,2
2288,36.51,-73.64,10.74,2
2289,36.52,-45.14,3.92,2
2290,36.53,-45.01,0.65,2
2291,36.54,-34.57,11.09,2
2292,36.56,-19.44,-9.2,1
2293,36.57,-5.44,-8.23,1
2294,36.59,11.04,1.84,1
2295,36.6,15.76,2.06,1
2296,36.61,16.68,10.43,1
2297,36.63,12.61,5.72,1
2298,36.64,27.87,-6.37,1
2299,36.65,34.48,-11.88,1
2300,36.67,44.17,-15.79,1
2301,36.68,46.87,-21.0,1
2302,36.69,71.27,-14.86,1
2303,36.71,33.66,-11.65,1
2304,36.72,69.73,-5.2,1
2305,36.73,58.36,-10.31,1
2306,36.75,61.92,-4.5,1
2307,36.76,61.35,-18.04,1
2308,36.77,47.23,-23.44,1
2309,36.79,49.88,-10.69,1
2310,36.8,48.35,-10.06,1
2311,36.81,48.68,-36.88,1
2312,36.83,33.97,-17.09,1
2313,36.84,38.3,-6.41,1
2314,36.85,30.52,1.28,1
2315,36.87,35.2,7.84,1
2316,36.88,11.03,-8.43,1
2317,36.89,15.31,-15.86,1
2318,36.9,8.38,12.39,1
2319,36.92,-2.16,-21.85,1
2320,36.93,22.56,-12.48,1
2321,36.95,30.45,14.92,1
2322,36.96,25.82,13.84,1
2323,36.97,-4.34,-6.16,1
2324,36.99,11.83,6.74,1
2325,37.0,-4.69,4.26,1
2326,37.01,11.18,11.3,1
2327,37.03,-16.0,10.86,1
2328,37.04,3.55,4.6,1
2329,37.05,-16.96,14.27,1
2330,37.06,-7.9,18.37,1
2331,37.08,-21.54,22.2,1
2332,37.09,-17.51,23.41,1
2333,37.11,-19.18,7.64,1
2334,37.12,-29.12,22.0,1
2335,37.13,-22.08,9.7,1
2336,37.15,-29.18,5.35,1
2337,37.16,-13.84,17.51,1
2338,37.17,-15.17,26.12,1
2339,37.19,-13.99,11.29,1
2340,37.2,-12.56,-5.48,1
2341,37.21,-17.76,-13.28,1
2342,37.22,-27.78,-1.19,1
2343,37.24,-17.53,0.34,1
2344,37.25,-22.11,-0.59,1
2345,37.27,-18.3,9.17,1
2346,37.28,-15.88,-0.94,1
2347,37.29,-18.71,9.88,1
2348,37.31,-14.69,8.56,1
2349,37.32,-14.31,14.76,1
2350,37.33,-4.01,18.81,1
2351,37.35,-12.34,12.54,1
2352,37.36,9.67,8.96,1
2353,37.37,-9.87,-2.88,1
2354,37.39,-15.32,-16.8,1
2355,37.4,-15.46,-3.3,1
2356,37.41,-3.17,6.36,1
2357,37.43,3.61,-3.04,1
2358,37.44,-10.38,5.36,1
2359,37.45,-9.05,-11.16,1
2360,37.47,-6.86,-13.68,1
2361,37.48,-1.76,-9.6,1
2362,37.49,-13.09,-16.82,1
2363,37.51,-4.2,-9.26,1
2364,37.52,5.31,-3.5,1
2365,37.53,-2.22,18.33,1
2366,37.54,-1.99,3.74,1
2367,37.56,0.9,-10.91,1
2368,37.57,5.8,-14.68,1
2369,37.59,10.55,-25.38,1
2370,37.6,9.37,-0.72,1
2371,37.61,0.48,1.45,1
2372,37.63,-8.05,3.69,1
2373,37.64,-0.46,-22.08,1
2374,37.65,-3.06,-11.23,1
2375,37.67,-1.72,4.86,1
2376,37.68,16.08,-0.76,1
2377,37.69,7.56,-1.46,1
2378,37.71,8.17,-0.19,1
2379,37.72,-4.38,-0.93,1
2380,37.73,7.45,-10.87,1
2381,37.75,13.02,17.46,1
2382,37.76,13.52,-6.79,1
2383,37.77,-2.98,0.53,1
2384,37.79,6.27,-13.64,1
2385,37.8,0.92,-0.82,1
2386,37.81,15.46,-0.64,1
2387,37.83,21.63,-22.66,1
2388,37.84,13.13,-16.85,1
2389,37.85,13.82,-6.62,1
2390,37.87,14.23,-1.73,1
2391,37.88,3.23,1.8,1
2392,37.89,6.94,19.8,1
2393,37.91,1.85,14.13,1
2394,37.92,-4.72,-1.75,1
2395,37.93,2.51,-4.87,1
2396,37.95,-3.2,-12.78,1
2397,37.96,6.25,-6.81,1
2398,37.97,-15.5,-7.76,1
2399,37.99,2.2,1.29,1
2400,38.0,-4.57,14.49,1
2401,38.01,9.73,15.85,1
2402,38.03,-0.43,21.8,1
2403,38.04,5.04,20.66,1
2404,38.05,-14.32,8.08,1
2405,38.07,-12.76,11.08,1
2406,38.08,-4.8,-6.99,1
2407,38.09,7.93,11.62,1
2408,38.11,-5.5,7.01,1
2409,38.12,-2.07,6.16,1
2410,38.13,1.16,16.67,1
2411,38.15,-5.27,14.23,1
2412,38.16,5.81,2.62,0
2413,38.17,-10.45,-12.88,0
2414,38.19,4.83,-12.33,0
2415,38.2,9.01,-34.58,0
2416,38.21,22.31,-4.53,0
2417,38.22,-64.11,11.26,0
2418,38.24,-64.42,0.79,0
2419,38.25,-116.95,17.63,0
2420,38.27,-127.11,-1.02,0
2421,38.28,-127.25,-15.29,0
2422,38.29,-111.33,-18.62,0
2423,38.31,-102.25,-23.66,0
2424,38.32,-73.86,-16.74,0
2425,38.33,-33.47,-26.73,0
2426,38.35,5.8,-2.82,0
2427,38.36,55.71,-2.08,0
2428,38.37,117.75,14.41,0
2429,38.38,177.51,28.81,0
2430,38.4,202.47,36.35,0
2431,38.41,206.03,27.89,0
2432,38.43,202.92,10.06,0
2433,38.44,187.72,13.94,0
2434,38.45,155.09,-3.04,0
2435,38.47,131.9,-6.81,0
2436,38.48,109.58,-10.74,0
2437,38.49,86.18,-10.1,0
2438,38.51,54.47,2.09,0
2439,38.52,27.14,-31.59,0
2440,38.53,9.33,-2.02,0
2441,38.55,54.11,-22.33,0
2442,38.56,-6.93,0.13,1
2443,38.57,-21.9,-10.31,1
2444,38.59,-48.95,-11.47,1
2445,38.6,-56.96,-9.48,1
2446,38.61,-81.72,-8.16,1
2447,38.63,-83.13,5.51,1
2448,38.64,-91.96,12.03,1
2449,38.65,-92.31,9.24,1
2450,38.67,-90.85,13.27,1
2451,38.68,-96.47,10.9,1
2452,38.69,-84.31,2.16,1
2453,38.71,-85.95,14.75,1
2454,38.72,-73.46,13.01,1
2455,38.73,-69.9,3.07,1
2456,38.75,-67.3,8.94,1
2457,38.76,-56.64,16.48,1
2458,38.77,-59.71,20.33,1
2459,38.79,-53.08,13.85,1
2460,38.8,-54.8,-13.5,1
2461,38.81,-58.24,-3.81,1
2462,38.83,-48.75,-11.95,1
2463,38.84,-34.25,13.06,1
2464,38.85,-45.11,-12.2,1
2465,38.87,-18.17,-21.2,1
2466,38.88,-20.26,-9.11,1
2467,38.89,0.62,-11.64,1
2468,38.9,-13.13,1.96,1
2469,38.92,-11.37,-17.91,1
2470,38.93,3.96,1.21,1
2471,38.95,12.97,-7.21,1
2472,38.96,0.66,-9.28,1
2473,38.97,5.43,3.14,1
2474,38.99,15.42,-3.82,1
2475,39.0,24.79,5.97,1
2476,39.01,4.03,19.02,1
2477,39.03,22.54,11.1,1
2478,39.04,38.56,17.63,1
2479,39.05,32.67,-8.02,1
2480,39.06,31.74,-24.66,1
2481,39.08,32.29,-4.34,1
2482,39.09,26.88,-3.77,1
2483,39.11,29.49,7.73,1
2484,39.12,32.43,-16.91,1
2485,39.13,14.03,3.55,1
2486,39.15,40.48,1.71,1
2487,39.16,35.75,2.65,1
2488,39.17,42.5,-9.2,1
2489,39.19,33.9,1.38,1
2490,39.2,35.35,-5.76,1
2491,39.21,21.85,9.12,1
2492,39.23,6.75,16.63,1
2493,39.24,22.23,-14.48,1
2494,39.25,11.14,12.9,1
2495,39.27,17.19,-16.75,1
2496,39.28,18.79,5.56,1
2497,39.29,18.59,14.29,1
2498,39.31,6.78,-2.69,1
2499,39.32,11.19,6.53,1
2500,39.33,7.1,-0.46,1
2501,39.35,14.38,-3.14,1
2502,39.36,18.73,16.01,1
2503,39.37,12.5,3.33,1
2504,39.39,0.99,-3.07,1
2505,39.4,7.25,14.15,1
2506,39.41,-9.6,8.39,1
2507,39.43,-3.68,7.85,1
2508,39.44,-10.92,-13.12,1
2509,39.45,-2.65,-3.97,1
2510,39.47,1.96,-1.26,1
2511,39.48,1.19,-16.92,1
2512,39.49,5.14,-18.83,1
2513,39.51,-2.62,-8.95,1
2514,39.52,0.14,-0.19,1
2515,39.53,-14.45,-17.68,1
2516,39.54,-17.61,0.31,1
2517,39.56,0.95,-5.7,1
2518,39.57,-5.58,-0.4,1
2519,39.59,-10.62,-6.74,1
2520,39.6,-5.74,-1.25,1
2521,39.61,-7.6,24.28,1
2522,39.63,-15.96,-3.17,1
2523,39.64,-9.38,-1.7,1
2524,39.65,-8.4,-9.2,1
2525,39.67,-11.82,-1.11,1
2526,39.68,-16.86,-13.09,1
2527,39.69,-15.99,3.14,1
2528,39.71,-10.84,24.15,1
2529,39.72,-6.39,-9.93,1
2530,39.73,1.97,2.17,1
2531,39.75,-2.68,2.89,1
2532,39.76,2.05,-1.03,1
2533,39.77,-6.46,19.55,1
2534,39.79,-5.44,2.15,1
2535,39.8,-1.4,4.77,1
2536,39.81,2.71,3.69,1
2537,39.83,2.17,6.1,1
2538,39.84,0.84,-2.82,1
2539,39.85,-0.77,-8.58,1
2540,39.87,-2.58,17.13,1
2541,39.88,4.97,6.86,1
2542,39.89,-3.36,-5.17,1
2543,39.91,-18.56,-2.02,1
2544,39.92,-12.34,-1.5,1
2545,39.93,-2.94,6.24,1
2546,39.95,-4.03,-2.05,1
2547,39.96,-11.29,4.04,1
2548,39.97,-11.24,9.95,1
2549,39.99,3.1,-1.5,1
2550,40.0,10.05,-3.89,1
2551,40.01,-6.54,11.3,1
2552,40.03,11.5,-0.93,1
2553,40.04,7.87,6.08,1
2554,40.05,-11.01,-3.98,1
2555,40.07,-3.94,1.81,1
2556,40.08,13.93,-7.67,1
2557,40.09,0.68,-13.49,1
2558,40.11,8.38,-14.14,1
2559,40.12,19.31,-7.93,1
2560,40.13,-3.8,4.32,1
2561,40.15,9.13,9.71,1
2562,40.16,4.1,-19.32,0
2563,40.17,-4.26,9.07,0
2564,40.19,9.68,-12.31,0
2565,40.2,-7.45,-24.09,0
2566,40.21,1.75,9.05,0
2567,40.22,-2.21,-26.19,0
2568,40.24,-53.38,18.42,0
2569,40.25,-95.8,-16.02,0
2570,40.27,-125.79,1.41,0
2571,40.28,-135.65,-15.32,0
2572,40.29,-119.3,22.78,0
2573,40.31,-100.64,37.05,0
2574,40.32,-30.6,39.66,0
2575,40.33,1.31,12.81,0
2576,40.35,52.12,11.2,0
2577,40.36,70.53,-5.74,0
2578,40.37,101.82,6.21,0
2579,40.38,99.24,-3.53,0
2580,40.4,123.76,-1.33,0
2581,40.41,124.63,-4.17,0
2582,40.43,134.92,-12.61,0
2583,40.44,118.14,-5.61,0
2584,40.45,116.37,-19.66,0
2585,40.47,99.73,-5.31,0
2586,40.48,81.34,2.05,0
2587,40.49,69.6,18.09,0
2588,40.51,60.81,-1.76,0
2589,40.52,46.87,-18.72,0
2590,40.53,44.89,0.81,0
2591,40.55,15.57,-0.4,0
2592,40.56,10.56,-3.54,1
2593,40.57,-5.03,5.6,1
2594,40.59,-21.73,25.03,1
2595,40.6,-27.27,13.65,1
2596,40.61,-18.02,-3.99,1
2597,40.63,-27.93,24.81,1
2598,40.64,-43.71,10.86,1
2599,40.65,-47.1,-35.65,1
2600,40.67,-50.02,-20.54,1
2601,40.68,-35.48,-3.61,1
2602,40.69,-41.31,3.21,1
2603,40.71,-54.42,-8.23,1
2604,40.72,-65.74,-28.18,1
2605,40.73,-55.45,-10.67,1
2606,40.75,-69.14,-4.58,1
2607,40.76,-52.06,-21.05,1
2608,40.77,-68.21,4.72,1
2609,40.79,-56.79,17.06,1
2610,40.8,-64.65,-2.94,1
2611,40.81,-58.85,-12.06,1
2612,40.83,-50.27,10.92,1
2613,40.84,-28.64,8.59,1
2614,40.85,-36.69,-3.74,1
2615,40.87,-23.96,-21.4,1
2616,40.88,-29.84,3.73,1
2617,40.89,-20.15,-4.23,1
2618,40.9,-19.72,20.39,1
2619,40.92,-12.75,-3.36,1
2620,40.93,-4.29,-24.81,1
2621,40.95,-3.44,-12.66,1
2622,40.96,-11.25,-10.44,1
2623,40.97,-14.9,9.28,1
2624,40.99,0.44,-10.2,1
2625,41.0,1.31,8.68,1
2626,41.01,14.95,-13.09,1
2627,41.03,16.23,8.71,1
2628,41.04,4.22,19.22,1
2629,41.05,32.87,13.52,1
2630,41.06,-2.37,5.58,1
2631,41.08,21.3,-15.37,1
2632,41.09,-0.52,14.33,1
2633,41.11,16.48,21.66,1
2634,41.12,8.52,8.19,1
2635,41.13,21.82,11.66,1
2636,41.15,19.87,12.67,1
2637,41.16,38.7,12.63,1
2638,41.17,41.37,1.5,1
2639,41.19,30.71,42.98,1
2640,41.2,29.72,21.14,1
2641,41.21,22.54,-11.01,1
2642,41.23,18.44,-6.04,1
2643,41.24,17.96,-22.25,1
2644,41.25,37.17,16.44,1
2645,41.27,13.92,8.19,1
2646,41.28,10.92,8.07,1
2647,41.29,11.12,1.54,1
2648,41.31,13.31,17.31,1
2649,41.32,26.6,-21.17,1
2650,41.33,21.36,-11.84,1
2651,41.35,9.54,-1.68,1
2652,41.36,4.78,-0.5,1
2653,41.37,33.68,-8.62,1
2654,41.38,-3.93,2.54,1
2655,41.4,9.96,18.37,1
2656,41.41,-8.87,-37.88,1
2657,41.43,8.75,-14.01,1
2658,41.44,-3.33,-6.3,1
2659,41.45,17.08,-23.13,1
2660,41.47,3.35,6.03,1
2661,41.48,13.31,-10.32,1
2662,41.49,-3.03,0.04,1
2663,41.51,-9.04,-10.9,1
2664,41.52,-8.81,-10.17,1
2665,41.53,-1.68,-14.18,1
2666,41.54,9.34,21.33,1
2667,41.56,-5.54,14.17,1
2668,41.57,-8.43,-9.79,1
2669,41.59,-1.87,3.3,1
2670,41.6,-12.08,14.17,1
2671,41.61,-1.93,-24.72,1
2672,41.63,-11.5,-23.49,1
2673,41.64,1.69,6.54,1
2674,41.65,-0.75,-4.87,1
2675,41.67,-21.83,-2.1,1
2676,41.68,-3.89,-5.18,1
2677,41.69,-4.95,5.66,1
2678,41.71,1.11,2.89,1
2679,41.72,-10.31,-5.25,1
2680,41.73,-26.22,2.73,1
2681,41.75,-10.89,6.79,1
2682,41.76,-11.83,-0.9,1
2683,41.77,-13.97,-8.48,1
2684,41.79,-15.22,-15.15,1
2685,41.8,-15.27,9.43,1
2686,41.81,-2.04,11.87,1
2687,41.83,6.64,5.12,1
2688,41.84,-5.16,-3.08,1
2689,41.85,3.59,24.92,1
2690,41.87,-3.43,5.13,1
2691,41.88,-0.59,-13.13,1
2692,41.89,-4.64,25.31,1
2693,41.91,-2.24,-2.7,1
2694,41.92,-2.44,-0.62,1
2695,41.93,-4.47,-26.32,1
2696,41.95,-13.74,7.78,1
2697,41.96,8.67,4.47,1
2698,41.97,5.46,19.34,1
2699,41.99,-11.52,-8.33,1
2700,42.0,17.07,19.14,1
2701,42.01,-13.35,13.13,1
2702,42.03,-3.45,16.01,1
2703,42.04,-0.79,-26.13,1
2704,42.05,6.13,-1.53,1
2705,42.06,20.36,7.31,1
2706,42.08,-10.09,0.22,1
2707,42.09,-11.07,6.69,1
2708,42.11,5.0,4.24,1
2709,42.12,13.46,9.57,1
2710,42.13,4.58,-5.64,1
2711,42.15,-1.8,12.74,1
2712,42.16,-9.57,-28.78,2
2713,42.17,18.82,-10.9,2
2714,42.19,-6.78,12.76,2
2715,42.2,31.05,-22.45,2
2716,42.21,3.71,-12.01,2
2717,42.22,-8.24,-37.98,2
2718,42.24,3.08,-63.28,2
2719,42.25,23.33,0.0,2
2720,42.27,25.25,6.34,2
2721,42.28,85.3,19.0,2
2722,42.29,103.81,14.47,2
2723,42.31,121.49,18.12,2
2724,42.32,123.84,20.77,2
2725,42.33,112.98,23.0,2
2726,42.35,96.39,4.98,2
2727,42.36,72.96,25.33,2
2728,42.37,31.67,15.34,2
2729,42.38,5.86,-18.16,2
2730,42.4,-62.83,3.51,2
2731,42.41,-137.91,2.96,2
2732,42.43,-180.72,2.69,2
2733,42.44,-207.82,-13.82,2
2734,42.45,-220.04,4.02,2
2735,42.47,-179.35,16.74,2
2736,42.48,-183.41,17.14,2
2737,42.49,-155.46,8.96,2
2738,42.51,-139.52,18.15,2
2739,42.52,-107.78,9.13,2
2740,42.53,-75.53,-13.31,2
2741,42.55,-67.32,-4.54,2
2742,42.56,-36.92,6.26,1
2743,42.57,-25.84,9.05,1
2744,42.59,4.84,-4.2,1
2745,42.6,9.75,3.68,1
2746,42.61,26.37,8.84,1
2747,42.63,54.09,-3.28,1
2748,42.64,54.77,-25.83,1
2749,42.65,67.12,-16.3,1
2750,42.67,91.03,-6.19,1
2751,42.68,93.59,-17.98,1
2752,42.69,81.13,-28.79,1
2753,42.71,64.69,0.65,1
2754,42.72,67.55,-7.06,1
2755,42.73,69.36,-4.81,1
2756,42.75,70.43,-14.56,1
2757,42.76,63.93,-14.76,1
2758,42.77,53.3,-4.69,1
2759,42.79,60.25,-20.16,1
2760,42.8,54.38,2.82,1
2761,42.81,51.73,12.6,1
2762,42.83,63.84,-3.83,1
2763,42.84,53.63,-2.16,1
2764,42.85,47.27,5.58,1
2765,42.87,42.7,5.17,1
2766,42.88,38.43,-19.09,1
2767,42.89,37.14,-4.92,1
2768,42.9,42.89,-2.97,1
2769,42.92,27.67,14.41,1
2770,42.93,30.57,20.76,1
2771,42.95,17.96,5.61,1
2772,42.96,2.49,21.34,1
2773,42.97,17.11,14.4,1
2774,42.99,-4.27,13.28,1
2775,43.0,-10.35,-6.61,1
2776,43.01,-3.93,-14.73,1
2777,43.03,6.95,-19.16,1
2778,43.04,-7.53,-16.68,1
2779,43.05,-27.87,-6.44,1
2780,43.06,-12.21,9.11,1
2781,43.08,-18.01,0.29,1
2782,43.09,-18.76,5.86,1
2783,43.11,-21.33,-7.18,1
2784,43.12,-18.27,8.13,1
2785,43.13,-14.72,6.57,1
2786,43.15,-31.99,4.01,1
2787,43.16,-32.97,-0.58,1
2788,43.17,-34.28,7.45,1
2789,43.19,-28.21,2.66,1
2790,43.2,-21.0,-5.41,1
2791,43.21,-29.52,16.34,1
2792,43.23,-27.89,-2.35,1
2793,43.24,-20.56,10.25,1
2794,43.25,-21.04,22.37,1
2795,43.27,-32.58,9.88,1
2796,43.28,-32.89,-2.77,1
2797,43.29,-31.64,20.43,1
2798,43.31,-32.35,-10.14,1
2799,43.32,-10.96,-6.84,1
2800,43.33,-16.0,-13.85,1
2801,43.35,-23.24,1.78,1
2802,43.36,-23.68,9.51,1
2803,43.37,-12.74,-18.08,1
2804,43.38,-2.21,-4.57,1
2805,43.4,-6.82,16.5,1
2806,43.41,-4.57,-13.17,1
2807,43.43,-1.45,11.72,1
2808,43.44,-13.88,11.49,1
2809,43.45,3.83,15.45,1
2810,43.47,-9.27,-5.62,1
2811,43.48,-5.75,-2.67,1
2812,43.49,0.18,-6.98,1
2813,43.51,-7.71,5.44,1
2814,43.52,2.52,6.6,1
2815,43.53,-11.57,-11.93,1
2816,43.54,-6.76,-3.48,1
2817,43.56,-10.42,-12.65,1
2818,43.57,-5.98,-18.08,1
2819,43.59,13.76,2.15,1
2820,43.6,11.21,-7.09,1
2821,43.61,17.94,-18.81,1
2822,43.63,10.26,5.98,1
2823,43.64,0.61,-5.36,1
2824,43.65,17.26,-11.26,1
2825,43.67,13.05,-10.53,1
2826,43.68,8.81,26.85,1
2827,43.69,2.8,6.53,1
2828,43.71,15.27,-3.99,1
2829,43.72,21.36,-7.39,1
2830,43.73,8.65,5.66,1
2831,43.75,4.55,4.16,1
2832,43.76,1.55,-8.6,1
2833,43.77,-2.51,-0.41,1
2834,43.79,10.57,3.01,1
2835,43.8,10.87,3.83,1
2836,43.81,8.02,-20.1,1
2837,43.83,14.21,5.37,1
2838,43.84,-9.07,-6.2,1
2839,43.85,16.27,10.88,1
2840,43.87,-0.43,-13.98,1
2841,43.88,6.78,7.36,1
2842,43.89,2.49,18.16,1
2843,43.91,13.09,2.97,1
2844,43.92,9.28,9.29,1
2845,43.93,5.06,-8.81,1
2846,43.95,-5.76,10.38,1
2847,43.96,-0.6,-4.89,1
2848,43.97,23.61,-2.18,1
2849,43.99,4.11,10.33,1
2850,44.0,1.8,11.93,1
2851,44.01,0.79,-2.59,1
2852,44.03,-3.0,-10.04,1
2853,44.04,-5.5,6.29,1
2854,44.05,-6.61,-11.98,1
2855,44.06,-15.29,0.94,1
2856,44.08,-10.46,-8.72,1
2857,44.09,13.07,0.09,1
2858,44.11,6.87,13.07,1
2859,44.12,12.58,20.34,1
2860,44.13,9.41,10.73,1
2861,44.15,-17.08,32.01,1
2862,44.16,16.09,36.11,1
2863,44.17,12.75,97.83,1
2864,44.19,13.24,98.19,1
2865,44.2,20.16,65.79,1
2866,44.21,-2.02,-23.79,1
2867,44.22,-8.15,-229.71,1
2868,44.24,131.44,348.89,1
2869,44.25,-117.91,172.93,1
2870,44.27,104.39,-30.52,1
2871,44.28,101.84,48.42,1
2872,44.29,251.83,212.78,1
2873,44.31,-8.88,114.96,1
2874,44.32,249.83,33.16,1
2875,44.33,98.66,-51.9,1
2876,44.35,-22.37,-42.18,1
2877,44.36,48.26,-402.73,1
2878,44.37,-157.83,-269.64,1
2879,44.39,-86.92,109.44,1
2880,44.4,-189.44,-236.16,1
2881,44.41,-268.28,-190.13,1
2882,44.43,-292.29,89.36,1
2883,44.44,-231.04,-51.42,1
2884,44.45,-353.87,-217.42,1
2885,44.47,66.12,-263.46,1
2886,44.48,-145.24,-144.4,1
2887,44.49,29.37,-249.63,1
2888,44.51,-95.63,-96.8,1
2889,44.52,-267.41,-283.69,1
2890,44.53,-86.38,-319.01,1
2891,44.55,53.88,-324.19,1
2892,44.56,-35.15,-11.67,1
2893,44.57,24.76,-251.34,1
2894,44.59,116.26,-94.76,1
2895,44.6,218.77,249.26,1
2896,44.61,123.24,154.92,1
2897,44.63,-22.94,190.47,1
2898,44.64,48.01,266.91,1
2899,44.65,21.18,466.24,1
2900,44.67,-79.82,258.87,1
2901,44.68,65.84,251.51,1
2902,44.69,40.37,413.59,1
2903,44.71,91.75,19.98,1
2904,44.72,-44.27,158.27,1
2905,44.73,-124.16,152.91,1
2906,44.75,315.68,-60.91,1
2907,44.76,84.48,419.88,1
2908,44.77,160.21,69.68,1
2909,44.79,138.09,-127.27,1
2910,44.8,109.68,-239.31,1
2911,44.81,139.45,71.09,1
2912,44.83,160.5,82.82,1
2913,44.84,-78.91,-41.69,1
2914,44.85,203.73,303.05,1
2915,44.87,-15.5,82.0,1
2916,44.88,339.89,-92.48,1
2917,44.89,-2.07,-71.25,1
2918,44.9,263.62,365.81,1
2919,44.92,102.03,-267.99,1
2920,44.93,-272.07,-213.02,1
2921,44.95,-133.21,-136.9,1
2922,44.96,-252.86,-54.52,1
2923,44.97,26.55,-63.77,1
2924,44.99,-121.09,-4.43,1
2925,45.0,93.28,-39.46,1
2926,45.01,-140.58,30.08,1
2927,45.03,-19.01,39.05,1
2928,45.04,-31.51,-108.18,1
2929,45.05,-8.34,-119.85,1
2930,45.07,-26.54,1.97,1
2931,45.08,4.14,-71.36,1
2932,45.09,-53.05,-82.51,1
2933,45.11,-171.67,-140.86,1
2934,45.12,-163.85,-114.87,1
2935,45.13,-189.55,-103.1,1
2936,45.15,-160.67,-66.24,1
2937,45.16,-99.09,-12.34,1
2938,45.17,-62.05,54.98,1
2939,45.19,-38.65,44.81,1
2940,45.2,16.81,113.85,1
2941,45.21,39.28,161.82,1
2942,45.22,42.15,172.88,1
2943,45.24,90.64,196.15,1
2944,45.25,91.84,168.97,1
2945,45.27,66.22,160.08,1
2946,45.28,81.7,142.35,1
2947,45.29,87.4,138.08,1
2948,45.31,76.08,71.1,1
2949,45.32,70.9,77.26,1
2950,45.33,77.19,35.83,1
2951,45.35,61.98,6.39,1
2952,45.36,58.1,-24.07,1
2953,45.37,28.09,-50.31,1
2954,45.38,12.79,-59.71,1
2955,45.4,18.25,-46.75,1
2956,45.41,5.96,-48.61,1
2957,45.43,-3.67,-75.29,1
2958,45.44,-15.07,-93.68,1
2959,45.45,-9.45,-85.04,1
2960,45.47,-20.51,-89.98,1
2961,45.48,-29.68,-83.96,1
2962,45.49,-30.62,-99.45,1
2963,45.51,-36.2,-99.01,1
2964,45.52,-43.33,-95.2,1
2965,45.53,-32.54,-91.69,1
2966,45.54,-28.32,-87.83,1
2967,45.56,-33.69,-69.85,1
2968,45.57,-30.81,-70.11,1
2969,45.59,-32.85,-88.6,1
2970,45.6,-44.89,-93.64,1
2971,45.61,-36.81,-98.53,1
2972,45.63,-24.17,-87.06,1
2973,45.64,-38.56,-63.13,1
2974,45.65,-22.19,-67.34,1
2975,45.67,-30.26,-59.98,1
2976,45.68,-29.27,-29.58,1
2977,45.69,-25.93,-24.5,1
2978,45.71,-21.7,-14.92,1
2979,45.72,0.37,1.61,1
2980,45.73,-15.02,14.01,1
2981,45.75,-7.33,-2.69,1
2982,45.76,-2.71,7.22,1
2983,45.77,0.65,31.03,1
2984,45.79,-6.15,27.7,1
2985,45.8,-3.24,42.87,1
2986,45.81,-2.18,50.6,1
2987,45.83,7.58,34.66,1
2988,45.84,-2.3,43.18,1
2989,45.85,14.53,51.83,1
2990,45.87,3.73,36.59,1
2991,45.88,12.7,43.39,1
2992,45.89,14.25,55.06,1
2993,45.9,4.88,43.31,1
2994,45.92,14.46,49.68,1
2995,45.93,0.22,47.78,1
2996,45.95,21.23,73.04,1
2997,45.96,1.09,53.85,1
2998,45.97,9.86,23.66,1
2999,45.99,14.3,35.93,1
3000,46.0,18.57,45.38,1
3001,46.01,25.51,48.59,1
3002,46.03,20.86,57.63,1
3003,46.04,22.12,40.03,1
3004,46.05,29.13,57.4,1
3005,46.06,-4.46,17.41,1
3006,46.08,11.21,14.7,1
3007,46.09,11.1,17.84,1
3008,46.11,12.9,17.86,1
3009,46.12,30.54,4.3,1
3010,46.13,9.09,20.79,1
3011,46.15,20.87,-7.11,1
3012,46.16,14.06,-2.38,2
3013,46.17,3.31,-14.31,2
3014,46.19,26.76,-15.09,2
3015,46.2,5.33,-18.46,2
3016,46.21,18.82,-13.71,2
3017,46.22,9.58,-1.17,2
3018,46.24,-0.13,-22.2,2
3019,46.25,92.81,-15.87,2
3020,46.27,147.52,-19.53,2
3021,46.28,140.95,-47.23,2
3022,46.29,123.25,-31.47,2
3023,46.31,85.21,-32.37,2
3024,46.32,40.83,-46.42,2
3025,46.33,-19.79,-11.34,2
3026,46.35,-51.26,-6.07,2
3027,46.36,-83.65,6.41,2
3028,46.37,-119.35,21.06,2
3029,46.39,-137.47,37.17,2
3030,46.4,-132.35,37.87,2
3031,46.41,-110.62,41.32,2
3032,46.43,-116.35,29.5,2
3033,46.44,-101.54,36.82,2
3034,46.45,-89.68,17.63,2
3035,46.47,-79.97,16.75,2
3036,46.48,-70.1,36.5,2
3037,46.49,-47.88,20.4,2
3038,46.51,-46.87,19.6,2
3039,46.52,-37.76,-3.05,2
3040,46.53,-18.01,-14.37,2
3041,46.54,-17.69,-8.33,2
3042,46.56,-6.22,-16.07,1
3043,46.57,-13.99,-14.09,1
3044,46.59,16.65,-23.08,1
3045,46.6,6.86,-19.83,1
3046,46.61,15.83,-25.74,1
3047,46.63,33.84,-34.78,1
3048,46.64,20.16,-31.96,1
3049,46.65,19.5,-69.21,1
3050,46.67,24.42,-33.36,1
3051,46.68,47.63,-14.4,1
3052,46.69,48.66,-22.51,1
3053,46.71,39.59,2.78,1
3054,46.72,54.03,-25.27,1
3055,46.73,38.51,-28.78,1
3056,46.75,73.52,-37.89,1
3057,46.76,44.71,-17.91,1
3058,46.77,43.36,-28.71,1
3059,46.79,26.41,-42.6,1
3060,46.8,36.1,-18.63,1
3061,46.81,33.24,-22.11,1
3062,46.83,45.41,-3.69,1
3063,46.84,35.11,-4.44,1
3064,46.85,25.52,4.35,1
3065,46.87,29.1,-9.59,1
3066,46.88,15.1,-11.2,1
3067,46.89,23.89,4.72,1
3068,46.9,22.59,8.41,1
3069,46.92,-7.77,9.03,1
3070,46.93,18.15,25.2,1
3071,46.95,11.01,11.99,1
3072,46.96,0.55,20.26,1
3073,46.97,9.47,38.55,1
3074,46.99,-1.3,32.53,1
3075,47.0,-3.49,9.15,1
3076,47.01,-3.64,10.44,1
3077,47.03,-19.83,4.85,1
3078,47.04,1.77,-3.38,1
3079,47.05,-24.96,27.66,1
3080,47.07,5.65,21.29,1
3081,47.08,-4.16,40.5,1
3082,47.09,8.1,15.37,1
3083,47.11,-15.03,15.64,1
3084,47.12,-14.9,23.32,1
3085,47.13,-15.42,-13.91,1
3086,47.15,-28.65,25.11,1
3087,47.16,-11.0,30.49,1
3088,47.17,-0.24,16.18,1
3089,47.19,-12.21,18.55,1
3090,47.2,-7.17,2.07,1
3091,47.21,-11.28,-15.14,1
3092,47.22,-21.49,-3.46,1
3093,47.24,-28.07,-1.63,1
3094,47.25,-15.26,-2.09,1
3095,47.27,-28.91,-6.48,1
3096,47.28,-19.17,-15.03,1
3097,47.29,-28.71,6.71,1
3098,47.31,-4.44,-7.79,1
3099,47.32,-10.27,2.88,1
3100,47.33,-14.97,20.34,1
3101,47.35,-18.72,12.24,1
3102,47.36,-5.33,-9.16,1
3103,47.37,-20.13,-36.77,1
3104,47.38,-18.62,-4.47,1
3105,47.4,-15.0,-11.14,1
3106,47.41,-5.13,0.9,1
3107,47.43,-8.74,-14.73,1
3108,47.44,-2.4,4.75,1
3109,47.45,-5.39,-3.75,1
3110,47.47,0.24,-11.25,1
3111,47.48,-18.55,3.82,1
3112,47.49,7.63,0.07,1
3113,47.51,-12.44,2.83,1
3114,47.52,-5.6,3.3,1
3115,47.53,2.44,-1.5,1
3116,47.54,11.17,4.21,1
3117,47.56,-7.23,-7.36,1
3118,47.57,6.39,-12.78,1
3119,47.59,4.46,-4.66,1
3120,47.6,3.59,-26.73,1
3121,47.61,11.67,-1.33,1
3122,47.63,17.07,16.78,1
3123,47.64,10.12,-0.19,1
3124,47.65,-1.88,-4.34,1
3125,47.67,2.49,-2.36,1
3126,47.68,7.26,12.02,1
3127,47.69,16.22,-2.06,1
3128,47.71,16.33,0.03,1
3129,47.72,16.5,0.27,1
3130,47.73,10.09,1.77,1
3131,47.75,3.15,6.08,1
3132,47.76,4.71,-12.77,1
3133,47.77,11.81,-16.74,1
3134,47.79,27.47,-14.56,1
3135,47.8,7.38,-11.78,1
3136,47.81,-3.53,1.67,1
3137,47.83,-5.42,-2.45,1
3138,47.84,-4.3,-12.31,1
3139,47.85,-5.12,8.65,1
3140,47.87,4.56,1.62,1
3141,47.88,11.32,-14.35,1
3142,47.89,0.89,-8.96,1
3143,47.9,9.42,6.75,1
3144,47.92,-2.02,0.21,1
3145,47.93,14.16,16.92,1
3146,47.95,0.13,8.22,1
3147,47.96,-13.1,12.26,1
3148,47.97,-0.07,3.18,1
3149,47.99,3.95,-26.11,1
3150,48.0,-3.57,8.54,1
3151,48.01,-0.68,-2.48,1
3152,48.03,-5.74,30.4,1
3153,48.04,17.08,10.74,1
3154,48.05,7.47,-2.43,1
3155,48.06,-4.88,7.65,1
3156,48.08,-14.4,7.45,1
3157,48.09,-3.03,3.94,1
3158,48.11,-4.55,9.7,1
3159,48.12,-3.14,4.78,1
3160,48.13,1.1,9.28,1
3161,48.15,-8.34,13.35,1
3162,48.16,1.13,1.94,0
3163,48.17,-2.49,-9.29,0
3164,48.19,5.31,-14.84,0
3165,48.2,-3.3,-10.31,0
3166,48.21,11.13,5.4,0
3167,48.22,-16.16,-5.91,0
3168,48.24,0.21,-10.5,0
3169,48.25,-7.36,-1.43,0
3170,48.27,14.32,19.27,0
3171,48.28,8.0,-3.06,0
3172,48.29,8.25,-17.95,0
3173,48.31,0.95,-13.71,0
3174,48.32,5.78,8.39,0
3175,48.33,-1.96,-4.99,0
3176,48.35,-10.3,11.18,0
3177,48.36,-6.5,38.86,0
3178,48.37,-6.97,33.23,0
3179,48.39,15.04,-15.93,0
3180,48.4,-1.47,21.63,0
3181,48.41,20.26,42.54,0
3182,48.43,-58.52,-17.71,0
3183,48.44,-81.7,-14.44,0
3184,48.45,-119.6,-25.11,0
3185,48.47,-106.63,-54.35,0
3186,48.48,-128.73,-41.94,0
3187,48.49,-131.28,-64.22,0
3188,48.51,-96.9,-40.51,0
3189,48.52,-69.68,-26.83,0
3190,48.53,-37.73,-15.02,0
3191,48.54,5.98,-7.09,0
3192,48.56,44.56,-1.62,1
3193,48.57,115.78,21.82,1
3194,48.59,170.32,11.84,1
3195,48.6,190.26,18.87,1
3196,48.61,185.04,7.35,1
3197,48.63,176.69,10.6,1
3198,48.64,166.38,25.57,1
3199,48.65,139.14,21.82,1
3200,48.67,125.32,32.08,1
3201,48.68,101.16,17.6,1
3202,48.69,80.98,45.22,1
3203,48.71,53.24,33.61,1
3204,48.72,25.37,23.44,1
3205,48.73,6.39,18.97,1
3206,48.75,6.93,6.56,1
3207,48.76,0.92,5.03,1
3208,48.77,-15.94,23.46,1
3209,48.79,-24.19,2.52,1
3210,48.8,-23.56,4.35,1
3211,48.81,-34.0,-1.35,1
3212,48.83,-56.09,-4.46,1
3213,48.84,-68.84,-0.8,1
3214,48.85,-66.35,-24.28,1
3215,48.87,-80.36,-16.33,1
3216,48.88,-73.54,-20.35,1
3217,48.89,-66.71,-9.92,1
3218,48.9,-66.25,-15.83,1
3219,48.92,-60.06,-18.68,1
3220,48.93,-62.46,-5.27,1
3221,48.95,-62.03,-9.3,1
3222,48.96,-64.11,-1.27,1
3223,48.97,-61.55,-19.92,1
3224,48.99,-52.75,-14.65,1
3225,49.0,-62.97,-7.51,1
3226,49.01,-47.87,-22.48,1
3227,49.03,-33.95,-15.15,1
3228,49.04,-35.32,-16.96,1
3229,49.05,-41.18,-2.13,1
3230,49.06,-24.53,8.4,1
3231,49.08,-13.19,-5.98,1
3232,49.09,-21.29,-9.77,1
3233,49.11,-5.57,-0.09,1
3234,49.12,-12.15,-4.74,1
3235,49.13,2.08,21.05,1
3236,49.15,-13.16,-16.59,1
3237,49.16,-2.12,6.94,1
3238,49.17,14.7,2.17,1
3239,49.19,11.15,-1.5,1
3240,49.2,18.94,22.32,1
3241,49.21,7.18,0.68,1
3242,49.22,7.91,9.01,1
3243,49.24,15.52,-0.41,1
3244,49.25,24.17,18.52,1
3245,49.27,15.27,-14.65,1
3246,49.28,21.27,12.85,1
3247,49.29,10.8,6.89,1
3248,49.31,26.41,4.45,1
3249,49.32,36.16,13.54,1
3250,49.33,24.15,5.89,1
3251,49.35,33.49,-1.03,1
3252,49.36,21.61,13.79,1
3253,49.37,14.47,-3.61,1
3254,49.38,25.15,7.94,1
3255,49.4,27.11,2.7,1
3256,49.41,19.19,9.24,1
3257,49.43,14.98,-4.7,1
3258,49.44,11.19,-7.11,1
3259,49.45,18.96,13.94,1
3260,49.47,29.48,2.86,1
3261,49.48,33.09,11.79,1
3262,49.49,25.67,17.26,1
3263,49.51,8.07,10.36,1
3264,49.52,-1.48,2.44,1
3265,49.53,16.02,-11.83,1
3266,49.54,5.79,-4.8,1
3267,49.56,9.14,-23.36,1
3268,49.57,20.62,-4.66,1
3269,49.59,21.9,1.87,1
3270,49.6,11.89,-5.91,1
3271,49.61,8.06,-17.71,1
3272,49.63,-0.8,-11.65,1
3273,49.64,-1.99,3.26,1
3274,49.65,-2.34,-22.82,1
3275,49.67,6.82,-1.24,1
3276,49.68,1.24,1.0,1
3277,49.69,-7.79,11.39,1
3278,49.71,-8.24,0.53,1
3279,49.72,-7.84,18.06,1
3280,49.73,11.34,12.21,1
3281,49.75,-0.57,-6.92,1
3282,49.76,-6.15,-25.49,1
3283,49.77,-2.78,-0.65,1
3284,49.79,-13.79,-0.27,1
3285,49.8,-15.43,-3.65,1
3286,49.81,-17.05,23.86,1
3287,49.83,-14.56,18.3,1
3288,49.84,-9.06,-18.36,1
3289,49.85,-12.54,-1.46,1
3290,49.87,-8.76,-7.78,1
3291,49.88,-6.27,1.66,1
3292,49.89,-10.76,-8.92,1
3293,49.9,-17.06,15.03,1
3294,49.92,-2.22,6.24,1
3295,49.93,5.3,-3.4,1
3296,49.95,-5.43,-0.99,1
3297,49.96,0.27,-4.25,1
3298,49.97,-7.75,0.69,1
3299,49.99,-15.1,-12.92,1
3300,50.0,-2.02,-19.82,1
3301,50.01,-0.57,3.1,1
3302,50.03,0.29,-4.28,1
3303,50.04,-12.86,9.03,1
3304,50.05,-7.53,-10.06,1
3305,50.06,-15.91,-9.91,1
3306,50.08,-15.32,-6.42,1
3307,50.09,9.3,6.59,1
3308,50.11,-2.23,11.95,1
3309,50.12,7.97,10.26,1
3310,50.13,6.75,-6.2,1
3311,50.15,1.09,14.75,1
3312,50.16,-12.39,-3.93,0
3313,50.17,2.48,2.56,0
3314,50.19,2.01,34.1,0
3315,50.2,16.98,-16.97,0
3316,50.21,-8.25,-6.44,0
3317,50.22,-9.93,-16.63,0
3318,50.24,-47.77,-55.91,0
3319,50.25,-88.18,-0.42,0
3320,50.27,-130.1,-5.82,0
3321,50.28,-108.56,-21.7,0
3322,50.29,-118.58,-18.5,0
3323,50.31,-64.02,22.54,0
3324,50.32,-43.91,29.74,0
3325,50.33,-5.39,10.72,0
3326,50.35,36.99,30.13,0
3327,50.36,77.07,18.26,0
3328,50.37,99.95,11.02,0
3329,50.38,116.72,5.44,0
3330,50.4,128.4,13.08,0
3331,50.41,138.09,17.74,0
3332,50.43,135.69,24.63,0
3333,50.44,93.14,-2.79,0
3334,50.45,107.2,2.24,0
3335,50.47,92.03,-1.56,0
3336,50.48,77.97,-4.2,0
3337,50.49,51.2,-2.48,0
3338,50.51,67.88,10.69,0
3339,50.52,37.84,13.63,0
3340,50.53,32.59,11.63,0
3341,50.54,6.8,10.0,0
3342,50.56,18.94,-11.14,1
3343,50.57,0.78,13.38,1
3344,50.59,-0.85,-8.79,1
3345,50.6,-12.2,-4.52,1
3346,50.61,-29.39,-0.03,1
3347,50.63,-39.68,-3.74,1
3348,50.64,-41.82,4.41,1
3349,50.65,-37.88,15.66,1
3350,50.67,-43.8,-13.57,1
3351,50.68,-46.4,19.41,1
3352,50.69,-52.09,13.25,1
3353,50.71,-64.57,-11.56,1
3354,50.72,-87.8,-5.04,1
3355,50.73,-81.43,-33.04,1
3356,50.75,-51.84,-34.01,1
3357,50.76,-38.26,-29.54,1
3358,50.77,-42.75,-41.72,1
3359,50.79,-50.81,-17.33,1
3360,50.8,-49.23,1.57,1
3361,50.81,-40.49,1.54,1
3362,50.83,-33.9,-2.63,1
3363,50.84,-41.07,-8.13,1
3364,50.85,-15.27,-12.28,1
3365,50.87,-29.43,-24.18,1
3366,50.88,-28.78,2.03,1
3367,50.89,-15.24,5.32,1
3368,50.91,-10.35,9.33,1
3369,50.92,-28.29,-13.3,1
3370,50.93,-17.8,-7.91,1
3371,50.95,7.94,-12.66,1
3372,50.96,-0.76,-4.99,1
3373,50.97,-14.58,-20.23,1
3374,50.99,-18.12,14.14,1
3375,51.0,-7.19,-1.55,1
3376,51.01,-9.29,-12.29,1
3377,51.03,0.29,4.77,1
3378,51.04,27.91,26.04,1
3379,51.05,12.44,5.27,1
3380,51.06,16.99,-12.08,1
3381,51.08,20.44,-14.81,1
3382,51.09,19.15,25.72,1
3383,51.11,13.96,29.72,1
3384,51.12,20.31,3.63,1
3385,51.13,18.3,6.41,1
3386,51.15,21.21,23.09,1
3387,51.16,13.66,3.7,1
3388,51.17,19.96,31.84,1
3389,51.19,13.69,-0.8,1
3390,51.2,4.82,-0.39,1
3391,51.21,43.18,17.27,1
3392,51.22,35.99,1.73,1
3393,51.24,44.57,-2.0,1
3394,51.25,6.0,4.69,1
3395,51.27,36.18,5.03,1
3396,51.28,36.83,7.29,1
3397,51.29,23.59,-21.56,1
3398,51.31,12.08,13.41,1
3399,51.32,16.4,28.15,1
3400,51.33,4.22,-4.39,1
3401,51.35,16.21,26.06,1
3402,51.36,21.42,5.77,1
3403,51.37,8.84,6.3,1
3404,51.38,11.56,-5.98,1
3405,51.4,-1.66,-4.77,1
3406,51.41,17.62,5.35,1
3407,51.43,-3.34,20.44,1
3408,51.44,23.46,-25.66,1
3409,51.45,20.14,10.74,1
3410,51.47,1.05,7.19,1
3411,51.48,2.91,-13.77,1
3412,51.49,-21.91,7.05,1
3413,51.51,-20.03,-9.18,1
3414,51.52,5.8,19.15,1
3415,51.53,8.11,17.26,1
3416,51.55,-11.6,-7.34,1
3417,51.56,-14.82,-5.44,1
3418,51.57,-14.3,-33.4,1
3419,51.59,-12.28,3.06,1
3420,51.6,-23.24,-17.05,1
3421,51.61,5.02,1.28,1
3422,51.63,4.95,-11.81,1
3423,51.64,5.51,-12.44,1
3424,51.65,-8.5,-11.69,1
3425,51.67,2.71,-32.04,1
3426,51.68,-19.53,-11.17,1
3427,51.69,-20.13,-4.83,1
3428,51.71,-17.43,-19.12,1
3429,51.72,-16.91,3.78,1
3430,51.73,-17.38,1.3,1
3431,51.75,-11.13,10.62,1
3432,51.76,-13.56,-10.83,1
3433,51.77,5.19,-19.3,1
3434,51.79,-3.92,-14.54,1
3435,51.8,-1.11,-4.23,1
3436,51.81,-6.12,-15.06,1
3437,51.83,-1.16,7.43,1
3438,51.84,-0.35,3.43,1
3439,51.85,2.19,-2.74,1
3440,51.87,-15.05,-1.75,1
3441,51.88,-18.65,20.77,1
3442,51.89,33.48,7.75,1
3443,51.9,-9.64,9.75,1
3444,51.92,-19.33,3.05,1
3445,51.93,14.3,-12.28,1
3446,51.95,20.28,3.44,1
3447,51.96,-22.17,4.72,1
3448,51.97,0.82,-12.67,1
3449,51.99,16.16,25.82,1
3450,52.0,-0.09,3.73,1
3451,52.01,-11.08,-10.39,1
3452,52.03,-22.86,21.9,1
3453,52.04,11.67,-5.85,1
3454,52.05,-3.21,20.44,1
3455,52.06,-20.02,0.55,1
3456,52.08,-10.47,-14.79,1
3457,52.09,-11.56,-7.36,1
3458,52.11,-6.84,16.26,1
3459,52.12,18.59,9.97,1
3460,52.13,1.85,-9.8,1
3461,52.15,22.17,-9.58,1
3462,52.16,-0.87,16.28,2
3463,52.17,13.26,21.63,2
3464,52.19,7.12,14.3,2
3465,52.2,17.79,-8.84,2
3466,52.21,0.83,43.02,2
3467,52.23,29.28,3.2,2
3468,52.24,-3.01,-15.46,2
3469,52.25,1.85,-23.32,2
3470,52.27,-6.7,-21.33,2
3471,52.28,86.29,-35.49,2
3472,52.29,120.21,-21.87,2
3473,52.31,131.98,3.49,2
3474,52.32,134.68,16.99,2
3475,52.33,158.17,-16.53,2
3476,52.35,115.62,8.67,2
3477,52.36,75.55,-5.76,2
3478,52.37,36.72,11.82,2
3479,52.38,-6.11,14.86,2
3480,52.4,-51.28,11.69,2
3481,52.41,-128.91,7.66,2
3482,52.43,-188.75,33.28,2
3483,52.44,-198.04,3.8,2
3484,52.45,-224.4,3.24,2
3485,52.47,-204.08,25.55,2
3486,52.48,-198.73,15.85,2
3487,52.49,-150.11,9.09,2
3488,52.51,-144.45,0.63,2
3489,52.52,-107.27,35.86,2
3490,52.53,-93.7,4.77,2
3491,52.54,-61.82,-0.15,2
3492,52.56,-31.26,-17.24,1
3493,52.57,-32.82,-5.83,1
3494,52.59,-12.92,-7.61,1
3495,52.6,0.46,12.6,1
3496,52.61,33.27,-3.52,1
3497,52.63,33.49,4.74,1
3498,52.64,60.04,-21.8,1
3499,52.65,61.89,-7.62,1
3500,52.67,80.86,-21.58,1
3501,52.68,71.71,-42.31,1
3502,52.69,83.13,-20.2,1
3503,52.71,75.19,-5.33,1
3504,52.72,75.56,-2.32,1
3505,52.73,79.07,-24.63,1
3506,52.75,57.0,-5.2,1
3507,52.76,76.63,-38.96,1
3508,52.77,77.45,-15.11,1
3509,52.79,71.08,-23.56,1
3510,52.8,60.92,3.1,1
3511,52.81,77.25,-18.56,1
3512,52.83,60.74,-23.49,1
3513,52.84,46.77,-0.64,1
3514,52.85,45.93,24.46,1
3515,52.87,56.17,20.97,1
3516,52.88,14.38,24.67,1
3517,52.89,41.11,-4.04,1
3518,52.9,45.15,-12.56,1
3519,52.92,23.74,26.96,1
3520,52.93,14.41,4.72,1
3521,52.95,18.69,-18.22,1
3522,52.96,8.7,5.56,1
3523,52.97,20.74,13.6,1
3524,52.99,3.61,8.17,1
3525,53.0,-13.49,13.87,1
3526,53.01,-16.65,13.07,1
3527,53.03,-13.88,26.55,1
3528,53.04,-15.78,37.03,1
3529,53.05,-18.42,-12.93,1
3530,53.06,-10.47,-6.84,1
3531,53.08,-21.69,22.29,1
3532,53.09,-24.51,12.36,1
3533,53.11,-18.52,-1.94,1
3534,53.12,-22.98,4.21,1
3535,53.13,-32.25,42.52,1
3536,53.15,-18.37,8.92,1
3537,53.16,-33.61,-17.97,1
3538,53.17,-28.43,-25.4,1
3539,53.19,-31.21,-0.91,1
3540,53.2,-16.82,-0.61,1
3541,53.21,-22.7,-9.88,1
3542,53.22,-27.11,-20.88,1
3543,53.24,-40.95,11.15,1
3544,53.25,-32.04,-33.31,1
3545,53.27,-16.77,-4.38,1
3546,53.28,-18.83,13.16,1
3547,53.29,-20.81,-7.81,1
3548,53.31,-7.61,22.88,1
3549,53.32,-19.51,-1.3,1
3550,53.33,-11.05,-4.74,1
3551,53.35,-13.78,-1.69,1
3552,53.36,-23.82,-6.99,1
3553,53.37,-20.35,-16.89,1
3554,53.38,-1.55,1.8,1
3555,53.4,-1.73,5.88,1
3556,53.41,-12.87,5.26,1
3557,53.43,-15.89,15.41,1
3558,53.44,-9.17,-1.45,1
3559,53.45,-11.81,-5.1,1
3560,53.47,-8.68,-25.06,1
3561,53.48,-12.01,-18.88,1
3562,53.49,2.81,-2.0,1
3563,53.51,2.0,1.08,1
3564,53.52,-3.23,11.19,1
3565,53.53,-4.34,12.59,1
3566,53.54,-0.73,-4.52,1
3567,53.56,0.99,-25.28,1
3568,53.57,10.0,-10.91,1
3569,53.59,15.31,2.44,1
3570,53.6,2.25,19.63,1
3571,53.61,2.98,18.58,1
3572,53.63,-3.98,2.34,1
3573,53.64,-4.61,0.94,1
3574,53.65,10.26,10.59,1
3575,53.67,-4.52,7.21,1
3576,53.68,27.29,-6.27,1
3577,53.69,11.92,-14.88,1
3578,53.71,16.92,18.13,1
3579,53.72,2.72,-24.0,1
3580,53.73,8.17,-4.58,1
3581,53.75,6.31,-12.87,1
3582,53.76,9.88,6.97,1
3583,53.77,9.97,3.95,1
3584,53.79,10.32,12.53,1
3585,53.8,19.82,24.23,1
3586,53.81,2.91,-14.98,1
3587,53.83,11.51,-25.41,1
3588,53.84,21.6,-9.04,1
3589,53.85,8.63,5.67,1
3590,53.87,14.32,-1.57,1
3591,53.88,-5.63,-12.79,1
3592,53.89,-2.13,-3.32,1
3593,53.9,1.07,11.5,1
3594,53.92,2.04,13.28,1
3595,53.93,-0.05,-7.95,1
3596,53.95,10.14,2.92,1
3597,53.96,5.49,-11.17,1
3598,53.97,9.5,-15.34,1
3599,53.99,-4.49,22.3,1
3600,54.0,-8.13,2.98,1
3601,54.01,2.34,17.35,1
3602,54.03,16.9,13.47,1
3603,54.04,13.29,2.96,1
3604,54.05,-1.52,24.7,1
3605,54.06,-5.46,29.3,1
3606,54.08,-36.48,4.29,1
3607,54.09,-11.79,62.88,1
3608,54.11,3.62,131.74,1
3609,54.12,9.21,214.07,1
3610,54.13,-3.4,173.07,1
3611,54.15,22.04,214.38,1
3612,54.16,-45.26,-44.01,1
3613,54.17,-129.97,-71.29,1
3614,54.19,0.59,202.01,1
3615,54.2,38.11,12.44,1
3616,54.21,289.0,131.42,1
3617,54.22,121.15,24.0,1
3618,54.24,324.53,12.72,1
3619,54.25,202.51,-73.78,1
3620,54.27,110.48,-126.62,1
3621,54.28,-90.96,-79.93,1
3622,54.29,-48.9,-182.48,1
3623,54.31,19.53,-222.55,1
3624,54.32,-37.21,-260.93,1
3625,54.33,-137.81,-446.29,1
3626,54.35,-172.96,-559.31,1
3627,54.36,-275.58,-21.14,1
3628,54.37,-230.52,-240.57,1
3629,54.38,-246.24,-183.77,1
3630,54.4,-159.14,-375.93,1
3631,54.41,-122.91,-136.68,1
3632,54.43,-271.84,68.3,1
3633,54.44,-142.06,-348.88,1
3634,54.45,-41.0,137.86,1
3635,54.47,-28.29,110.17,1
3636,54.48,-18.71,-260.51,1
3637,54.49,33.65,15.09,1
3638,54.51,4.32,141.64,1
3639,54.52,-24.77,529.38,1
3640,54.53,100.65,73.23,1
3641,54.54,119.26,186.35,1
3642,54.56,-51.66,121.43,1
3643,54.57,88.15,382.18,1
3644,54.59,74.26,-215.96,1
3645,54.6,29.33,-218.8,1
3646,54.61,342.52,122.49,1
3647,54.63,64.41,550.07,1
3648,54.64,290.78,299.02,1
3649,54.65,-35.96,-129.79,1
3650,54.67,264.71,245.16,1
3651,54.68,155.42,18.03,1
3652,54.69,-16.84,226.42,1
3653,54.71,-177.41,306.64,1
3654,54.72,12.31,-125.75,1
3655,54.73,-92.1,-80.34,1
3656,54.75,-140.39,-27.46,1
3657,54.76,-158.39,306.85,1
3658,54.77,148.21,132.73,1
3659,54.79,93.35,119.15,1
3660,54.8,-29.44,346.55,1
3661,54.81,87.19,-111.55,1
3662,54.83,79.25,352.83,1
3663,54.84,-52.09,-170.14,1
3664,54.85,55.06,-268.3,1
3665,54.87,49.19,-124.62,1
3666,54.88,-55.68,95.07,1
3667,54.89,21.32,-95.31,1
3668,54.9,8.09,74.02,1
3669,54.92,75.69,48.41,1
3670,54.93,118.33,-70.56,1
3671,54.95,-80.29,-54.08,1
3672,54.96,56.31,-94.17,1
3673,54.97,75.47,-247.07,1
3674,54.99,69.73,-200.29,1
3675,55.0,40.68,-193.72,1
3676,55.01,-4.54,-180.38,1
3677,55.03,-142.78,-109.7,1
3678,55.04,-154.88,-114.45,1
3679,55.05,-134.39,-51.01,1
3680,55.06,-107.78,5.31,1
3681,55.08,-60.04,66.37,1
3682,55.09,-24.96,65.69,1
3683,55.11,14.22,79.33,1
3684,55.12,50.48,114.74,1
3685,55.13,29.24,97.61,1
3686,55.15,46.78,61.22,1
3687,55.16,49.46,94.99,1
3688,55.17,25.33,98.1,1
3689,55.19,37.16,82.85,1
3690,55.2,45.81,96.2,1
3691,55.21,50.0,122.96,1
3692,55.22,23.98,68.11,1
3693,55.24,18.04,51.82,1
3694,55.25,-6.24,-10.3,1
3695,55.27,2.2,-26.67,1
3696,55.28,-0.14,-31.12,1
3697,55.29,-24.7,-66.35,1
3698,55.31,-13.6,-82.59,1
3699,55.32,-20.27,-72.51,1
3700,55.33,-24.5,-89.72,1
3701,55.35,-20.87,-80.23,1
3702,55.36,-48.85,-102.51,1
3703,55.37,-28.18,-93.34,1
3704,55.38,-34.53,-89.27,1
3705,55.4,-39.96,-103.54,1
3706,55.41,-25.31,-85.79,1
3707,55.43,-30.56,-80.7,1
3708,55.44,-43.29,-95.6,1
3709,55.45,-28.76,-86.39,1
3710,55.47,-45.44,-95.05,1
3711,55.48,-50.83,-99.98,1
3712,55.49,-40.9,-60.55,1
3713,55.51,-43.9,-50.87,1
3714,55.52,-31.98,-19.77,1
3715,55.53,-23.4,-52.29,1
3716,55.54,-35.04,-21.74,1
3717,55.56,-6.42,-28.61,1
3718,55.57,-18.24,-16.72,1
3719,55.59,-28.66,-3.71,1
3720,55.6,-12.95,0.27,1
3721,55.61,-3.87,-18.2,1
3722,55.63,0.5,19.91,1
3723,55.64,-32.55,13.67,1
3724,55.65,-1.93,13.14,1
3725,55.67,5.73,24.51,1
3726,55.68,-0.71,33.63,1
3727,55.69,-1.57,45.39,1
3728,55.71,18.54,8.27,1
3729,55.72,13.86,37.12,1
3730,55.73,28.53,56.67,1
3731,55.75,16.34,59.14,1
3732,55.76,15.4,40.18,1
3733,55.77,15.0,76.1,1
3734,55.79,28.89,88.77,1
3735,55.8,22.95,58.19,1
3736,55.81,36.86,38.36,1
3737,55.83,17.33,46.99,1
3738,55.84,69.57,40.79,1
3739,55.85,20.62,45.71,1
3740,55.87,19.55,28.01,1
3741,55.88,5.41,46.69,1
3742,55.89,10.25,40.05,1
3743,55.9,8.86,19.65,1
3744,55.92,12.91,19.34,1
3745,55.93,9.56,37.7,1
3746,55.95,22.05,14.5,1
3747,55.96,12.85,7.6,1
3748,55.97,11.94,12.98,1
3749,55.99,1.08,39.94,1
3750,56.0,2.83,16.19,1
3751,56.01,22.58,34.01,1
3752,56.03,17.59,4.23,1
3753,56.04,15.64,13.9,1
3754,56.05,5.06,-15.73,1
3755,56.06,5.99,9.24,1
3756,56.08,-7.15,17.53,1
3757,56.09,10.36,-5.39,1
3758,56.11,0.56,3.12,1
3759,56.12,22.48,-11.35,1
3760,56.13,14.92,11.05,1
3761,56.15,2.84,-8.78,1
3762,56.16,0.05,11.0,2
3763,56.17,14.71,17.28,2
3764,56.19,0.7,1.44,2
3765,56.2,8.93,-24.12,2
3766,56.21,-13.24,-5.17,2
3767,56.22,-7.12,20.58,2
3768,56.24,-0.06,-34.62,2
3769,56.25,-20.3,-15.67,2
3770,56.27,-10.46,-36.1,2
3771,56.28,89.56,-5.43,2
3772,56.29,116.74,-7.35,2
3773,56.31,138.29,-30.25,2
3774,56.32,107.96,-16.2,2
3775,56.33,85.72,-10.11,2
3776,56.35,39.38,-8.27,2
3777,56.36,2.78,-5.93,2
3778,56.37,-59.13,-8.97,2
3779,56.38,-67.57,-19.48,2
3780,56.4,-93.29,9.62,2
3781,56.41,-110.14,5.13,2
3782,56.43,-93.46,-6.03,2
3783,56.44,-115.37,23.25,2
3784,56.45,-107.97,11.58,2
3785,56.47,-89.35,-17.36,2
3786,56.48,-97.94,15.41,2
3787,56.49,-96.74,-1.04,2
3788,56.51,-81.4,-8.84,2
3789,56.52,-87.06,-27.43,2
3790,56.53,-60.43,-27.99,2
3791,56.54,-53.5,-31.71,2
3792,56.56,-34.77,-28.84,1
3793,56.57,-29.66,-18.81,1
3794,56.59,-21.94,-31.28,1
3795,56.6,-5.36,-16.41,1
3796,56.61,-4.45,-0.11,1
3797,56.63,2.77,-27.29,1
3798,56.64,-6.61,-36.79,1
3799,56.65,15.09,-29.41,1
3800,56.67,18.91,-23.98,1
3801,56.68,41.53,-23.5,1
3802,56.69,52.93,-1.43,1
3803,56.71,41.5,6.62,1
3804,56.72,58.58,18.75,1
3805,56.73,58.22,2.42,1
3806,56.75,65.72,-0.95,1
3807,56.76,55.41,11.12,1
3808,56.77,44.34,19.96,1
3809,56.79,54.78,-1.82,1
3810,56.8,48.1,-0.3,1
3811,56.81,53.23,11.09,1
3812,56.83,42.89,-1.18,1
3813,56.84,54.58,10.21,1
3814,56.85,28.42,27.64,1
3815,56.87,42.5,19.46,1
3816,56.88,36.67,25.21,1
3817,56.89,46.56,16.18,1
3818,56.9,24.96,11.1,1
3819,56.92,51.48,0.47,1
3820,56.93,20.83,-16.98,1
3821,56.95,21.92,-15.56,1
3822,56.96,11.2,1.65,1
3823,56.97,-3.35,3.88,1
3824,56.99,1.22,5.48,1
3825,57.0,5.77,-19.88,1
3826,57.01,5.96,-9.95,1
3827,57.03,-12.48,-6.25,1
3828,57.04,-33.2,9.41,1
3829,57.05,-3.34,14.87,1
3830,57.06,-21.91,28.91,1
3831,57.08,-2.85,16.44,1
3832,57.09,-14.58,12.09,1
3833,57.11,-13.57,11.93,1
3834,57.12,-13.86,12.73,1
3835,57.13,-24.64,20.52,1
3836,57.15,-2.37,-1.15,1
3837,57.16,-23.08,7.71,1
3838,57.17,-27.01,11.87,1
3839,57.19,-8.42,7.43,1
3840,57.2,-18.83,3.78,1
3841,57.21,-9.77,24.25,1
3842,57.22,-12.91,3.27,1
3843,57.24,-15.48,-16.87,1
3844,57.25,-18.79,-8.03,1
3845,57.27,-29.48,10.52,1
3846,57.28,-13.6,-3.0,1
3847,57.29,-14.45,-10.43,1
3848,57.31,-5.74,-0.81,1
3849,57.32,-21.12,1.9,1
3850,57.33,-8.82,11.63,1
3851,57.35,-11.35,1.21,1
3852,57.36,1.3,-11.63,1
3853,57.37,-32.91,-16.77,1
3854,57.38,-23.96,-8.43,1
3855,57.4,-18.66,-1.63,1
3856,57.41,-17.48,1.6,1
3857,57.43,-20.51,-11.95,1
3858,57.44,-13.42,1.32,1
3859,57.45,-4.62,-2.63,1
3860,57.47,-3.72,-0.3,1
3861,57.48,-7.21,-8.64,1
3862,57.49,2.05,-4.87,1
3863,57.51,-10.3,-5.27,1
3864,57.52,0.18,17.16,1
3865,57.53,-7.59,-7.24,1
3866,57.54,-2.99,-19.3,1
3867,57.56,2.51,2.28,1
3868,57.57,3.98,-3.78,1
3869,57.59,14.19,-24.44,1
3870,57.6,10.5,-14.91,1
3871,57.61,11.37,-4.9,1
3872,57.63,14.83,27.32,1
3873,57.64,19.29,3.75,1
3874,57.65,8.72,2.11,1
3875,57.67,7.13,-4.44,1
3876,57.68,4.12,1.43,1
3877,57.69,15.08,-11.3,1
3878,57.71,10.9,7.71,1
3879,57.72,5.97,4.3,1
3880,57.73,10.25,-7.77,1
3881,57.75,-6.97,6.35,1
3882,57.76,4.01,-7.16,1
3883,57.77,10.92,13.87,1
3884,57.79,0.23,0.7,1
3885,57.8,-0.42,-19.6,1
3886,57.81,6.6,2.75,1
3887,57.83,16.98,-8.45,1
3888,57.84,12.92,12.21,1
3889,57.85,8.55,2.68,1
3890,57.87,0.6,10.45,1
3891,57.88,5.81,18.77,1
3892,57.89,-10.54,0.44,1
3893,57.9,-1.8,5.33,1
3894,57.92,-8.01,11.4,1
3895,57.93,-0.0,-12.59,1
3896,57.95,15.19,-12.89,1
3897,57.96,-2.91,4.54,1
3898,57.97,10.31,12.59,1
3899,57.99,-1.08,-2.83,1
3900,58.0,5.57,-12.81,1
3901,58.01,-1.04,0.75,1
3902,58.025000000000006,1.77,-9.88,1
3903,58.04,-10.14,14.32,1
3904,58.05,14.11,6.32,1
3905,58.06,2.73,1.16,1
3906,58.08,-4.96,-1.61,1
3907,58.09,0.04,22.67,1
3908,58.11,-11.62,10.45,1
3909,58.12,-1.27,-8.48,1
3910,58.13,5.27,-17.12,1
3911,58.15,13.31,-2.83,1
3912,58.16,2.55,-10.25,0
3913,58.17,-5.37,0.78,0
3914,58.19,-5.94,-9.62,0
3915,58.2,-14.96,-13.49,0
3916,58.21,-6.5,16.47,0
3917,58.22,15.75,-10.84,0
3918,58.24,-8.25,7.17,0
3919,58.25,-1.8,0.36,0
3920,58.27,36.47,7.2,0
3921,58.28,-46.35,23.19,0
3922,58.29,-78.05,16.53,0
3923,58.31,-120.07,-1.46,0
3924,58.32,-142.68,0.78,0
3925,58.33,-138.31,-29.1,0
3926,58.35,-117.29,-46.26,0
3927,58.36,-90.48,-58.52,0
3928,58.37,-68.8,-37.84,0
3929,58.38,-45.89,-29.3,0
3930,58.4,7.79,2.35,0
3931,58.41,42.48,-4.53,0
3932,58.43,128.1,14.21,0
3933,58.44,182.38,25.93,0
3934,58.45,195.75,19.69,0
3935,58.47,203.42,38.29,0
3936,58.48,186.41,41.04,0
3937,58.49,171.84,46.29,0
3938,58.51,145.13,14.03,0
3939,58.52,117.55,8.92,0
3940,58.53,97.97,23.55,0
3941,58.54,72.93,-3.84,0
3942,58.56,59.08,-12.07,1
3943,58.57,30.63,-36.24,1
3944,58.59,26.49,-36.45,1
3945,58.6,-1.52,-11.55,1
3946,58.61,-13.72,-0.4,1
3947,58.63,-35.5,-10.63,1
3948,58.64,-34.12,-16.51,1
3949,58.65,-56.26,7.88,1
3950,58.66,-55.27,11.72,1
3951,58.68,-59.64,12.96,1
3952,58.69,-56.14,30.54,1
3953,58.71,-65.2,8.96,1
3954,58.72,-61.95,2.02,1
3955,58.73,-69.83,11.13,1
3956,58.75,-64.08,8.31,1
3957,58.76,-67.83,9.96,1
3958,58.77,-67.76,20.98,1
3959,58.79,-70.38,-1.51,1
3960,58.8,-56.03,-3.76,1
3961,58.81,-60.96,5.76,1
3962,58.83,-48.8,6.84,1
3963,58.84,-42.56,-9.96,1
3964,58.85,-69.8,-6.92,1
3965,58.87,-44.5,10.6,1
3966,58.88,-36.82,3.94,1
3967,58.89,-31.17,-12.9,1
3968,58.9,-50.46,1.22,1
3969,58.92,-26.71,-23.45,1
3970,58.93,-19.65,-0.93,1
3971,58.95,-27.67,6.65,1
3972,58.96,-13.64,0.56,1
3973,58.97,-17.45,-6.78,1
3974,58.99,3.71,-12.34,1
3975,59.0,-9.52,-30.11,1
3976,59.01,-17.23,-16.67,1
3977,59.03,7.47,-7.12,1
3978,59.04,6.2,-18.23,1
3979,59.05,6.64,-5.66,1
3980,59.06,18.84,-16.38,1
3981,59.08,16.71,17.14,1
3982,59.09,26.99,-0.23,1
3983,59.11,8.28,8.75,1
3984,59.12,27.33,-4.21,1
3985,59.13,14.85,2.18,1
3986,59.15,35.28,-7.89,1
3987,59.16,13.54,-9.37,1
3988,59.17,24.59,15.39,1
3989,59.19,17.45,-11.32,1
3990,59.2,30.79,6.54,1
3991,59.21,36.58,-6.47,1
3992,59.22,34.59,-5.42,1
3993,59.24,33.32,0.68,1
3994,59.25,18.52,8.09,1
3995,59.27,19.22,-8.1,1
3996,59.28,14.71,23.11,1
3997,59.29,28.21,3.15,1
3998,59.3,23.15,-7.81,1
3999,59.32,35.13,-12.37,1
4000,59.33,23.47,-10.28,1
4001,59.35,20.08,27.1,1
4002,59.36,26.75,13.26,1
4003,59.37,12.77,3.0,1
4004,59.38,17.07,16.0,1
4005,59.4,19.52,7.81,1
4006,59.41,6.49,-3.4,1
4007,59.43,19.86,9.93,1
4008,59.44,10.78,9.8,1
4009,59.45,4.91,-0.93,1
4010,59.47,-10.51,-7.08,1
4011,59.48,-1.02,3.06,1
4012,59.49,-17.68,-6.0,1
4013,59.51,3.75,3.34,1
4014,59.52,12.28,10.11,1
4015,59.53,-5.65,-3.15,1
4016,59.54,-1.91,24.49,1
4017,59.56,-6.38,4.3,1
4018,59.57,-3.33,-10.57,1
4019,59.59,-7.54,-6.27,1
4020,59.6,4.61,0.68,1
4021,59.61,-10.49,4.21,1
4022,59.63,-6.25,-2.42,1
4023,59.64,-5.52,9.17,1
4024,59.65,-16.82,-18.65,1
4025,59.67,-14.76,-3.55,1
4026,59.68,-7.9,2.79,1
4027,59.69,-2.98,-3.61,1
4028,59.71,-7.42,-4.85,1
4029,59.72,-8.08,0.06,1
4030,59.73,-9.13,-18.93,1
4031,59.75,-8.04,16.83,1
4032,59.76,-6.84,-4.66,1
4033,59.77,-9.16,-2.99,1
4034,59.79,-5.46,-7.69,1
4035,59.8,-17.85,8.97,1
4036,59.81,-6.32,-2.45,1
4037,59.83,-6.06,1.22,1
4038,59.84,18.35,-5.18,1
4039,59.85,-9.24,-0.15,1
4040,59.87,0.11,-1.33,1
4041,59.88,-23.14,-26.11,1
4042,59.89,-2.33,-7.55,1
4043,59.9,-16.85,-0.24,1
4044,59.92,-12.73,-8.64,1
4045,59.93,-5.09,26.28,1
4046,59.94,0.86,16.66,1
4047,59.96,-12.02,8.52,1
4048,59.97,4.89,-1.35,1
4049,59.985,12.44,-0.67,1
4050,60.0,-3.14,-8.95,1
4051,60.01,-5.16,-0.9,1
4052,60.03,6.85,2.74,1
4053,60.04,-7.84,1.39,1
4054,60.05,0.69,10.23,1
4055,60.06,0.72,-1.25,1
4056,60.08,-20.41,6.36,1
4057,60.09,-4.97,-11.16,1
4058,60.11,18.22,-17.23,1
4059,60.12,-9.59,23.45,1
4060,60.13,5.2,5.54,1
4061,60.15,22.24,-0.72,1
4062,60.16,-1.53,-8.24,0
4063,60.17,-2.31,-13.54,0
4064,60.19,14.16,-3.26,0
4065,60.2,2.04,-28.62,0
4066,60.21,-0.54,-6.01,0
4067,60.22,17.97,-44.83,0
4068,60.24,2.44,-6.1,0
4069,60.25,-28.37,29.69,0
4070,60.27,-80.43,-23.33,0
4071,60.28,-93.66,7.6,0
4072,60.29,-120.87,-51.33,0
4073,60.31,-103.21,3.91,0
4074,60.32,-88.49,22.18,0
4075,60.33,-34.75,-39.77,0
4076,60.35,-10.51,29.33,0
4077,60.36,41.54,38.72,0
4078,60.37,81.54,69.27,0
4079,60.38,80.49,29.56,0
4080,60.4,94.21,36.27,0
4081,60.41,107.54,16.17,0
4082,60.43,122.05,20.53,0
4083,60.44,109.23,0.08,0
4084,60.45,113.35,31.93,0
4085,60.47,98.1,29.22,0
4086,60.48,83.16,17.92,0
4087,60.49,61.47,-24.2,0
4088,60.51,61.95,-4.9,0
4089,60.52,40.41,2.76,0
4090,60.53,34.72,6.02,0
4091,60.54,30.61,11.26,0
4092,60.56,13.77,2.43,1
4093,60.57,8.38,0.01,1
4094,60.58,1.3,-23.45,1
4095,60.6,-8.55,-10.01,1
4096,60.61,-14.43,-24.92,1
4097,60.62,-31.72,-29.69,1
4098,60.64,-36.6,-17.57,1
4099,60.65,-29.81,-14.12,1
4100,60.67,-57.08,4.14,1
4101,60.68,-50.11,-17.96,1
4102,60.69,-32.19,-5.06,1
4103,60.71,-48.78,-1.98,1
4104,60.72,-40.23,-9.45,1
4105,60.73,-59.71,-18.53,1
4106,60.75,-54.91,-26.94,1
4107,60.76,-48.07,-10.56,1
4108,60.77,-45.31,-14.81,1
4109,60.79,-18.11,-32.96,1
4110,60.8,-62.13,5.45,1
4111,60.81,-39.44,-0.68,1
4112,60.83,-64.44,7.78,1
4113,60.84,-45.87,10.14,1
4114,60.85,-32.01,-5.83,1
4115,60.87,-36.02,4.12,1
4116,60.88,-27.89,2.23,1
4117,60.89,-17.07,13.68,1
4118,60.9,-20.15,-15.07,1
4119,60.92,-10.29,-18.83,1
4120,60.93,-18.16,5.73,1
4121,60.95,-9.69,-12.0,1
4122,60.96,-4.12,-5.67,1
4123,60.97,-10.43,-13.58,1
4124,60.99,1.91,10.96,1
4125,61.0,-0.73,1.54,1
4126,61.01,6.01,-17.33,1
4127,61.03,11.08,22.37,1
4128,61.04,3.99,37.06,1
4129,61.05,9.57,5.82,1
4130,61.06,9.98,3.98,1
4131,61.08,8.08,-7.62,1
4132,61.09,4.83,-24.78,1
4133,61.11,10.1,4.79,1
4134,61.12,18.81,-12.95,1
4135,61.13,5.49,10.09,1
4136,61.15,24.24,20.47,1
4137,61.16,43.96,-4.43,1
4138,61.17,33.75,5.33,1
4139,61.19,39.19,8.27,1
4140,61.2,22.69,21.35,1
4141,61.21,27.43,22.29,1
4142,61.22,30.78,-18.87,1
4143,61.24,15.67,4.1,1
4144,61.25,5.5,-2.32,1
4145,61.26,3.43,7.81,1
4146,61.28,19.07,7.87,1
4147,61.29,7.61,26.07,1
4148,61.31,12.25,13.68,1
4149,61.32,15.71,11.93,1
4150,61.33,16.12,-6.76,1
4151,61.35,11.89,4.1,1
4152,61.36,5.07,-0.1,1
4153,61.37,11.02,-4.27,1
4154,61.38,9.38,-0.76,1
4155,61.4,6.75,-17.67,1
4156,61.41,17.9,-6.09,1
4157,61.43,1.78,-18.74,1
4158,61.44,-4.69,6.52,1
4159,61.45,7.1,-0.09,1
4160,61.47,14.41,-10.22,1
4161,61.48,-8.78,1.27,1
4162,61.49,-0.49,12.96,1
4163,61.51,-7.51,19.37,1
4164,61.52,-6.03,-14.85,1
4165,61.53,5.65,21.85,1
4166,61.54,-19.49,-4.88,1
4167,61.56,-3.21,-2.56,1
4168,61.57,-12.29,10.41,1
4169,61.59,-6.07,9.78,1
4170,61.6,-1.23,4.68,1
4171,61.61,10.22,-4.24,1
4172,61.63,-14.88,3.26,1
4173,61.64,-3.03,11.25,1
4174,61.65,4.26,9.21,1
4175,61.67,-11.29,-9.3,1
4176,61.68,3.62,0.79,1
4177,61.69,-4.49,-2.58,1
4178,61.71,-0.82,14.77,1
4179,61.72,-2.63,9.74,1
4180,61.73,-6.99,-2.2,1
4181,61.75,-7.24,-5.46,1
4182,61.76,-2.9,-22.02,1
4183,61.77,-2.95,-6.02,1
4184,61.79,-4.7,16.05,1
4185,61.8,-1.93,3.8,1
4186,61.81,-10.7,-0.48,1
4187,61.83,5.02,-25.76,1
4188,61.84,4.88,-14.02,1
4189,61.85,8.06,-4.37,1
4190,61.86,-1.54,15.88,1
4191,61.88,-10.07,5.39,1
4192,61.89,-5.54,-1.89,1
4193,61.9,-6.9,-4.27,1
4194,61.92,-28.45,-7.03,1
4195,61.93,3.15,-15.38,1
4196,61.95,-17.98,-9.77,1
4197,61.96,11.49,-15.56,1
4198,61.97,-4.08,-0.71,1
4199,61.99,6.0,-3.54,1
4200,62.0,9.25,-10.47,1
4201,62.01,-11.57,-32.46,1
4202,62.03,-0.91,-21.79,1
4203,62.04,-0.97,1.82,1
4204,62.05,25.37,3.32,1
4205,62.06,0.95,-10.41,1
4206,62.08,-10.38,-6.56,1
4207,62.09,0.61,-11.0,1
4208,62.11,-5.33,1.2,1
4209,62.12,-7.32,8.22,1
4210,62.13,-0.67,1.6,1
4211,62.15,-1.49,7.89,1
4212,62.16,-2.43,0.82,2
4213,62.17,9.6,3.92,2
4214,62.19,-3.27,7.11,2
4215,62.2,-3.43,-1.02,2
4216,62.21,18.68,-14.79,2
4217,62.22,4.39,-3.59,2
4218,62.24,10.04,0.27,2
4219,62.25,-35.9,12.97,2
4220,62.27,61.55,40.6,2
4221,62.28,115.32,14.69,2
4222,62.29,142.92,18.26,2
4223,62.31,128.14,-21.55,2
4224,62.32,146.09,-34.35,2
4225,62.33,109.19,-19.16,2
4226,62.35,81.81,-12.15,2
4227,62.36,40.2,9.55,2
4228,62.37,0.14,10.5,2
4229,62.38,-33.69,32.43,2
4230,62.4,-86.88,30.56,2
4231,62.41,-148.01,16.55,2
4232,62.43,-194.09,23.58,2
4233,62.44,-194.47,22.16,2
4234,62.45,-217.32,33.22,2
4235,62.47,-198.05,16.59,2
4236,62.48,-178.37,5.46,2
4237,62.49,-149.86,2.95,2
4238,62.5,-113.61,10.36,2
4239,62.52,-92.91,-5.95,2
4240,62.53,-58.19,-6.55,2
4241,62.54,-37.33,-0.38,2
4242,62.56,-16.18,1.52,1
4243,62.57,-5.36,-5.69,1
4244,62.585,5.7,-16.12,1
4245,62.6,-0.39,-4.48,1
4246,62.61,22.28,-12.84,1
4247,62.63,36.25,-15.54,1
4248,62.64,55.58,-2.05,1
4249,62.65,58.66,9.64,1
4250,62.67,63.04,18.06,1
4251,62.68,73.68,-3.49,1
4252,62.69,76.35,-27.4,1
4253,62.71,85.78,-13.79,1
4254,62.72,68.93,10.67,1
4255,62.73,74.2,-16.54,1
4256,62.75,100.39,-14.38,1
4257,62.76,74.56,-3.27,1
4258,62.77,64.27,0.66,1
4259,62.79,68.96,-15.57,1
4260,62.8,57.73,-31.11,1
4261,62.81,59.96,-9.77,1
4262,62.83,72.56,-12.74,1
4263,62.84,57.44,-9.23,1
4264,62.85,54.24,-3.19,1
4265,62.87,43.15,2.79,1
4266,62.88,24.04,-3.89,1
4267,62.89,23.31,1.17,1
4268,62.9,25.06,6.94,1
4269,62.92,31.95,-8.26,1
4270,62.93,20.47,-4.84,1
4271,62.95,16.99,-2.76,1
4272,62.96,16.59,6.07,1
4273,62.97,1.16,-6.3,1
4274,62.99,10.3,3.86,1
4275,63.0,-6.22,9.05,1
4276,63.01,-2.91,21.09,1
4277,63.03,-11.98,1.08,1
4278,63.04,-33.0,-1.99,1
4279,63.05,-17.15,-0.82,1
4280,63.06,-20.64,-2.0,1
4281,63.08,-9.39,3.47,1
4282,63.09,-1.79,2.47,1
4283,63.11,-40.68,-3.11,1
4284,63.12,-20.12,18.56,1
4285,63.13,-35.74,15.1,1
4286,63.14,-46.87,-4.22,1
4287,63.16,-32.03,1.4,1
4288,63.17,-43.6,2.37,1
4289,63.18,-16.9,-14.1,1
4290,63.2,-28.98,3.48,1
4291,63.21,-17.83,11.22,1
4292,63.22,-23.92,8.06,1
4293,63.24,-19.26,16.31,1
4294,63.25,-16.65,6.01,1
4295,63.27,-19.84,-8.16,1
4296,63.28,-19.33,-12.63,1
4297,63.29,-26.29,-27.93,1
4298,63.31,-30.21,3.78,1
4299,63.32,-10.79,-9.04,1
4300,63.33,-28.27,0.87,1
4301,63.35,-20.78,8.75,1
4302,63.36,-25.48,1.85,1
4303,63.37,-27.13,14.51,1
4304,63.38,-23.61,-6.65,1
4305,63.4,-16.46,4.12,1
4306,63.41,-5.89,-5.11,1
4307,63.43,-4.5,7.68,1
4308,63.44,2.11,-3.42,1
4309,63.45,-13.56,2.47,1
4310,63.47,-3.95,5.37,1
4311,63.48,-1.81,6.37,1
4312,63.49,5.54,8.54,1
4313,63.51,-0.61,-11.33,1
4314,63.52,0.96,12.93,1
4315,63.53,3.02,0.07,1
4316,63.54,15.13,0.56,1
4317,63.56,3.95,-13.57,1
4318,63.57,4.32,-14.84,1
4319,63.59,11.97,2.75,1
4320,63.6,8.8,7.96,1
4321,63.61,4.88,-11.63,1
4322,63.63,9.65,-4.52,1
4323,63.64,8.75,13.9,1
4324,63.65,29.89,1.92,1
4325,63.67,9.72,-1.38,1
4326,63.68,-1.7,23.12,1
4327,63.69,8.18,21.86,1
4328,63.71,6.79,-2.56,1
4329,63.72,13.27,5.27,1
4330,63.73,0.24,10.19,1
4331,63.75,2.1,-4.29,1
4332,63.76,5.77,3.43,1
4333,63.77,18.17,-2.65,1
4334,63.78,11.54,20.73,1
4335,63.8,2.74,-8.96,1
4336,63.81,-2.48,1.56,1
4337,63.82,1.45,12.44,1
4338,63.84,19.8,-8.94,1
4339,63.85,11.07,-27.43,1
4340,63.86,13.63,13.29,1
4341,63.88,-4.2,5.75,1
4342,63.89,6.25,7.28,1
4343,63.9,8.18,-18.52,1
4344,63.92,-2.8,-25.41,1
4345,63.93,15.3,-6.91,1
4346,63.95,0.13,-17.08,1
4347,63.96,2.22,-10.18,1
4348,63.97,-5.0,1.65,1
4349,63.99,-13.18,-13.07,1
4350,64.0,4.26,3.39,1
4351,64.01,5.03,-8.1,1
4352,64.02,-8.95,-2.5,1
4353,64.04,3.31,-1.34,1
4354,64.05,0.69,-0.76,1
4355,64.06,-5.18,2.42,1
4356,64.08,-3.26,-12.08,1
4357,64.09,-1.52,-0.61,1
4358,64.11,-9.26,30.6,1
4359,64.12,9.93,92.44,1
4360,64.13,-21.33,65.09,1
4361,64.14,3.13,40.57,1
4362,64.16,11.5,-31.14,1
4363,64.17,19.39,165.52,1
4364,64.18,-13.37,329.11,1
4365,64.2,40.34,-5.81,1
4366,64.21,166.86,17.35,1
4367,64.22,200.59,258.25,1
4368,64.24,180.03,78.34,1
4369,64.25,56.2,17.8,1
4370,64.26,92.39,-126.79,1
4371,64.28,-27.33,34.86,1
4372,64.29,134.54,-173.83,1
4373,64.3,-77.25,-159.75,1
4374,64.32,-91.96,-443.83,1
4375,64.33,-156.45,7.55,1
4376,64.34,19.02,-353.04,1
4377,64.36,-48.34,160.12,1
4378,64.37,-356.21,-233.94,1
4379,64.38,-148.84,-138.77,1
4380,64.4,-339.42,-276.21,1
4381,64.41,-218.47,269.32,1
4382,64.42,-131.03,-98.31,1
4383,64.44,24.27,-214.01,1
4384,64.45,-46.34,62.81,1
4385,64.46,30.15,-42.59,1
4386,64.48,-137.6,-225.79,1
4387,64.49,59.62,238.62,1
4388,64.5,-115.0,-180.57,1
4389,64.52,-112.52,-127.72,1
4390,64.53,68.57,220.47,1
4391,64.54,22.24,-214.31,1
4392,64.56,144.81,-84.6,1
4393,64.57,18.48,-187.22,1
4394,64.58,141.03,382.14,1
4395,64.6,146.68,-171.63,1
4396,64.61,-39.99,-78.91,1
4397,64.62,60.55,-161.58,1
4398,64.64,67.12,210.97,1
4399,64.65,87.03,110.87,1
4400,64.66,6.52,75.37,1
4401,64.68,31.51,-3.34,1
4402,64.69,-77.56,244.09,1
4403,64.7,186.46,321.88,1
4404,64.72,120.92,167.65,1
4405,64.73,131.04,-325.6,1
4406,64.75,39.29,171.91,1
4407,64.76,-94.86,494.44,1
4408,64.77,2.37,120.22,1
4409,64.79,-27.63,-30.54,1
4410,64.8,89.69,77.21,1
4411,64.81,46.54,-103.58,1
4412,64.82,79.25,-303.64,1
4413,64.84,-46.12,183.23,1
4414,64.85,-23.05,515.33,1
4415,64.86,-5.55,208.32,1
4416,64.88,-14.32,-42.02,1
4417,64.89,77.27,-75.87,1
4418,64.9,-190.96,-255.63,1
4419,64.92,-96.06,188.48,1
4420,64.93,151.66,139.39,1
4421,64.94,4.78,255.65,1
4422,64.96,166.02,-192.27,1
4423,64.97,-176.95,-88.43,1
4424,64.98,38.3,-28.07,1
4425,65.0,40.67,-33.43,1
4426,65.01,129.37,-290.69,1
4427,65.02,-33.86,-189.66,1
4428,65.04,23.68,15.22,1
4429,65.05,-37.82,-99.02,1
4430,65.06,1.15,-70.9,1
4431,65.08,-21.82,-175.45,1
4432,65.09,-117.45,-101.47,1
4433,65.1,-176.91,-96.2,1
4434,65.12,-164.3,-81.71,1
4435,65.13,-98.95,21.07,1
4436,65.14,-60.27,45.93,1
4437,65.16,19.51,32.11,1
4438,65.17,70.01,133.7,1
4439,65.18,80.44,148.28,1
4440,65.2,97.75,144.48,1
4441,65.21,93.2,156.51,1
4442,65.22,102.14,169.68,1
4443,65.24,82.54,148.66,1
4444,65.25,99.99,119.94,1
4445,65.26,61.28,83.14,1
4446,65.28,83.51,91.81,1
4447,65.29,61.43,43.9,1
4448,65.3,62.5,32.01,1
4449,65.32,28.19,26.9,1
4450,65.33,40.53,31.5,1
4451,65.34,8.62,18.82,1
4452,65.36,-4.93,-27.29,1
4453,65.37,-38.27,-7.32,1
4454,65.38,-23.67,-63.47,1
4455,65.4,-30.77,-74.88,1
4456,65.41,-46.4,-104.2,1
4457,65.43,-36.01,-101.84,1
4458,65.44,-51.99,-123.25,1
4459,65.45,-34.03,-126.27,1
4460,65.46,-22.94,-121.49,1
4461,65.48,-26.65,-107.07,1
4462,65.49,-45.85,-111.81,1
4463,65.5,-55.86,-95.51,1
4464,65.52,-60.86,-92.99,1
4465,65.53,-53.14,-74.84,1
4466,65.54,-58.04,-55.45,1
4467,65.56,-64.03,-74.89,1
4468,65.57,-42.52,-94.02,1
4469,65.58,-62.72,-65.07,1
4470,65.6,-65.14,-77.99,1
4471,65.61,-32.94,-56.79,1
4472,65.62,-49.64,-53.26,1
4473,65.64,-56.8,-52.14,1
4474,65.65,-28.71,-34.31,1
4475,65.66,-24.5,-29.69,1
4476,65.68,-13.27,-30.8,1
4477,65.69,-17.21,-13.18,1
4478,65.7,-4.45,-14.88,1
4479,65.72,-21.45,-6.12,1
4480,65.73,-3.13,13.97,1
4481,65.74,8.89,17.89,1
4482,65.76,8.64,34.23,1
4483,65.77,0.26,22.44,1
4484,65.78,13.48,33.86,1
4485,65.8,17.97,53.98,1
4486,65.81,27.48,42.3,1
4487,65.82,-0.12,61.66,1
4488,65.84,7.87,63.35,1
4489,65.85,14.7,45.05,1
4490,65.86,18.6,48.21,1
4491,65.88,31.12,41.56,1
4492,65.89,17.15,52.85,1
4493,65.9,36.88,59.82,1
4494,65.92,26.85,52.72,1
4495,65.93,17.16,33.4,1
4496,65.94,13.72,23.6,1
4497,65.96,13.25,37.6,1
4498,65.97,18.06,18.18,1
4499,65.98,10.66,45.54,1
4500,66.0,47.47,31.64,1
4501,66.01,35.57,51.99,1
4502,66.02,17.35,23.35,1
4503,66.04,3.06,50.33,1
4504,66.05,15.43,39.31,1
4505,66.06,12.92,36.52,1
4506,66.08,9.51,6.71,1
4507,66.09,16.45,4.21,1
4508,66.11,31.4,14.71,1
4509,66.12,8.62,20.23,1
4510,66.13,12.09,-7.33,1
4511,66.14,7.32,20.58,1
4512,66.16,12.19,15.16,2
4513,66.17,32.28,-16.54,2
4514,66.18,20.56,-12.8,2
4515,66.2,15.8,-6.44,2
4516,66.21,4.93,4.93,2
4517,66.22,14.63,-20.25,2
4518,66.24,3.59,-33.61,2
4519,66.25,2.08,-48.49,2
4520,66.26,13.0,-45.53,2
4521,66.28,5.07,-52.93,2
4522,66.29,101.46,-17.87,2
4523,66.3,107.83,-23.13,2
4524,66.32,128.45,-12.08,2
4525,66.33,100.3,-8.17,2
4526,66.34,56.66,21.31,2
4527,66.36,24.78,33.96,2
4528,66.37,-16.38,23.08,2
4529,66.38,-54.9,10.71,2
4530,66.4,-83.87,37.96,2
4531,66.41,-93.81,19.06,2
4532,66.42,-102.21,33.66,2
4533,66.44,-119.09,13.25,2
4534,66.45,-111.21,19.74,2
4535,66.46,-120.14,37.14,2
4536,66.48,-107.9,1.88,2
4537,66.49,-93.13,9.4,2
4538,66.5,-84.99,19.71,2
4539,66.52,-100.21,-25.49,2
4540,66.53,-69.48,-11.88,2
4541,66.54,-78.38,-16.01,2
4542,66.56,-42.13,8.25,1
4543,66.57,-37.11,-19.55,1
4544,66.58,-15.86,-30.31,1
4545,66.6,-23.39,-0.37,1
4546,66.61,-8.19,2.26,1
4547,66.62,-8.84,-1.8,1
4548,66.64,10.92,-33.65,1
4549,66.65,29.08,-28.67,1
4550,66.66,29.47,-13.96,1
4551,66.68,45.79,-23.92,1
4552,66.69,80.33,-1.78,1
4553,66.7,62.84,-0.95,1
4554,66.72,74.87,-9.55,1
4555,66.73,51.91,-36.14,1
4556,66.75,49.85,-28.49,1
4557,66.76,43.86,-31.08,1
4558,66.77,33.9,-39.2,1
4559,66.79,48.25,-42.9,1
4560,66.8,28.31,-35.32,1
4561,66.81,36.95,-29.57,1
4562,66.82,18.51,-16.93,1
4563,66.84,32.29,-36.51,1
4564,66.85,20.13,-18.33,1
4565,66.86,38.68,0.34,1
4566,66.88,18.0,-36.03,1
4567,66.89,28.94,-2.71,1
4568,66.9,27.19,-6.47,1
4569,66.92,31.45,24.4,1
4570,66.93,13.94,11.75,1
4571,66.94,29.35,10.43,1
4572,66.96,11.79,8.06,1
4573,66.97,9.64,7.94,1
4574,66.98,8.09,-5.9,1
4575,67.0,11.16,11.46,1
4576,67.01,6.2,16.87,1
4577,67.02,6.19,16.05,1
4578,67.04,4.94,-3.27,1
4579,67.05,7.56,12.97,1
4580,67.06,-0.92,43.14,1
4581,67.08,-8.24,22.13,1
4582,67.09,9.57,20.38,1
4583,67.1,-0.14,24.86,1
4584,67.12,-10.44,12.1,1
4585,67.13,-12.37,0.51,1
4586,67.14,-5.24,5.93,1
4587,67.16,-28.1,39.52,1
4588,67.17,-10.64,37.81,1
4589,67.18,-27.05,11.62,1
4590,67.2,10.31,14.06,1
4591,67.21,-12.63,29.23,1
4592,67.22,-17.47,11.16,1
4593,67.24,-18.76,-9.17,1
4594,67.25,-26.21,1.62,1
4595,67.26,-18.45,19.73,1
4596,67.28,-31.7,-9.12,1
4597,67.29,-24.66,-12.12,1
4598,67.3,-14.79,9.16,1
4599,67.32,-25.85,7.88,1
4600,67.33,-18.02,0.09,1
4601,67.34,-7.0,-0.6,1
4602,67.36,-14.65,18.17,1
4603,67.37,-17.97,-14.74,1
4604,67.38,-12.07,0.36,1
4605,67.4,-13.28,-2.05,1
4606,67.41,-23.11,17.76,1
4607,67.43,-8.29,10.57,1
4608,67.44,-25.13,-3.2,1
4609,67.45,2.28,4.33,1
4610,67.46,-20.95,0.93,1
4611,67.48,3.49,-2.49,1
4612,67.49,-0.15,-14.83,1
4613,67.5,-0.95,-6.14,1
4614,67.52,-3.55,-10.43,1
4615,67.53,-7.09,-15.11,1
4616,67.54,-7.6,-10.86,1
4617,67.56,13.8,11.0,1
4618,67.57,19.62,19.71,1
4619,67.58,-15.43,-3.23,1
4620,67.6,2.61,-21.39,1
4621,67.61,3.44,-5.08,1
4622,67.62,-2.28,-16.81,1
4623,67.64,15.92,-6.64,1
4624,67.65,11.7,4.22,1
4625,67.66,17.09,-3.5,1
4626,67.68,3.65,-4.8,1
4627,67.69,-13.21,-9.07,1
4628,67.7,-1.86,-14.25,1
4629,67.72,3.94,-1.21,1
4630,67.73,1.82,-19.32,1
4631,67.74,1.41,-31.17,1
4632,67.76,14.63,-0.15,1
4633,67.77,24.38,-2.84,1
4634,67.785,8.65,-0.67,1
4635,67.8,4.44,-4.3,1
4636,67.81,16.78,-11.13,1
4637,67.82,2.57,-4.39,1
4638,67.84,3.27,19.09,1
4639,67.85,6.28,-12.57,1
4640,67.86,16.02,8.64,1
4641,67.88,2.79,13.71,1
4642,67.89,4.67,13.22,1
4643,67.9,5.37,-5.08,1
4644,67.92,-1.7,-4.76,1
4645,67.93,-1.6,-3.77,1
4646,67.94,5.46,6.88,1
4647,67.96,-12.5,-7.29,1
4648,67.97,4.04,2.54,1
4649,67.98,-4.12,-12.79,1
4650,68.0,-6.59,10.62,1
4651,68.01,17.08,-12.12,1
4652,68.02,-3.98,11.37,1
4653,68.04,3.98,4.38,1
4654,68.05,19.99,-21.11,1
4655,68.06,-1.86,6.4,1
4656,68.08,2.24,3.86,1
4657,68.09,-9.16,-1.68,1
4658,68.11,-8.94,-5.05,1
4659,68.12,-3.12,-3.2,1
4660,68.13,0.97,6.5,1
4661,68.14,-7.33,0.92,1
4662,68.16,3.64,-13.24,0
4663,68.17,24.56,10.79,0
4664,68.18,-6.02,21.88,0
4665,68.2,-16.32,8.05,0
4666,68.21,7.28,-5.63,0
4667,68.22,-9.31,2.21,0
4668,68.24,14.19,7.18,0
4669,68.25,-5.49,19.77,0
4670,68.26,1.46,-8.01,0
4671,68.28,8.08,25.67,0
4672,68.29,17.06,12.07,0
4673,68.3,15.26,14.87,0
4674,68.32,-18.71,26.76,0
4675,68.33,-78.67,28.79,0
4676,68.34,-109.11,5.62,0
4677,68.36,-133.13,-7.43,0
4678,68.37,-139.04,-34.53,0
4679,68.38,-126.79,-13.34,0
4680,68.4,-105.19,-29.34,0
4681,68.41,-78.43,-49.77,0
4682,68.42,-49.83,-52.32,0
4683,68.44,-17.59,-8.65,0
4684,68.45,36.34,-4.1,0
4685,68.46,87.37,17.27,0
4686,68.48,162.61,22.92,0
4687,68.49,177.11,6.77,0
4688,68.5,187.56,17.29,0
4689,68.52,186.77,6.33,0
4690,68.53,172.64,5.11,0
4691,68.54,160.06,0.72,0
4692,68.56,129.83,-3.82,1
4693,68.57,114.57,-1.56,1
4694,68.58,91.41,-1.29,1
4695,68.6,75.28,-0.07,1
4696,68.61,57.67,-16.02,1
4697,68.62,20.94,-17.1,1
4698,68.64,9.38,-6.59,1
4699,68.65,-15.18,-0.3,1
4700,68.66,-24.34,6.67,1
4701,68.68,-43.42,-1.27,1
4702,68.69,-50.98,0.03,1
4703,68.7,-50.04,20.62,1
4704,68.72,-56.46,12.12,1
4705,68.73,-65.31,14.8,1
4706,68.75,-58.43,10.28,1
4707,68.76,-75.24,-0.24,1
4708,68.77,-71.39,21.69,1
4709,68.79,-66.26,0.97,1
4710,68.8,-55.21,-11.43,1
4711,68.81,-73.65,-2.93,1
4712,68.82,-73.64,17.21,1
4713,68.84,-63.2,40.71,1
4714,68.85,-83.0,8.79,1
4715,68.86,-70.63,14.11,1
4716,68.88,-71.25,-7.46,1
4717,68.89,-46.06,4.84,1
4718,68.9,-39.72,5.48,1
4719,68.92,-37.7,-34.01,1
4720,68.93,-33.49,4.54,1
4721,68.94,-16.07,0.56,1
4722,68.96,-12.01,-17.96,1
4723,68.97,-11.6,-11.1,1
4724,68.98,-12.95,-6.43,1
4725,69.0,-19.28,-14.72,1
4726,69.01,-0.62,-12.29,1
4727,69.02,-3.72,-14.31,1
4728,69.04,2.02,-1.88,1
4729,69.05,-6.86,-0.12,1
4730,69.06,-2.42,-5.91,1
4731,69.08,3.32,-8.93,1
4732,69.09,-2.27,-19.55,1
4733,69.11,2.14,-1.23,1
4734,69.12,10.7,10.68,1
4735,69.13,45.44,-16.36,1
4736,69.14,29.83,5.93,1
4737,69.16,28.27,12.48,1
4738,69.17,11.33,8.54,1
4739,69.18,25.71,-0.71,1
4740,69.2,24.42,9.98,1
4741,69.21,13.27,-5.67,1
4742,69.22,28.82,2.12,1
4743,69.24,15.77,0.07,1
4744,69.25,17.74,-6.74,1
4745,69.26,33.48,-5.47,1
4746,69.28,23.62,7.04,1
4747,69.29,38.2,24.07,1
4748,69.3,17.95,12.82,1
4749,69.32,20.91,15.77,1
4750,69.33,21.86,-3.02,1
4751,69.34,10.29,-16.44,1
4752,69.36,12.89,2.5,1
4753,69.37,31.94,1.14,1
4754,69.38,11.22,-6.78,1
4755,69.4,19.69,-5.43,1
4756,69.41,10.9,2.72,1
4757,69.43,13.31,-14.01,1
4758,69.44,15.42,-5.02,1
4759,69.45,15.99,5.23,1
4760,69.46,9.4,7.62,1
4761,69.48,9.85,-15.26,1
4762,69.49,-5.37,-5.67,1
4763,69.5,-0.04,-7.98,1
4764,69.52,-2.94,-4.98,1
4765,69.53,10.49,-16.9,1
4766,69.54,6.63,0.36,1
4767,69.56,5.1,10.81,1
4768,69.57,13.82,21.46,1
4769,69.58,0.17,8.74,1
4770,69.6,-19.29,-0.59,1
4771,69.61,-3.25,1.76,1
4772,69.62,-9.39,-0.26,1
4773,69.64,-4.15,-6.47,1
4774,69.65,-6.66,11.1,1
4775,69.66,-5.46,18.59,1
4776,69.68,-7.67,0.79,1
4777,69.69,-5.99,6.1,1
4778,69.7,-20.41,9.77,1
4779,69.72,-18.13,16.04,1
4780,69.73,1.64,-11.44,1
4781,69.75,-8.46,-22.92,1
4782,69.76,4.49,4.76,1
4783,69.77,-4.66,-3.96,1
4784,69.79,-5.67,-9.13,1
4785,69.8,-23.68,-11.41,1
4786,69.81,-1.41,7.09,1
4787,69.82,-2.72,7.45,1
4788,69.84,-10.98,-9.78,1
4789,69.85,-10.52,-1.41,1
4790,69.86,-2.54,-6.72,1
4791,69.88,-6.98,5.26,1
4792,69.89,-13.24,-0.89,1
4793,69.9,5.2,-5.4,1
4794,69.92,-0.61,-3.6,1
4795,69.93,2.47,26.52,1
4796,69.94,-12.78,1.92,1
4797,69.96,-6.3,-6.83,1
4798,69.97,-4.52,2.43,1
4799,69.98,-2.78,-3.8,1
4800,70.0,-16.02,-0.11,1
4801,70.01,1.98,-3.15,1
4802,70.02,2.22,4.7,1
4803,70.04,-12.52,19.3,1
4804,70.05,-2.43,7.8,1
4805,70.06,9.92,2.22,1
4806,70.08,-5.35,-4.49,1
4807,70.09,-17.59,4.94,1
4808,70.11,-0.72,-3.07,1
4809,70.12,7.98,-0.2,1
4810,70.13,0.46,-13.2,1
4811,70.14,1.96,-2.37,1
4812,70.16,15.42,-16.24,0
4813,70.17,-4.45,-11.78,0
4814,70.18,-1.93,0.47,0
4815,70.2,7.46,-18.0,0
4816,70.21,12.17,15.44,0
4817,70.22,26.89,2.46,0
4818,70.24,8.09,11.34,0
4819,70.25,8.23,-8.51,0
4820,70.26,5.67,1.78,0
4821,70.28,-5.01,-57.89,0
4822,70.29,6.67,-5.47,0
4823,70.3,-53.4,-28.06,0
4824,70.32,-93.13,-1.63,0
4825,70.33,-126.25,-13.84,0
4826,70.34,-139.92,5.74,0
4827,70.36,-107.51,2.32,0
