,Timestamp,Data1,Data2,Label
0,6.0,15.41,-13.32,1
1,6.01,12.02,-7.24,1
2,6.03,6.99,2.97,1
3,6.04,1.8,3.4,1
4,6.05,2.26,-1.1,1
5,6.07,11.7,2.41,1
6,6.08,13.58,8.57,1
7,6.09,-0.96,1.77,1
8,6.11,-8.93,-15.48,1
9,6.12,1.04,-20.96,1
10,6.13,10.96,-9.57,1
11,6.15,8.49,-20.65,1
12,6.16,-1.85,-51.0,1
13,6.17,-3.37,-13.36,1
14,6.19,9.28,65.14,1
15,6.2,12.19,56.63,1
16,6.21,-8.67,21.8,1
17,6.23,-36.78,75.07,1
18,6.24,-39.97,118.58,1
19,6.25,-4.58,112.85,1
20,6.27,11.14,175.61,1
21,6.28,-23.15,214.57,1
22,6.29,-23.15,122.99,1
23,6.31,26.26,96.38,1
24,6.32,28.98,171.55,1
25,6.33,-8.39,137.73,1
26,6.35,-1.33,56.78,1
27,6.36,26.18,73.14,1
28,6.37,11.26,57.0,1
29,6.39,-14.22,-47.43,1
30,6.4,-16.98,-96.58,1
31,6.41,-23.35,-74.11,1
32,6.43,-26.01,-82.8,1
33,6.44,4.83,-130.45,1
34,6.45,31.77,-162.69,1
35,6.47,11.59,-168.73,1
36,6.48,-18.47,-144.12,1
37,6.49,-13.69,-73.4,1
38,6.51,7.49,9.72,1
39,6.52,6.82,35.72,1
40,6.53,-4.68,-43.28,1
41,6.55,15.83,-168.92,1
42,6.56,44.97,-170.3,1
43,6.57,30.95,-59.18,1
44,6.59,0.55,-41.65,1
45,6.6,-10.63,-79.08,1
46,6.61,-15.95,-22.37,1
47,6.63,-14.11,20.03,1
48,6.64,-0.55,-37.68,1
49,6.65,4.21,-81.06,1
50,6.67,-2.67,-63.52,1
51,6.68,2.69,-43.85,1
52,6.69,22.69,-44.96,1
53,6.71,25.92,-53.21,1
54,6.72,4.69,-63.83,1
55,6.73,-1.71,-82.47,1
56,6.75,11.31,-98.62,1
57,6.76,1.25,-73.58,1
58,6.77,-13.97,7.67,1
59,6.79,8.11,65.98,1
60,6.8,28.6,34.23,1
61,6.81,8.84,-12.52,1
62,6.82,-12.6,-5.9,1
63,6.84,-10.56,-4.66,1
64,6.85,-10.71,-48.29,1
65,6.86,-13.25,-65.98,1
66,6.88,-5.37,-14.69,1
67,6.89,-6.51,23.11,1
68,6.91,-12.0,-17.85,1
69,6.92,4.06,-82.77,1
70,6.93,21.95,-90.12,1
71,6.95,10.71,-19.86,1
72,6.96,-12.61,40.74,1
73,6.97,-13.63,-4.46,1
74,6.99,-1.28,-67.24,1
75,7.0,-3.81,-34.04,1
76,7.01,-11.59,13.36,1
77,7.03,-13.87,-4.53,1
78,7.04,-21.87,-42.71,1
79,7.05,-26.77,-58.95,1
80,7.07,-14.28,-38.37,1
81,7.08,1.47,5.08,1
82,7.09,2.3,20.53,1
83,7.11,-4.15,-10.31,1
84,7.12,0.76,-41.25,1
85,7.13,6.95,-20.82,1
86,7.15,-3.87,13.14,1
87,7.16,-5.91,-4.53,1
88,7.17,19.46,-25.45,1
89,7.19,28.78,-8.07,1
90,7.2,-0.44,3.36,1
91,7.21,-24.31,15.71,1
92,7.23,-17.85,37.78,1
93,7.24,-10.28,37.57,1
94,7.25,-15.61,21.41,1
95,7.27,-16.12,-10.18,1
96,7.28,-11.59,-38.06,1
97,7.29,-9.55,13.92,1
98,7.31,-0.93,92.87,1
99,7.32,10.77,63.37,1
100,7.33,9.43,1.44,1
101,7.35,6.4,30.81,1
102,7.36,13.64,69.61,1
103,7.37,7.7,52.46,1
104,7.39,-12.02,36.94,1
105,7.4,-15.54,35.87,1
106,7.41,-9.87,25.51,1
107,7.43,-18.82,25.17,1
108,7.44,-22.62,52.93,1
109,7.45,3.11,86.37,1
110,7.47,21.36,92.79,1
111,7.48,1.69,63.66,1
112,7.49,-8.37,42.88,1
113,7.51,15.77,74.75,1
114,7.52,21.45,103.86,1
115,7.53,-2.89,71.95,1
116,7.55,-1.04,31.91,1
117,7.56,26.12,41.56,1
118,7.57,22.97,68.66,1
119,7.59,-3.59,51.08,1
120,7.6,-10.08,7.77,1
121,7.61,0.27,15.59,1
122,7.63,5.74,67.39,1
123,7.64,6.13,80.92,1
124,7.65,8.24,57.86,1
125,7.67,16.06,62.6,1
126,7.68,23.35,64.99,1
127,7.69,14.73,9.6,1
128,7.71,-5.81,-31.61,1
129,7.72,-15.74,12.5,1
130,7.73,-6.28,74.42,1
131,7.75,7.81,88.07,1
132,7.76,8.52,68.45,1
133,7.77,0.5,22.66,1
134,7.79,-0.02,-24.17,1
135,7.8,3.78,-8.96,1
136,7.81,-6.06,41.89,1
137,7.83,-19.72,39.61,1
138,7.84,-6.87,-11.01,1
139,7.85,19.92,-32.23,1
140,7.87,17.81,7.12,1
141,7.88,-11.25,50.3,1
142,7.89,-23.38,28.95,1
143,7.91,-3.0,-23.61,1
144,7.92,18.42,-12.17,1
145,7.93,13.58,56.75,1
146,7.95,-1.91,71.05,1
147,7.96,1.17,15.13,1
148,7.97,12.68,-18.5,1
149,7.99,5.2,-31.23,1
150,8.0,-12.25,-41.86,1
151,8.01,-21.24,11.29,1
152,8.03,-25.98,68.38,1
153,8.04,-17.81,4.82,1
154,8.05,8.27,-93.11,1
155,8.07,17.0,-59.82,1
156,8.08,-3.66,39.09,1
157,8.09,-17.62,37.4,1
158,8.1,-12.93,-31.89,1
159,8.12,-9.33,-48.01,1
160,8.13,-6.02,-26.71,1
161,8.15,8.15,-23.76,1
162,8.16,20.33,-11.8,1
163,8.17,15.48,19.85,1
164,8.19,3.62,19.77,1
165,8.2,-2.9,-44.37,1
166,8.21,-7.7,-145.87,1
167,8.23,-12.33,-211.22,1
168,8.24,-10.83,-207.61,1
169,8.25,-3.41,-180.93,1
170,8.27,5.37,-159.32,1
171,8.28,15.5,-126.94,1
172,8.29,23.39,-87.89,1
173,8.31,20.96,-54.79,1
174,8.32,13.38,-13.32,1
175,8.33,9.83,38.67,1
176,8.35,3.55,70.6,1
177,8.36,-8.14,69.64,1
178,8.37,-9.95,61.65,1
179,8.39,-0.03,71.46,1
180,8.4,3.83,89.03,1
181,8.41,0.29,88.19,1
182,8.43,6.76,74.71,1
183,8.44,18.9,70.71,1
184,8.45,14.82,67.9,1
185,8.47,-2.38,45.39,1
186,8.48,-11.49,8.84,1
187,8.49,-12.14,-13.69,1
188,8.51,-14.16,-8.49,1
189,8.52,-13.09,4.83,1
190,8.53,-5.49,1.38,1
191,8.55,1.91,-18.15,1
192,8.56,5.86,-34.24,1
193,8.57,3.68,-34.15,1
194,8.59,-6.66,-21.75,1
195,8.6,-13.71,-3.26,1
196,8.61,-10.69,14.99,1
197,8.63,-7.2,16.58,1
198,8.64,-4.51,-0.37,1
199,8.65,-1.05,-10.17,1
200,8.67,-1.42,-3.97,1
201,8.68,4.04,-2.96,1
202,8.69,21.1,-8.76,1
203,8.71,27.86,0.8,1
204,8.72,11.3,22.01,1
205,8.73,-5.15,30.4,1
206,8.75,-5.25,23.11,1
207,8.76,-5.58,15.88,1
208,8.77,-11.23,14.28,1
209,8.78,-7.76,13.94,1
210,8.8,1.47,14.16,1
211,8.81,6.69,16.23,1
212,8.82,12.31,18.37,1
213,8.84,15.35,17.4,1
214,8.85,3.9,12.2,1
215,8.864999999999998,-14.42,5.6,1
216,8.88,-20.01,1.66,1
217,8.89,-11.88,3.4,1
218,8.91,-0.3,11.0,1
219,8.92,9.06,15.04,1
220,8.93,8.05,6.41,1
221,8.95,-1.29,-6.18,1
222,8.96,-2.9,-11.29,1
223,8.97,4.16,-10.15,1
224,8.99,7.26,-6.63,1
225,9.0,1.65,-4.62,1
226,9.01,-6.67,-10.9,1
227,9.03,-7.74,-21.49,1
228,9.04,-2.81,-23.34,1
229,9.05,-1.7,-15.07,1
230,9.07,-2.38,-10.17,1
231,9.08,-0.07,-16.52,1
232,9.09,1.3,-23.33,1
233,9.11,0.82,-21.58,1
234,9.12,2.09,-20.17,1
235,9.13,4.3,-22.22,1
236,9.15,1.55,-19.25,1
237,9.16,-3.34,-15.69,1
238,9.17,1.25,-16.72,1
239,9.19,8.91,-14.36,1
240,9.2,5.32,-10.75,1
241,9.21,-5.02,-15.73,1
242,9.23,-17.09,-22.57,1
243,9.24,-26.1,-21.02,1
244,9.25,-16.73,-14.78,1
245,9.27,4.19,-12.15,1
246,9.28,11.47,-14.47,1
247,9.29,6.81,-16.05,1
248,9.31,5.98,-13.46,1
249,9.32,5.75,-9.16,1
250,9.33,-2.67,-7.09,1
251,9.35,-9.45,-11.07,1
252,9.36,-1.13,-18.53,1
253,9.37,11.53,-17.27,1
254,9.39,11.0,-7.59,1
255,9.4,0.56,-3.2,1
256,9.41,-4.62,-5.32,1
257,9.43,0.23,-5.0,1
258,9.44,3.32,-3.16,1
259,9.45,-0.57,-8.57,1
260,9.47,-1.47,-19.52,1
261,9.48,2.04,-21.12,1
262,9.49,5.16,-10.55,1
263,9.51,10.36,-4.14,1
264,9.52,11.2,-8.85,1
265,9.53,-0.26,-12.57,1
266,9.55,-9.5,-8.14,1
267,9.56,-4.43,-4.34,1
268,9.57,3.11,-9.47,1
269,9.59,3.55,-16.64,1
270,9.6,2.21,-15.64,1
271,9.61,3.03,-9.55,1
272,9.63,3.73,-7.68,1
273,9.64,1.25,-12.21,1
274,9.65,-3.03,-14.5,1
275,9.67,-0.43,-5.71,1
276,9.68,9.81,3.96,1
277,9.69,10.38,-0.07,1
278,9.71,-2.03,-5.83,1
279,9.72,-8.18,1.02,1
280,9.73,-6.87,8.3,1
281,9.75,-12.47,6.88,1
282,9.76,-19.18,4.94,1
283,9.77,-14.54,6.12,1
284,9.79,-1.98,7.24,1
285,9.8,10.02,7.0,1
286,9.81,14.25,6.23,1
287,9.83,10.77,5.09,1
288,9.84,8.28,3.62,1
289,9.85,6.32,1.29,1
290,9.87,-1.19,-1.42,1
291,9.88,-9.65,-0.07,1
292,9.89,-14.58,6.75,1
293,9.91,-14.06,13.09,1
294,9.92,-5.37,11.15,1
295,9.93,4.06,2.26,1
296,9.95,2.54,-4.85,1
297,9.96,-8.59,-6.96,1
298,9.97,-12.84,-5.62,1
299,9.99,0.29,-1.79,1
300,10.0,11.79,2.06,1
301,10.01,2.76,5.17,1
302,10.02,-9.84,7.81,1
303,10.04,-10.56,6.01,1
304,10.05,-7.25,2.32,1
305,10.06,-0.02,5.14,1
306,10.08,9.23,11.23,1
307,10.09,4.03,13.93,1
308,10.1,-6.83,13.92,1
309,10.12,0.09,14.22,1
310,10.13,11.23,17.34,1
311,10.15,5.96,21.39,1
312,10.16,-4.86,22.85,1
313,10.17,-5.96,20.63,1
314,10.19,-0.73,12.06,1
315,10.2,3.59,0.94,1
316,10.21,10.26,-5.91,1
317,10.23,24.97,-26.92,1
318,10.24,39.27,-73.27,1
319,10.25,37.42,-109.32,1
320,10.27,27.17,-112.67,1
321,10.28,28.45,-107.42,1
322,10.29,31.2,-109.81,1
323,10.31,15.12,-112.25,1
324,10.32,-12.8,-111.35,1
325,10.33,-29.1,-108.37,1
326,10.35,-27.78,-101.26,1
327,10.36,-30.17,-89.19,1
328,10.37,-37.94,-70.42,1
329,10.39,-26.93,-39.86,1
330,10.4,-8.75,2.9,1
331,10.41,-13.2,44.79,1
332,10.43,-30.12,69.55,1
333,10.44,-30.62,80.66,1
334,10.45,-8.15,94.86,1
335,10.47,12.59,118.5,1
336,10.48,4.76,142.38,1
337,10.49,-10.4,155.06,1
338,10.51,-0.42,162.08,1
339,10.52,13.13,172.18,1
340,10.53,4.84,176.94,1
341,10.55,-6.71,172.72,1
342,10.56,-10.77,169.74,1
343,10.57,-21.71,162.19,1
344,10.59,-30.38,138.88,1
345,10.6,-12.41,117.72,1
346,10.61,18.11,110.79,1
347,10.63,26.52,97.49,1
348,10.64,12.87,76.14,1
349,10.65,-2.44,65.63,1
350,10.67,-13.28,59.92,1
351,10.68,-17.71,47.48,1
352,10.69,-11.68,35.53,1
353,10.71,-2.29,32.12,1
354,10.72,3.07,33.49,1
355,10.73,9.1,27.48,1
356,10.75,15.99,10.65,1
357,10.76,11.93,-1.56,1
358,10.77,-3.0,-3.84,1
359,10.78,-11.43,-21.35,1
360,10.8,-7.94,-58.14,1
361,10.81,-1.81,-70.25,1
362,10.83,7.01,-39.78,1
363,10.84,16.1,-9.61,1
364,10.85,14.98,-10.32,1
365,10.87,6.15,-20.51,1
366,10.88,-5.51,-20.88,1
367,10.89,-17.9,-20.74,1
368,10.91,-16.06,-21.95,1
369,10.92,6.09,-19.94,1
370,10.93,23.17,-20.59,1
371,10.95,15.16,-24.87,1
372,10.96,3.65,-31.52,1
373,10.97,8.77,-44.4,1
374,10.99,12.59,-53.28,1
375,11.0,2.68,-47.44,1
376,11.01,-2.49,-41.65,1
377,11.03,10.06,-49.25,1
378,11.04,24.7,-59.38,1
379,11.05,16.51,-58.07,1
380,11.07,-8.11,-47.22,1
381,11.08,-14.93,-42.11,1
382,11.09,1.95,-48.34,1
383,11.11,14.22,-52.63,1
384,11.12,8.9,-49.11,1
385,11.13,-2.31,-45.99,1
386,11.15,-6.07,-48.17,1
387,11.16,-0.36,-53.9,1
388,11.17,3.26,-55.21,1
389,11.19,-1.17,-44.73,1
390,11.2,-6.02,-33.96,1
391,11.21,-9.78,-40.52,1
392,11.23,-10.12,-55.45,1
393,11.24,0.19,-57.41,1
394,11.25,11.4,-46.34,1
395,11.27,13.38,-34.99,1
396,11.28,11.27,-29.12,1
397,11.29,1.83,-27.9,1
398,11.31,-10.54,-27.98,1
399,11.32,-4.46,-28.53,1
400,11.33,10.17,-33.4,1
401,11.35,6.05,-38.26,1
402,11.36,-6.52,-32.51,1
403,11.37,-7.12,-21.76,1
404,11.39,-1.54,-18.96,1
405,11.4,0.09,-20.27,1
406,11.41,-3.02,-19.3,1
407,11.43,-4.59,-22.15,1
408,11.44,6.93,-28.17,1
409,11.45,22.27,-23.99,1
410,11.47,19.41,-11.73,1
411,11.48,5.05,-10.37,1
412,11.49,-3.61,-18.8,1
413,11.51,-9.05,-16.94,1
414,11.52,-10.69,-6.88,1
415,11.53,-0.0,-8.65,1
416,11.55,14.23,-18.14,1
417,11.56,10.5,-14.01,1
418,11.57,-9.26,0.54,1
419,11.59,-18.34,8.1,1
420,11.6,-9.29,6.34,1
421,11.61,0.94,0.58,1
422,11.63,4.0,-3.24,1
423,11.64,1.72,3.03,1
424,11.65,-1.94,15.05,1
425,11.67,-0.64,16.83,1
426,11.68,4.44,5.48,1
427,11.69,3.6,-6.45,1
428,11.71,-8.78,-9.0,1
429,11.72,-19.23,-1.08,1
430,11.73,-13.67,9.54,1
431,11.75,-5.92,15.22,1
432,11.76,-6.18,16.84,1
433,11.77,1.28,13.36,1
434,11.79,15.25,5.72,1
435,11.8,15.23,7.63,1
436,11.81,4.69,22.15,1
437,11.83,5.09,30.36,1
438,11.84,15.9,19.61,1
439,11.85,11.45,3.96,1
440,11.87,-13.6,5.45,1
441,11.88,-22.55,18.25,1
442,11.89,0.19,19.98,1
443,11.91,12.73,15.46,1
444,11.92,-5.32,18.84,1
445,11.93,-17.18,18.9,1
446,11.94,-5.62,10.45,1
447,11.96,5.25,10.52,1
448,11.97,5.97,20.37,1
449,11.98,6.4,25.79,1
450,12.0,7.59,25.31,1
451,12.01,3.11,22.1,1
452,12.02,-9.27,15.23,1
453,12.04,-20.32,13.04,1
454,12.05,-18.74,20.25,1
455,12.06,-7.84,23.92,1
456,12.08,-5.38,19.71,1
457,12.09,-16.68,21.06,1
458,12.1,-19.22,29.57,1
459,12.12,-0.19,32.92,1
460,12.13,14.33,28.25,1
461,12.15,7.34,22.48,1
462,12.16,-0.45,26.62,1
463,12.17,0.13,59.58,1
464,12.19,-0.9,129.96,1
465,12.2,0.26,215.73,1
466,12.21,1.63,279.58,1
467,12.23,-7.36,298.57,1
468,12.24,-14.81,274.9,1
469,12.25,-9.41,220.69,1
470,12.27,-8.06,149.61,1
471,12.28,-17.87,80.24,1
472,12.29,-21.91,18.11,1
473,12.31,-17.5,-46.94,1
474,12.32,-12.95,-111.15,1
475,12.33,-3.89,-159.5,1
476,12.35,7.46,-191.88,1
477,12.36,9.57,-210.31,1
478,12.37,5.32,-205.77,1
479,12.39,6.57,-182.01,1
480,12.4,14.14,-156.16,1
481,12.41,15.02,-137.46,1
482,12.43,3.6,-125.31,1
483,12.44,-3.42,-116.62,1
484,12.45,7.06,-112.41,1
485,12.47,17.99,-109.62,1
486,12.48,13.18,-100.42,1
487,12.49,9.5,-91.77,1
488,12.51,18.69,-88.4,1
489,12.52,24.32,-75.58,1
490,12.53,19.92,-56.08,1
491,12.55,18.99,-49.12,1
492,12.56,24.0,-49.03,1
493,12.57,19.37,-40.2,1
494,12.59,5.36,-22.85,1
495,12.6,6.7,-7.5,1
496,12.61,20.17,-5.13,1
497,12.63,16.23,-12.61,1
498,12.64,2.32,-17.31,1
499,12.65,-1.04,-17.36,1
500,12.67,-7.74,-15.51,1
501,12.68,-21.03,-3.81,1
502,12.69,-16.66,17.03,1
503,12.71,2.86,23.71,1
504,12.72,9.15,14.8,1
505,12.73,-3.52,19.54,1
506,12.75,-13.39,36.6,1
507,12.76,-6.87,37.7,1
508,12.77,4.46,27.39,1
509,12.79,9.6,24.97,1
510,12.8,14.3,23.58,1
511,12.81,16.84,15.94,1
512,12.83,6.28,12.14,1
513,12.84,-9.76,18.96,1
514,12.85,-15.41,31.41,1
515,12.87,-14.61,38.68,1
516,12.88,-15.0,34.94,1
517,12.89,-10.98,27.34,1
518,12.91,-3.25,27.18,1
519,12.92,-0.74,37.6,1
520,12.93,-0.97,47.05,1
521,12.95,0.8,42.43,1
522,12.96,-7.01,30.95,1
523,12.97,-22.62,25.26,1
524,12.99,-17.98,23.67,1
525,13.0,4.0,24.93,1
526,13.01,5.45,30.15,1
527,13.03,-12.65,32.37,1
528,13.04,-14.84,28.18,1
529,13.05,-0.61,22.04,1
530,13.07,2.05,19.08,1
531,13.08,-5.25,24.4,1
532,13.09,-3.06,33.82,1
533,13.11,-0.47,35.02,1
534,13.12,-5.89,23.59,1
535,13.13,1.49,9.91,1
536,13.15,18.51,8.95,1
537,13.16,13.61,18.18,1
538,13.17,-2.17,22.76,1
539,13.19,0.41,22.97,1
540,13.2,2.35,24.94,1
541,13.21,-16.89,24.44,1
542,13.23,-29.9,21.34,1
543,13.24,-15.82,21.34,1
544,13.25,1.88,23.79,1
545,13.27,2.41,26.7,1
546,13.28,-3.24,29.28,1
547,13.29,-2.52,28.13,1
548,13.31,1.84,20.91,1
549,13.32,5.12,10.81,1
550,13.33,3.58,6.57,1
551,13.35,-4.83,10.57,1
552,13.36,-9.57,9.99,1
553,13.37,0.57,0.0,1
554,13.39,15.44,-3.43,1
555,13.4,17.94,4.26,1
556,13.41,6.81,7.82,1
557,13.43,-4.31,2.6,1
558,13.44,-4.61,-1.39,1
559,13.45,1.33,-1.83,1
560,13.47,1.58,-3.37,1
561,13.48,-10.06,-3.14,1
562,13.49,-19.75,1.08,1
563,13.51,-10.71,1.37,1
564,13.52,7.63,-4.61,1
565,13.53,15.59,-12.3,1
566,13.55,7.52,-22.4,1
567,13.56,-6.4,-27.7,1
568,13.57,-4.64,-17.36,1
569,13.59,14.89,-0.49,1
570,13.6,23.99,8.27,1
571,13.61,8.89,10.68,1
572,13.63,-9.24,11.47,1
573,13.64,-7.92,5.34,1
574,13.65,6.63,-4.92,1
575,13.67,8.53,-6.21,1
576,13.68,-7.17,-2.76,1
577,13.69,-14.88,-5.47,1
578,13.71,-6.7,-7.02,1
579,13.72,-3.2,-5.27,1
580,13.73,-2.74,-10.78,1
581,13.75,10.34,-18.66,1
582,13.76,20.19,-18.55,1
583,13.77,7.82,-12.85,1
584,13.79,-12.68,-5.58,1
585,13.8,-23.78,-3.74,1
586,13.81,-21.78,-13.96,1
587,13.83,-3.93,-27.46,1
588,13.84,21.26,-29.84,1
589,13.85,29.67,-17.76,1
590,13.86,13.43,-5.58,1
591,13.88,-7.66,-5.72,1
592,13.89,-13.64,-9.48,1
593,13.9,-4.48,-7.21,1
594,13.92,5.09,-4.86,1
595,13.93,7.43,-8.45,1
596,13.94,5.93,-15.79,1
597,13.96,-0.6,-22.04,1
598,13.97,-14.18,-18.77,1
599,13.98,-22.09,-5.76,1
600,14.0,-11.73,-0.48,1
601,14.01,9.0,-12.09,1
602,14.02,23.26,-26.12,1
603,14.04,23.76,-26.12,1
604,14.05,14.39,-11.48,1
605,14.07,1.66,0.32,1
606,14.08,-11.65,-4.42,1
607,14.09,-19.72,-13.01,1
608,14.11,-12.51,-12.82,1
609,14.12,3.53,-12.39,1
610,14.13,11.29,-13.67,1
611,14.15,8.8,-13.2,1
612,14.16,-2.13,-21.41,1
613,14.17,-22.73,-31.2,1
614,14.19,-36.46,-17.23,1
615,14.2,-14.9,20.65,1
616,14.21,40.77,55.83,1
617,14.23,73.64,55.62,1
618,14.24,33.12,22.63,1
619,14.25,-28.31,-0.52,1
620,14.27,-28.96,10.43,1
621,14.28,-0.85,44.76,1
622,14.29,-10.48,65.57,1
623,14.31,-32.36,61.99,1
624,14.32,-20.23,52.79,1
625,14.33,10.82,26.72,1
626,14.35,22.08,3.59,1
627,14.36,10.77,10.88,1
628,14.37,5.91,-4.17,1
629,14.39,11.72,-55.15,1
630,14.4,9.27,-62.57,1
631,14.41,4.32,-23.37,1
632,14.43,8.39,-28.89,1
633,14.44,6.16,-75.29,1
634,14.45,-10.45,-81.45,1
635,14.47,-19.56,-54.9,1
636,14.48,-8.74,-31.16,1
637,14.49,3.9,-3.91,1
638,14.51,8.04,-7.48,1
639,14.52,9.92,-53.19,1
640,14.53,1.35,-63.93,1
641,14.55,-17.68,-26.29,1
642,14.56,-16.93,-16.2,1
643,14.57,7.79,-42.01,1
644,14.59,18.33,-39.02,1
645,14.6,5.98,-6.31,1
646,14.61,-1.22,9.66,1
647,14.63,-2.47,14.57,1
648,14.64,-12.68,12.45,1
649,14.65,-17.31,-18.19,1
650,14.67,-3.86,-52.6,1
651,14.68,5.22,-45.81,1
652,14.69,-2.4,-7.26,1
653,14.71,-5.12,12.48,1
654,14.72,4.56,-3.58,1
655,14.73,8.09,-16.34,1
656,14.75,5.07,-0.8,1
657,14.76,14.15,-2.42,1
658,14.77,27.81,-39.93,1
659,14.79,17.94,-37.37,1
660,14.8,-8.15,24.23,1
661,14.81,-15.56,52.0,1
662,14.83,-5.78,29.86,1
663,14.84,-2.47,30.37,1
664,14.85,-2.45,30.94,1
665,14.87,-1.46,-19.34,1
666,14.88,-5.31,-54.57,1
667,14.89,-0.56,-20.1,1
668,14.91,13.98,24.78,1
669,14.92,10.09,27.62,1
670,14.93,-8.08,9.64,1
671,14.95,-5.93,0.63,1
672,14.96,12.29,-1.07,1
673,14.97,16.87,-2.16,1
674,14.99,8.96,17.98,1
675,15.0,4.56,56.56,1
676,15.01,0.23,59.86,1
677,15.03,-11.66,17.33,1
678,15.04,-18.22,-11.42,1
679,15.05,-4.99,5.57,1
680,15.07,12.59,24.74,1
681,15.08,11.24,4.16,1
682,15.09,0.85,-19.1,1
683,15.11,3.59,-3.84,1
684,15.12,7.67,12.96,1
685,15.13,-9.2,-2.34,1
686,15.15,-26.28,-10.36,1
687,15.16,-11.2,17.95,1
688,15.17,14.43,37.18,1
689,15.19,10.32,15.93,1
690,15.2,-12.74,4.28,1
691,15.21,-22.3,25.8,1
692,15.23,-17.24,31.51,1
693,15.24,-10.59,11.3,1
694,15.25,-10.19,-17.02,1
695,15.27,-16.97,-31.07,1
696,15.28,-21.04,9.08,1
697,15.29,-15.36,42.9,1
698,15.31,-2.92,12.01,1
699,15.32,6.15,6.85,1
700,15.33,0.05,50.22,1
701,15.35,-12.05,42.11,1
702,15.36,-8.54,-10.8,1
703,15.37,3.07,-10.56,1
704,15.39,1.1,35.99,1
705,15.4,-5.01,42.34,1
706,15.41,-0.41,6.74,1
707,15.43,2.79,-4.29,1
708,15.44,-0.77,25.03,1
709,15.45,1.1,53.34,1
710,15.47,4.82,53.2,1
711,15.48,-3.16,42.52,1
712,15.49,-15.0,42.35,1
713,15.51,-12.83,43.86,1
714,15.52,-3.71,38.06,1
715,15.53,-1.92,21.5,1
716,15.55,3.75,6.0,1
717,15.56,22.06,10.65,1
718,15.57,33.42,-0.85,1
719,15.59,23.57,-38.95,1
720,15.6,6.03,-27.64,1
721,15.61,-4.6,31.05,1
722,15.63,-8.3,52.69,1
723,15.64,-6.09,29.09,1
724,15.65,-1.04,-7.1,1
725,15.67,1.96,-48.22,1
726,15.68,7.3,-65.06,1
727,15.69,16.37,-20.96,1
728,15.71,20.47,34.1,1
729,15.72,15.51,14.7,1
730,15.73,6.89,-31.0,1
731,15.75,0.46,-17.25,1
732,15.76,-2.46,15.7,1
733,15.77,-0.29,21.05,1
734,15.78,7.57,16.42,1
735,15.8,12.39,8.15,1
736,15.81,6.83,-12.88,1
737,15.82,-0.77,-35.52,1
738,15.84,-0.69,-35.5,1
739,15.85,1.48,-16.63,1
740,15.86,1.86,-3.1,1
741,15.88,5.16,-21.35,1
742,15.89,2.11,-72.35,1
743,15.9,-10.05,-84.5,1
744,15.92,-7.75,-28.73,1
745,15.93,9.96,3.32,1
746,15.94,13.96,-22.65,1
747,15.96,2.24,-27.97,1
748,15.97,-7.71,1.8,1
749,15.98,-12.94,-2.01,1
750,16.0,-14.46,-29.85,1
751,16.01,-10.27,-17.03,1
752,16.03,-3.45,10.36,1
753,16.04,0.67,1.14,1
754,16.05,3.13,-18.08,1
755,16.07,6.26,-24.06,1
756,16.08,4.93,-21.31,1
757,16.09,1.55,-6.57,1
758,16.11,5.8,-0.4,1
759,16.12,11.28,-6.45,1
760,16.13,7.64,-5.71,1
761,16.15,3.0,-1.79,1
762,16.16,1.32,19.38,1
763,16.17,-9.17,47.65,1
764,16.19,-22.53,32.57,1
765,16.2,-13.19,-1.86,1
766,16.21,10.82,-2.54,1
767,16.23,10.07,13.36,1
768,16.24,-9.89,14.94,1
769,16.25,-10.25,-0.77,1
770,16.27,4.3,-44.93,1
771,16.28,4.17,-120.79,1
772,16.29,-9.18,-183.74,1
773,16.31,-14.67,-196.84,1
774,16.32,-6.34,-171.94,1
775,16.33,-1.07,-118.64,1
776,16.35,-8.73,-46.26,1
777,16.36,-15.75,-0.21,1
778,16.37,-14.42,-4.66,1
779,16.39,-13.98,-11.0,1
780,16.4,-13.73,26.88,1
781,16.41,-1.95,78.23,1
782,16.42,14.56,98.84,1
783,16.44,16.04,95.68,1
784,16.45,5.82,91.23,1
785,16.46,5.53,99.13,1
786,16.48,15.52,116.05,1
787,16.49,17.42,111.91,1
788,16.5,8.99,85.95,1
789,16.52,0.99,74.54,1
790,16.53,-2.99,74.61,1
791,16.54,-1.15,52.9,1
792,16.56,6.1,19.11,1
793,16.57,10.56,6.14,1
794,16.58,7.14,10.35,1
795,16.6,1.63,17.36,1
796,16.61,1.25,28.29,1
797,16.62,3.91,29.33,1
798,16.64,2.24,9.22,1
799,16.65,-4.02,-5.71,1
800,16.67,-9.38,6.08,1
801,16.68,-10.57,22.16,1
802,16.69,-7.23,18.73,1
803,16.71,-2.61,6.14,1
804,16.72,1.19,-2.49,1
805,16.73,8.3,-5.97,1
806,16.75,17.88,-1.44,1
807,16.76,18.87,7.04,1
808,16.77,8.68,7.88,1
809,16.79,-4.56,2.37,1
810,16.8,-14.72,-1.96,1
811,16.81,-18.49,-5.26,1
812,16.83,-13.05,-2.69,1
813,16.84,-1.5,8.9,1
814,16.85,5.54,14.06,1
815,16.87,4.04,5.89,1
816,16.88,0.21,3.23,1
817,16.89,-1.41,15.08,1
818,16.91,0.46,20.87,1
819,16.92,2.8,7.83,1
820,16.93,0.75,-11.3,1
821,16.95,-7.74,-22.12,1
822,16.96,-16.33,-18.64,1
823,16.97,-10.22,-7.61,1
824,16.99,5.97,-1.42,1
825,17.0,7.37,0.45,1
826,17.01,-9.09,4.13,1
827,17.03,-17.35,3.43,1
828,17.04,-6.17,-9.9,1
829,17.05,1.31,-19.75,1
830,17.06,-6.51,-9.89,1
831,17.08,-5.33,-0.19,1
832,17.09,10.01,-6.65,1
833,17.1,12.86,-11.64,1
834,17.12,1.55,-4.53,1
835,17.13,-5.8,0.88,1
836,17.14,-8.82,-4.25,1
837,17.16,-10.64,-6.91,1
838,17.17,-5.7,-0.85,1
839,17.18,3.17,-2.81,1
840,17.2,8.32,-15.71,1
841,17.21,10.7,-18.91,1
842,17.22,10.93,-8.01,1
843,17.24,5.01,-2.18,1
844,17.25,-2.11,-10.03,1
845,17.26,-2.89,-16.21,1
846,17.28,-0.7,-9.85,1
847,17.29,2.71,-2.1,1
848,17.3,8.88,-5.79,1
849,17.32,8.91,-13.85,1
850,17.33,0.92,-13.18,1
851,17.35,1.95,-8.5,1
852,17.36,15.55,-9.56,1
853,17.37,19.42,-12.34,1
854,17.39,4.58,-10.31,1
855,17.4,-8.29,-6.51,1
856,17.41,-1.5,-7.39,1
857,17.43,11.56,-12.06,1
858,17.44,8.69,-13.93,1
859,17.45,-2.82,-9.83,1
860,17.47,-4.25,-4.24,1
861,17.48,-1.14,-6.77,1
862,17.49,-1.93,-19.09,1
863,17.51,-3.31,-25.53,1
864,17.52,-9.46,-19.62,1
865,17.53,-18.41,-15.38,1
866,17.55,-15.73,-14.9,1
867,17.56,-4.12,-11.81,1
868,17.57,2.65,-8.79,1
869,17.59,3.65,-5.05,1
870,17.6,4.17,-2.86,1
871,17.61,3.95,-11.01,1
872,17.63,0.73,-19.85,1
873,17.64,-2.96,-12.74,1
874,17.65,-5.0,-1.48,1
875,17.67,-6.18,-4.94,1
876,17.68,-3.32,-9.8,1
877,17.69,0.34,-0.53,1
878,17.7,-0.65,5.01,1
879,17.72,-0.36,-8.53,1
880,17.73,0.24,-23.27,1
881,17.75,-7.24,-18.93,1
882,17.76,-13.49,-4.79,1
883,17.77,-1.39,-0.88,1
884,17.78,17.56,-4.12,1
885,17.8,16.37,-0.48,1
886,17.81,1.43,4.24,1
887,17.82,-4.18,1.94,1
888,17.84,-2.23,2.61,1
889,17.85,1.01,7.37,1
890,17.86,7.77,2.11,1
891,17.88,12.28,-9.6,1
892,17.89,9.69,-11.55,1
893,17.9,4.1,-7.52,1
894,17.92,1.77,-13.06,1
895,17.93,7.22,-19.69,1
896,17.94,9.12,-9.05,1
897,17.96,-3.08,4.66,1
898,17.97,-12.69,3.0,1
899,17.99,-7.23,2.47,1
900,18.0,1.23,11.51,1
901,18.01,4.03,10.19,1
902,18.03,3.98,1.09,1
903,18.04,3.36,5.12,1
904,18.05,0.29,13.68,1
905,18.07,-4.62,12.57,1
906,18.08,-4.76,11.28,1
907,18.09,-4.75,11.34,1
908,18.11,-13.77,4.33,1
909,18.12,-16.74,-2.14,1
910,18.13,-0.58,1.18,1
911,18.15,13.89,11.1,1
912,18.16,8.83,19.34,1
913,18.17,-2.59,19.0,1
914,18.19,-7.1,13.18,1
915,18.2,-9.35,-0.3,1
916,18.21,-6.78,-32.47,1
917,18.23,12.23,-72.43,1
918,18.24,37.3,-97.48,1
919,18.25,44.4,-105.89,1
920,18.27,35.05,-108.88,1
921,18.28,27.62,-112.39,1
922,18.29,21.92,-113.47,1
923,18.31,6.71,-107.87,1
924,18.32,-14.02,-102.2,1
925,18.33,-28.15,-99.29,1
926,18.34,-31.89,-86.28,1
927,18.36,-28.08,-63.19,1
928,18.37,-23.13,-41.34,1
929,18.38,-22.97,-12.76,1
930,18.4,-25.87,24.75,1
931,18.41,-26.92,55.8,1
932,18.42,-24.36,80.74,1
933,18.44,-13.43,102.5,1
934,18.45,5.72,114.71,1
935,18.46,12.81,123.41,1
936,18.48,-1.72,137.13,1
937,18.49,-18.64,154.87,1
938,18.5,-27.17,168.52,1
939,18.52,-27.77,166.4,1
940,18.53,-15.14,154.4,1
941,18.54,5.84,151.18,1
942,18.56,18.33,153.52,1
943,18.57,17.03,144.21,1
944,18.58,12.49,126.32,1
945,18.6,11.82,110.71,1
946,18.61,7.11,95.84,1
947,18.63,-4.03,82.46,1
948,18.64,-4.06,73.02,1
949,18.65,11.16,62.01,1
950,18.67,15.8,50.33,1
951,18.68,3.21,46.78,1
952,18.69,-1.07,46.23,1
953,18.71,4.45,35.21,1
954,18.72,-0.62,18.76,1
955,18.73,-7.78,11.32,1
956,18.75,1.17,13.44,1
957,18.76,11.96,14.65,1
958,18.77,2.47,8.5,1
959,18.79,-14.49,2.11,1
960,18.8,-10.93,1.86,1
961,18.81,7.16,-2.47,1
962,18.83,14.91,-16.4,1
963,18.84,9.7,-27.2,1
964,18.85,1.79,-27.73,1
965,18.87,-3.75,-28.69,1
966,18.88,-3.31,-36.05,1
967,18.89,3.69,-41.41,1
968,18.91,10.38,-43.53,1
969,18.92,11.52,-47.33,1
970,18.93,10.65,-48.71,1
971,18.95,8.28,-49.02,1
972,18.96,3.35,-55.04,1
973,18.97,4.19,-59.06,1
974,18.98,9.37,-52.31,1
975,19.0,2.71,-42.94,1
976,19.01,-14.68,-40.42,1
977,19.02,-23.32,-41.5,1
978,19.04,-15.38,-40.2,1
979,19.05,2.0,-37.66,1
980,19.06,17.63,-39.71,1
981,19.08,21.93,-48.47,1
982,19.09,15.47,-54.65,1
983,19.1,7.75,-49.24,1
984,19.12,2.0,-38.79,1
985,19.13,-4.21,-33.76,1
986,19.14,-10.12,-37.67,1
987,19.16,-9.96,-49.05,1
988,19.17,-3.69,-56.65,1
989,19.18,-2.11,-48.87,1
990,19.2,-7.67,-36.37,1
991,19.21,-9.17,-38.48,1
992,19.22,-3.67,-51.36,1
993,19.24,1.36,-53.24,1
994,19.25,4.01,-40.62,1
995,19.27,3.88,-32.8,1
996,19.28,-0.06,-36.54,1
997,19.29,-0.94,-40.18,1
998,19.31,4.4,-40.07,1
999,19.32,4.87,-39.32,1
1000,19.33,-6.11,-36.76,1
1001,19.35,-13.5,-31.12,1
1002,19.36,-7.89,-22.56,1
1003,19.37,-0.18,-18.32,1
1004,19.39,0.85,-24.47,1
1005,19.4,-5.94,-30.86,1
1006,19.41,-14.44,-25.98,1
1007,19.43,-13.91,-15.74,1
1008,19.44,-6.55,-13.51,1
1009,19.45,0.34,-17.81,1
1010,19.47,7.39,-16.28,1
1011,19.48,13.87,-8.76,1
1012,19.49,13.13,-4.18,1
1013,19.51,2.66,-1.21,1
1014,19.52,-6.17,4.18,1
1015,19.53,-1.69,4.71,1
1016,19.55,4.16,-0.91,1
1017,19.56,-0.75,-0.82,1
1018,19.57,-1.19,2.41,1
1019,19.59,10.17,-2.31,1
1020,19.6,14.04,-4.9,1
1021,19.61,4.73,2.91,1
1022,19.62,-0.62,5.93,1
1023,19.64,-0.48,1.13,1
1024,19.65,-2.91,6.37,1
1025,19.67,0.67,17.92,1
1026,19.68,3.9,16.3,1
1027,19.69,-9.05,5.17,1
1028,19.7,-15.42,-0.87,1
1029,19.72,2.83,-0.72,1
1030,19.73,16.9,5.67,1
1031,19.75,6.78,18.82,1
1032,19.76,-7.07,26.83,1
1033,19.77,1.08,19.72,1
1034,19.78,22.67,8.11,1
1035,19.8,24.68,8.31,1
1036,19.81,5.71,18.81,1
1037,19.82,-2.53,23.46,1
1038,19.84,6.17,18.8,1
1039,19.85,7.38,15.22,1
1040,19.86,-4.62,12.8,1
1041,19.88,-5.59,12.75,1
1042,19.89,8.67,23.94,1
1043,19.9,10.26,34.04,1
1044,19.92,-6.0,26.38,1
1045,19.93,-12.94,13.46,1
1046,19.95,0.55,9.37,1
1047,19.96,16.74,8.55,1
1048,19.97,18.04,6.58,1
1049,19.99,5.61,8.87,1
1050,20.0,-7.58,19.68,1
1051,20.01,-13.47,27.72,1
1052,20.03,-14.88,22.08,1
1053,20.04,-14.13,14.89,1
1054,20.05,-6.56,17.57,1
1055,20.07,-1.52,25.41,1
1056,20.08,-12.3,30.5,1
1057,20.09,-24.65,26.43,1
1058,20.11,-23.65,17.26,1
1059,20.12,-16.95,11.84,1
1060,20.13,-6.8,16.43,1
1061,20.15,4.36,49.69,1
1062,20.16,5.98,122.92,1
1063,20.17,7.83,213.0,1
1064,20.19,19.38,281.17,1
1065,20.2,20.62,299.95,1
1066,20.21,0.96,263.64,1
1067,20.23,-20.03,186.23,1
1068,20.24,-22.88,100.75,1
1069,20.25,-11.81,39.49,1
1070,20.26,-7.25,-5.49,1
1071,20.28,-12.89,-56.73,1
1072,20.29,-14.45,-103.5,1
1073,20.3,-9.19,-134.46,1
1074,20.32,-3.91,-164.61,1
1075,20.33,1.67,-195.64,1
1076,20.34,9.96,-203.01,1
1077,20.36,15.6,-176.76,1
1078,20.37,11.26,-141.48,1
1079,20.38,2.81,-120.66,1
1080,20.4,4.06,-106.39,1
1081,20.41,12.48,-93.28,1
1082,20.42,15.3,-90.03,1
1083,20.44,13.74,-86.66,1
1084,20.45,9.69,-73.28,1
1085,20.46,-0.31,-67.18,1
1086,20.48,-5.25,-72.3,1
1087,20.49,4.31,-66.83,1
1088,20.5,11.89,-51.03,1
1089,20.52,5.39,-47.85,1
1090,20.53,-0.16,-57.47,1
1091,20.54,7.37,-59.15,1
1092,20.56,18.02,-47.75,1
1093,20.57,15.88,-34.36,1
1094,20.59,1.97,-23.07,1
1095,20.6,-5.08,-15.18,1
1096,20.61,2.96,-15.17,1
1097,20.63,12.57,-16.75,1
1098,20.64,9.11,-9.63,1
1099,20.65,-2.07,0.88,1
1100,20.67,-1.09,5.57,1
1101,20.68,10.79,6.17,1
1102,20.69,11.39,3.36,1
1103,20.71,0.14,-1.77,1
1104,20.72,-6.77,3.57,1
1105,20.73,-11.67,23.71,1
1106,20.75,-19.94,39.32,1
1107,20.76,-21.23,35.59,1
1108,20.77,-9.94,25.52,1
1109,20.79,3.3,23.83,1
1110,20.8,9.07,25.68,1
1111,20.81,8.74,27.47,1
1112,20.83,1.37,32.49,1
1113,20.84,-9.4,36.49,1
1114,20.85,-12.02,34.43,1
1115,20.87,-11.56,34.56,1
1116,20.88,-16.25,44.81,1
1117,20.89,-15.27,55.21,1
1118,20.9,-7.6,47.96,1
1119,20.92,-6.94,27.92,1
1120,20.93,-10.26,22.48,1
1121,20.94,-6.64,33.72,1
1122,20.96,-0.06,34.22,1
1123,20.97,1.66,24.4,1
1124,20.98,-1.36,26.61,1
1125,21.0,-6.78,34.68,1
1126,21.01,-12.72,30.78,1
1127,21.02,-15.07,19.11,1
1128,21.04,-11.49,15.1,1
1129,21.05,-3.74,20.47,1
1130,21.06,4.77,23.33,1
1131,21.08,11.58,21.84,1
1132,21.09,15.29,24.46,1
1133,21.1,13.73,25.13,1
1134,21.12,6.66,16.87,1
1135,21.13,-0.71,13.71,1
1136,21.14,-0.28,21.71,1
1137,21.16,6.57,26.24,1
1138,21.17,5.36,26.97,1
1139,21.18,-4.58,32.81,1
1140,21.2,-4.55,30.07,1
1141,21.21,6.87,11.21,1
1142,21.23,14.17,2.09,1
1143,21.24,11.41,14.62,1
1144,21.25,1.41,23.65,1
1145,21.27,-8.36,15.89,1
1146,21.28,-8.0,6.72,1
1147,21.29,-0.76,4.95,1
1148,21.31,-1.33,6.31,1
1149,21.32,-13.48,6.18,1
1150,21.33,-22.79,4.05,1
1151,21.35,-17.94,7.59,1
1152,21.36,-4.26,15.27,1
1153,21.37,5.34,13.25,1
1154,21.39,4.33,5.7,1
1155,21.4,1.22,4.06,1
1156,21.41,6.08,3.12,1
1157,21.43,10.99,3.02,1
1158,21.44,7.93,10.85,1
1159,21.45,6.85,17.4,1
1160,21.47,10.1,13.18,1
1161,21.48,1.39,5.28,1
1162,21.49,-14.24,0.68,1
1163,21.51,-12.62,-2.68,1
1164,21.52,3.32,-5.19,1
1165,21.53,12.08,-5.58,1
1166,21.54,11.46,-3.33,1
1167,21.56,10.77,-0.57,1
1168,21.57,6.67,-1.84,1
1169,21.58,-3.99,-4.53,1
1170,21.6,-7.17,-4.63,1
1171,21.61,1.67,-4.53,1
1172,21.62,4.17,-6.99,1
1173,21.64,-2.41,-11.02,1
1174,21.65,0.25,-11.19,1
1175,21.67,9.92,-4.43,1
1176,21.68,4.18,-0.21,1
1177,21.69,-13.92,-7.56,1
1178,21.7,-17.17,-19.01,1
1179,21.72,-3.84,-21.95,1
1180,21.73,6.99,-16.11,1
1181,21.75,9.63,-6.54,1
1182,21.76,1.55,-0.07,1
1183,21.77,-11.57,-8.64,1
1184,21.78,-7.95,-27.81,1
1185,21.8,9.39,-35.65,1
1186,21.81,14.86,-26.76,1
1187,21.82,11.11,-17.18,1
1188,21.84,12.58,-18.74,1
1189,21.85,12.98,-22.16,1
1190,21.865,5.72,-17.5,1
1191,21.88,-3.45,-14.79,1
1192,21.89,-8.99,-17.27,1
1193,21.91,-8.78,-14.39,1
1194,21.92,-1.29,-7.76,1
1195,21.93,9.8,-7.13,1
1196,21.95,12.81,-12.64,1
1197,21.96,3.01,-15.45,1
1198,21.97,-9.36,-13.65,1
1199,21.99,-10.4,-14.1,1
1200,22.0,-0.36,-15.14,1
1201,22.01,6.31,-11.43,1
1202,22.03,0.48,-6.94,1
1203,22.04,-10.04,-7.26,1
1204,22.05,-15.76,-9.88,1
1205,22.07,-17.68,-10.27,1
1206,22.08,-10.72,-11.1,1
1207,22.09,10.94,-14.66,1
1208,22.11,23.61,-16.0,1
1209,22.12,7.91,-12.77,1
1210,22.13,-10.07,-7.71,1
1211,22.15,-7.01,1.15,1
1212,22.16,0.78,15.39,1
1213,22.17,5.42,36.6,1
1214,22.18,16.75,53.73,1
1215,22.2,18.46,36.67,1
1216,22.21,-2.58,34.26,1
1217,22.22,-21.09,105.64,1
1218,22.24,-22.65,138.47,1
1219,22.25,-21.31,52.23,1
1220,22.26,-20.23,-37.64,1
1221,22.28,-5.7,-37.51,1
1222,22.29,24.42,20.47,1
1223,22.3,43.63,57.26,1
1224,22.32,34.03,30.39,1
1225,22.33,17.97,-18.49,1
1226,22.34,11.87,-36.38,1
1227,22.36,0.26,-45.0,1
1228,22.37,-16.51,-80.89,1
1229,22.38,-19.66,-104.8,1
1230,22.4,-14.38,-90.29,1
1231,22.41,-11.73,-78.72,1
1232,22.42,-8.48,-69.12,1
1233,22.44,-1.26,-39.07,1
1234,22.45,12.34,-15.88,1
1235,22.46,23.28,-25.11,1
1236,22.48,14.44,-49.21,1
1237,22.49,-5.6,-46.01,1
1238,22.5,-11.1,-7.52,1
1239,22.52,-4.14,23.05,1
1240,22.53,-5.19,21.8,1
1241,22.55,-5.95,10.21,1
1242,22.56,8.67,-7.01,1
1243,22.57,17.82,-37.47,1
1244,22.59,4.97,-48.75,1
1245,22.6,-8.18,-13.9,1
1246,22.61,-4.06,23.93,1
1247,22.63,5.24,12.24,1
1248,22.64,9.94,-32.73,1
1249,22.65,12.23,-57.8,1
1250,22.67,7.17,-37.28,1
1251,22.68,-6.99,-1.04,1
1252,22.69,-13.2,5.62,1
1253,22.71,-4.02,-1.47,1
1254,22.72,3.64,6.2,1
1255,22.73,3.75,1.77,1
1256,22.75,6.6,-11.02,1
1257,22.76,10.53,2.13,1
1258,22.77,9.21,12.13,1
1259,22.79,3.59,-3.24,1
1260,22.8,-7.73,-10.81,1
1261,22.81,-19.7,-10.98,1
1262,22.82,-19.76,-21.62,1
1263,22.84,-11.79,-12.4,1
1264,22.85,-8.6,26.34,1
1265,22.86,-8.12,51.53,1
1266,22.88,-5.33,36.8,1
1267,22.89,-5.24,-15.33,1
1268,22.9,-7.39,-56.82,1
1269,22.92,-8.0,-26.05,1
1270,22.93,-10.32,34.61,1
1271,22.94,-11.93,35.67,1
1272,22.96,-6.69,-1.0,1
1273,22.97,1.47,-8.51,1
1274,22.98,1.56,6.07,1
1275,23.0,-8.32,21.76,1
1276,23.01,-9.3,30.8,1
1277,23.02,4.5,6.07,1
1278,23.04,6.52,-28.35,1
1279,23.05,-6.2,-10.44,1
1280,23.06,-5.94,37.03,1
1281,23.08,3.81,63.38,1
1282,23.09,2.26,65.66,1
1283,23.1,-2.75,42.13,1
1284,23.12,1.65,8.28,1
1285,23.13,4.76,-21.64,1
1286,23.14,-4.96,-44.14,1
1287,23.16,-13.27,-15.55,1
1288,23.17,-6.44,41.12,1
1289,23.19,-1.33,27.1,1
1290,23.2,-6.75,-35.65,1
1291,23.21,-2.65,-45.45,1
1292,23.23,11.71,3.1,1
1293,23.24,15.04,51.81,1
1294,23.25,7.62,61.9,1
1295,23.27,0.69,32.11,1
1296,23.28,-4.09,-7.92,1
1297,23.29,-3.28,-22.83,1
1298,23.31,2.89,4.82,1
1299,23.32,1.06,34.45,1
1300,23.33,-8.73,11.02,1
1301,23.35,-2.45,-14.7,1
1302,23.36,20.02,23.48,1
1303,23.37,23.27,58.04,1
1304,23.39,3.56,34.69,1
1305,23.4,-5.89,17.4,1
1306,23.41,-3.8,23.24,1
1307,23.43,-3.35,11.23,1
1308,23.44,3.74,14.54,1
1309,23.45,13.58,48.73,1
1310,23.46,13.25,40.78,1
1311,23.48,10.19,-12.22,1
1312,23.49,11.42,-30.17,1
1313,23.5,7.16,2.74,1
1314,23.52,-5.05,36.2,1
1315,23.53,-11.59,37.04,1
1316,23.54,-7.73,13.63,1
1317,23.56,-0.34,3.92,1
1318,23.57,4.04,22.05,1
1319,23.58,0.02,29.44,1
1320,23.6,-2.55,10.77,1
1321,23.61,6.36,6.96,1
1322,23.62,11.11,28.11,1
1323,23.64,2.32,35.77,1
1324,23.65,-5.1,23.45,1
1325,23.67,-6.2,12.5,1
1326,23.68,-8.57,7.58,1
1327,23.69,-4.91,6.7,1
1328,23.7,6.71,-9.78,1
1329,23.72,7.74,-38.15,1
1330,23.73,-3.68,-25.68,1
1331,23.75,-7.49,11.71,1
1332,23.76,3.42,1.39,1
1333,23.77,12.08,-44.36,1
1334,23.78,3.62,-45.28,1
1335,23.8,-5.03,7.09,1
1336,23.81,2.28,30.12,1
1337,23.83,10.92,2.12,1
1338,23.84,7.28,-3.1,1
1339,23.85,-4.7,30.7,1
1340,23.87,-14.08,34.65,1
1341,23.88,-9.84,-11.73,1
1342,23.89,1.6,-43.86,1
1343,23.91,0.72,-32.99,1
1344,23.92,-8.6,-30.42,1
1345,23.93,-5.69,-51.13,1
1346,23.95,2.08,-49.4,1
1347,23.96,-2.23,-25.32,1
1348,23.97,-4.07,-2.16,1
1349,23.99,7.73,28.49,1
1350,24.0,14.43,29.42,1
1351,24.01,7.36,-25.37,1
1352,24.03,2.31,-49.45,1
1353,24.04,2.98,-11.57,1
1354,24.05,-1.0,9.22,1
1355,24.07,-4.71,4.96,1
1356,24.08,-0.7,5.19,1
1357,24.09,0.57,-5.93,1
1358,24.1,-5.18,-16.02,1
1359,24.12,-6.61,3.76,1
1360,24.13,-0.3,29.87,1
1361,24.14,4.91,19.09,1
1362,24.16,3.07,-20.45,1
1363,24.17,2.88,-64.59,1
1364,24.18,9.04,-116.95,1
1365,24.2,2.21,-153.0,1
1366,24.21,-15.29,-135.31,1
1367,24.22,-10.01,-101.57,1
1368,24.24,6.6,-109.32,1
1369,24.25,-2.1,-132.01,1
1370,24.26,-15.71,-127.53,1
1371,24.28,-10.13,-103.78,1
1372,24.29,-5.76,-68.51,1
1373,24.3,-8.8,-26.04,1
1374,24.32,-11.04,14.48,1
1375,24.33,-15.85,55.33,1
1376,24.34,-16.02,88.01,1
1377,24.36,-3.75,95.66,1
1378,24.37,8.66,88.1,1
1379,24.38,11.1,89.5,1
1380,24.4,8.17,101.91,1
1381,24.41,7.47,108.11,1
1382,24.42,10.4,100.67,1
1383,24.44,8.26,95.48,1
1384,24.45,-3.55,102.22,1
1385,24.465,-6.62,97.61,1
1386,24.48,9.77,67.27,1
1387,24.49,19.72,34.63,1
1388,24.51,9.94,15.77,1
1389,24.52,4.05,6.93,1
1390,24.53,10.56,9.57,1
1391,24.55,10.42,16.79,1
1392,24.56,-1.49,13.15,1
1393,24.57,-9.28,5.85,1
1394,24.59,-3.5,8.32,1
1395,24.6,2.01,15.16,1
1396,24.61,-5.15,22.18,1
1397,24.63,-10.71,29.22,1
1398,24.64,-5.95,28.35,1
1399,24.65,-3.77,18.64,1
1400,24.67,-5.3,12.89,1
1401,24.68,1.16,21.0,1
1402,24.69,15.67,33.26,1
1403,24.71,19.81,33.24,1
1404,24.72,-2.69,23.71,1
1405,24.73,-26.81,16.87,1
1406,24.75,-13.51,11.84,1
1407,24.76,18.12,5.22,1
1408,24.77,22.37,3.53,1
1409,24.78,3.33,6.88,1
1410,24.8,-8.19,7.78,1
1411,24.81,-5.66,10.34,1
1412,24.82,-1.36,13.8,1
1413,24.84,-2.8,7.52,1
1414,24.85,-9.89,-0.48,1
1415,24.86,-14.18,0.85,1
1416,24.88,-6.16,3.4,1
1417,24.89,6.0,-1.8,1
1418,24.9,9.1,-12.79,1
1419,24.92,6.61,-20.01,1
1420,24.93,5.19,-17.21,1
1421,24.94,1.3,-11.56,1
1422,24.96,-5.1,-9.72,1
1423,24.97,-4.57,-9.95,1
1424,24.98,3.45,-13.11,1
1425,25.0,7.12,-18.71,1
1426,25.01,5.7,-20.73,1
1427,25.02,7.06,-20.44,1
1428,25.04,6.87,-25.26,1
1429,25.05,1.96,-31.98,1
1430,25.06,-0.72,-30.01,1
1431,25.08,-0.46,-22.54,1
1432,25.09,-2.22,-20.23,1
1433,25.1,-7.35,-21.56,1
1434,25.12,-10.16,-20.05,1
1435,25.13,-3.96,-14.27,1
1436,25.15,5.59,-8.8,1
1437,25.16,6.81,-12.52,1
1438,25.17,-0.62,-24.01,1
1439,25.19,-9.07,-27.3,1
1440,25.2,-11.49,-16.78,1
1441,25.21,-4.26,-8.45,1
1442,25.23,2.26,-11.94,1
1443,25.24,-3.39,-19.66,1
1444,25.25,-8.93,-24.57,1
1445,25.27,-1.78,-22.97,1
1446,25.28,4.56,-15.62,1
1447,25.29,2.36,-11.79,1
1448,25.31,7.71,-12.85,1
1449,25.32,22.83,-11.71,1
1450,25.33,23.35,-9.28,1
1451,25.35,1.69,-8.35,1
1452,25.36,-14.6,-4.3,1
1453,25.37,-7.76,0.68,1
1454,25.38,5.75,0.69,1
1455,25.4,8.22,-3.13,1
1456,25.41,3.78,-10.18,1
1457,25.42,2.48,-16.34,1
1458,25.44,-1.55,-12.22,1
1459,25.45,-12.29,-1.43,1
1460,25.46,-10.55,3.46,1
1461,25.48,9.09,-1.47,1
1462,25.49,16.11,-9.46,1
1463,25.5,-5.39,-14.97,1
1464,25.52,-22.66,-21.12,1
1465,25.53,-11.43,-26.84,1
1466,25.54,3.01,-24.88,1
1467,25.56,-0.25,-12.4,1
1468,25.57,-4.9,4.82,1
1469,25.58,0.15,9.23,1
1470,25.6,3.21,-2.44,1
1471,25.61,-3.11,-9.16,1
1472,25.62,-10.92,-2.78,1
1473,25.64,-7.16,5.6,1
1474,25.65,8.56,6.6,1
1475,25.67,16.59,0.14,1
1476,25.68,6.51,-2.78,1
1477,25.69,-7.27,4.07,1
1478,25.7,-9.06,10.82,1
1479,25.72,-0.4,8.71,1
1480,25.73,5.89,2.13,1
1481,25.75,3.74,-0.9,1
1482,25.76,0.11,-1.4,1
1483,25.77,1.32,-4.05,1
1484,25.79,4.36,-5.24,1
1485,25.8,2.8,-2.67,1
1486,25.81,-4.1,-0.77,1
1487,25.83,-10.65,0.65,1
1488,25.84,-10.29,1.03,1
1489,25.85,-3.92,-5.85,1
1490,25.87,0.59,-14.26,1
1491,25.88,-3.77,-9.31,1
1492,25.89,-14.6,3.84,1
1493,25.91,-18.16,9.58,1
1494,25.92,-10.08,10.43,1
1495,25.93,-1.1,12.08,1
1496,25.95,2.07,10.84,1
1497,25.96,0.8,6.64,1
1498,25.97,0.13,-0.11,1
1499,25.99,3.47,-6.39,1
1500,26.0,8.9,-0.87,1
1501,26.01,14.11,11.2,1
1502,26.02,10.77,12.03,1
1503,26.04,-5.31,6.79,1
1504,26.05,-12.88,8.12,1
1505,26.06,5.02,7.94,1
1506,26.08,22.74,-0.23,1
1507,26.09,10.31,-5.73,1
1508,26.1,-12.63,-1.35,1
1509,26.12,-13.09,8.65,1
1510,26.13,-0.58,16.58,1
1511,26.14,1.92,8.32,1
1512,26.16,-4.44,-29.16,1
1513,26.17,-8.34,-81.17,1
1514,26.18,-0.33,-116.33,1
1515,26.2,20.31,-127.27,1
1516,26.21,39.37,-126.57,1
1517,26.22,40.6,-125.03,1
1518,26.24,25.18,-130.58,1
1519,26.25,12.72,-138.01,1
1520,26.26,11.69,-129.71,1
1521,26.28,9.36,-103.68,1
1522,26.29,-0.98,-72.97,1
1523,26.3,-8.04,-37.82,1
1524,26.32,0.45,2.71,1
1525,26.33,14.49,36.11,1
1526,26.34,5.95,63.29,1
1527,26.36,-25.03,88.08,1
1528,26.37,-39.7,94.92,1
1529,26.38,-19.69,94.75,1
1530,26.4,4.76,116.39,1
1531,26.41,3.9,142.89,1
1532,26.43,-13.32,150.66,1
1533,26.44,-21.58,156.74,1
1534,26.45,-16.14,170.1,1
1535,26.47,-8.0,172.74,1
1536,26.48,0.81,161.1,1
1537,26.49,2.51,146.81,1
1538,26.51,-12.85,133.17,1
1539,26.52,-22.13,122.69,1
1540,26.53,-6.11,114.37,1
1541,26.55,6.55,98.72,1
1542,26.56,-5.78,79.84,1
1543,26.57,-19.06,71.87,1
1544,26.59,-12.44,71.75,1
1545,26.6,2.91,65.54,1
1546,26.61,11.16,54.28,1
1547,26.63,7.76,47.59,1
1548,26.64,-3.46,40.95,1
1549,26.65,-15.82,25.5,1
1550,26.67,-19.0,9.39,1
1551,26.68,-6.76,5.3,1
1552,26.69,4.7,11.56,1
1553,26.7,0.93,16.17,1
1554,26.72,-3.85,8.64,1
1555,26.73,-0.32,-9.65,1
1556,26.75,5.69,-24.06,1
1557,26.76,14.58,-22.05,1
1558,26.77,18.54,-10.84,1
1559,26.78,8.69,-10.25,1
1560,26.8,0.06,-26.6,1
1561,26.81,5.11,-45.02,1
1562,26.82,12.3,-44.63,1
1563,26.84,7.63,-27.49,1
1564,26.85,-4.73,-24.23,1
1565,26.86,-7.6,-41.04,1
1566,26.88,0.5,-48.09,1
1567,26.89,-2.55,-42.64,1
1568,26.9,-18.13,-48.44,1
1569,26.92,-17.89,-59.34,1
1570,26.93,-0.1,-51.64,1
1571,26.94,7.53,-34.68,1
1572,26.96,-0.19,-34.58,1
1573,26.97,-1.66,-43.55,1
1574,26.98,8.56,-43.22,1
1575,27.0,9.12,-43.69,1
1576,27.01,-4.43,-46.47,1
1577,27.02,-10.39,-38.99,1
1578,27.04,-4.59,-34.17,1
1579,27.05,-0.64,-45.03,1
1580,27.06,4.78,-56.45,1
1581,27.08,17.46,-55.14,1
1582,27.09,22.09,-45.9,1
1583,27.11,14.61,-38.26,1
1584,27.12,12.08,-38.21,1
1585,27.13,14.02,-42.83,1
1586,27.15,6.28,-39.91,1
1587,27.16,-7.49,-24.12,1
1588,27.17,-12.32,-16.09,1
1589,27.19,-6.2,-38.21,1
1590,27.2,-0.98,-62.7,1
1591,27.21,0.25,-49.45,1
1592,27.23,5.77,-22.5,1
1593,27.24,9.9,-23.43,1
1594,27.25,0.14,-38.39,1
1595,27.27,-11.48,-37.49,1
1596,27.28,-7.67,-23.36,1
1597,27.29,1.8,-14.93,1
1598,27.3,3.78,-20.12,1
1599,27.32,4.7,-26.8,1
1600,27.33,12.51,-23.29,1
1601,27.34,18.35,-19.45,1
1602,27.36,6.98,-24.7,1
1603,27.37,-13.31,-27.42,1
1604,27.38,-14.83,-17.26,1
1605,27.4,-0.27,-7.87,1
1606,27.41,-0.1,-14.56,1
1607,27.42,-10.19,-26.34,1
1608,27.44,-3.54,-24.57,1
1609,27.45,8.82,-12.42,1
1610,27.46,8.29,-4.56,1
1611,27.48,8.16,-4.95,1
1612,27.49,13.27,-8.43,1
1613,27.5,10.83,-11.83,1
1614,27.52,4.5,-12.98,1
1615,27.53,3.33,-8.61,1
1616,27.54,3.75,-0.14,1
1617,27.56,-0.4,4.76,1
1618,27.57,-11.87,1.87,1
1619,27.58,-21.53,-3.73,1
1620,27.6,-15.2,-5.44,1
1621,27.61,3.9,-2.65,1
1622,27.62,21.91,3.63,1
1623,27.64,26.14,10.17,1
1624,27.65,11.79,10.63,1
1625,27.67,-2.74,7.53,1
1626,27.68,-0.19,6.47,1
1627,27.69,5.6,7.13,1
1628,27.7,3.82,9.53,1
1629,27.72,6.75,11.8,1
1630,27.73,13.2,11.73,1
1631,27.75,4.99,12.86,1
1632,27.76,-13.6,13.21,1
1633,27.77,-20.47,7.84,1
1634,27.79,-15.72,7.4,1
1635,27.8,-11.78,18.09,1
1636,27.81,-5.75,25.2,1
1637,27.83,2.58,20.27,1
1638,27.84,4.93,15.26,1
1639,27.85,5.13,20.01,1
1640,27.87,5.85,26.17,1
1641,27.88,-0.34,24.13,1
1642,27.89,-9.43,19.54,1
1643,27.91,-15.29,20.94,1
1644,27.92,-17.41,23.57,1
1645,27.93,-7.59,18.2,1
1646,27.94,10.88,6.78,1
1647,27.96,17.01,0.23,1
1648,27.97,5.74,8.59,1
1649,27.98,-7.89,26.72,1
1650,28.0,-12.11,36.49,1
1651,28.01,-9.31,34.25,1
1652,28.02,-7.08,30.58,1
1653,28.04,-5.34,24.55,1
1654,28.05,-3.05,14.17,1
1655,28.06,-3.51,12.34,1
1656,28.08,-4.02,17.48,1
1657,28.09,-3.82,15.49,1
1658,28.1,-4.42,13.09,1
1659,28.12,-1.94,21.82,1
1660,28.13,-1.04,32.92,1
1661,28.14,-5.34,36.12,1
1662,28.16,-1.51,34.54,1
1663,28.17,12.78,32.92,1
1664,28.18,18.29,35.97,1
1665,28.2,6.04,64.43,1
1666,28.21,-10.67,142.09,1
1667,28.22,-14.02,239.6,1
1668,28.24,-5.28,284.69,1
1669,28.25,-3.08,254.59,1
1670,28.26,-13.01,194.07,1
1671,28.28,-21.45,145.15,1
1672,28.29,-16.66,103.92,1
1673,28.3,-4.08,47.18,1
1674,28.32,-3.32,-18.97,1
1675,28.33,-12.44,-73.4,1
1676,28.34,-6.99,-118.22,1
1677,28.36,11.22,-161.61,1
1678,28.37,17.53,-193.21,1
1679,28.39,9.03,-200.68,1
1680,28.4,4.58,-187.96,1
1681,28.41,7.98,-163.66,1
1682,28.43,5.8,-139.93,1
1683,28.44,-2.36,-129.45,1
1684,28.45,-5.39,-124.82,1
1685,28.47,-1.01,-108.02,1
1686,28.48,5.4,-82.08,1
1687,28.49,9.04,-66.89,1
1688,28.51,6.87,-67.48,1
1689,28.52,0.74,-69.97,1
1690,28.53,2.4,-63.57,1
1691,28.55,13.7,-53.66,1
1692,28.56,20.81,-52.52,1
1693,28.57,21.66,-57.27,1
1694,28.58,17.92,-58.55,1
1695,28.6,2.76,-62.19,1
1696,28.61,-11.5,-67.17,1
1697,28.62,-7.49,-62.39,1
1698,28.64,-0.09,-50.92,1
1699,28.65,-6.19,-37.84,1
1700,28.67,-12.23,-21.56,1
1701,28.68,-6.24,-6.56,1
1702,28.69,4.07,1.44,1
1703,28.7,10.43,3.37,1
1704,28.72,7.08,4.83,1
1705,28.73,-3.55,7.08,1
1706,28.75,-4.67,6.84,1
1707,28.76,5.51,9.88,1
1708,28.77,7.59,22.0,1
1709,28.78,0.68,33.05,1
1710,28.8,0.76,35.21,1
1711,28.81,2.71,35.61,1
1712,28.82,-3.15,38.59,1
1713,28.84,-5.73,39.07,1
1714,28.85,4.44,35.16,1
1715,28.86,16.44,32.52,1
1716,28.88,16.04,34.53,1
1717,28.89,4.6,36.7,1
1718,28.9,-8.06,35.43,1
1719,28.92,-12.73,35.04,1
1720,28.93,-7.01,41.23,1
1721,28.94,1.2,48.66,1
1722,28.96,7.41,46.89,1
1723,28.97,8.91,38.35,1
1724,28.98,2.07,33.88,1
1725,29.0,-4.59,37.05,1
1726,29.01,-2.54,46.84,1
1727,29.03,2.95,55.22,1
1728,29.04,4.61,48.33,1
1729,29.05,0.14,32.89,1
1730,29.07,-6.68,29.46,1
1731,29.08,-7.13,33.26,1
1732,29.09,1.2,27.3,1
1733,29.11,7.33,17.41,1
1734,29.12,5.2,14.67,1
1735,29.13,5.41,19.96,1
1736,29.15,7.73,27.14,1
1737,29.16,0.62,28.31,1
1738,29.17,-7.59,26.11,1
1739,29.19,-7.03,23.74,1
1740,29.2,-8.26,19.47,1
1741,29.21,-15.72,16.42,1
1742,29.22,-19.14,12.34,1
1743,29.24,-14.73,2.55,1
1744,29.25,-6.75,-2.95,1
1745,29.26,-1.12,5.52,1
1746,29.28,-8.01,14.46,1
1747,29.29,-24.24,11.91,1
1748,29.3,-25.95,8.87,1
1749,29.32,-9.42,11.8,1
1750,29.33,-1.0,10.31,1
1751,29.34,-5.67,3.23,1
1752,29.36,-5.7,-0.02,1
1753,29.37,1.38,2.8,1
1754,29.38,8.49,8.12,1
1755,29.4,7.68,8.7,1
1756,29.41,-4.09,1.12,1
1757,29.42,-11.52,-5.72,1
1758,29.44,-4.27,-6.91,1
1759,29.45,5.52,-2.86,1
1760,29.46,7.97,8.88,1
1761,29.48,6.58,15.77,1
1762,29.49,2.85,3.71,1
1763,29.5,-2.25,-9.33,1
1764,29.52,-0.53,-3.2,1
1765,29.53,7.58,6.11,1
1766,29.54,7.15,-1.43,1
1767,29.56,-4.1,-10.58,1
1768,29.57,-9.59,-4.99,1
1769,29.58,-4.45,-1.07,1
1770,29.6,1.31,-10.2,1
1771,29.61,2.34,-18.04,1
1772,29.62,0.14,-16.26,1
1773,29.64,2.38,-10.82,1
1774,29.65,9.64,-5.65,1
1775,29.67,7.79,-3.19,1
1776,29.68,-0.64,-3.65,1
1777,29.69,3.5,-2.62,1
1778,29.71,14.17,-4.86,1
1779,29.72,12.88,-18.96,1
1780,29.73,5.3,-29.92,1
1781,29.75,0.42,-17.57,1
1782,29.76,-5.35,4.67,1
1783,29.77,-10.37,7.85,1
1784,29.79,-8.9,-7.83,1
1785,29.8,-0.38,-19.2,1
1786,29.81,13.11,-17.51,1
1787,29.83,26.88,-12.27,1
1788,29.84,28.59,-9.8,1
1789,29.85,6.82,-10.13,1
1790,29.86,-20.08,-13.75,1
1791,29.88,-21.3,-20.24,1
1792,29.89,-3.92,-24.49,1
1793,29.9,3.37,-18.82,1
1794,29.92,0.37,-6.76,1
1795,29.93,4.0,-1.52,1
1796,29.94,12.35,-6.32,1
1797,29.96,12.98,-14.02,1
1798,29.97,2.92,-18.34,1
1799,29.98,-9.44,-14.9,1
1800,30.0,-9.83,-7.94,1
1801,30.01,2.27,-8.4,1
1802,30.02,9.18,-13.46,1
1803,30.04,2.34,-8.15,1
1804,30.05,-7.05,5.04,1
1805,30.06,-6.61,6.13,1
1806,30.08,-3.14,-5.23,1
1807,30.09,-8.17,-11.52,1
1808,30.1,-11.42,-12.84,1
1809,30.12,-3.29,-14.41,1
1810,30.13,6.5,-6.66,1
1811,30.14,8.42,4.08,1
1812,30.16,3.07,-0.23,1
1813,30.17,-1.24,-13.75,1
1814,30.18,-2.26,-10.64,1
1815,30.2,-3.31,47.32,1
1816,30.21,13.52,141.58,1
1817,30.22,49.13,162.36,1
1818,30.24,53.47,111.85,1
1819,30.25,9.45,116.5,1
1820,30.26,-30.55,140.21,1
1821,30.28,-33.29,51.23,1
1822,30.29,-20.65,-85.3,1
1823,30.3,-17.29,-86.9,1
1824,30.32,-22.95,17.86,1
1825,30.33,-24.48,13.12,1
1826,30.35,-14.99,-101.3,1
1827,30.36,-4.45,-128.7,1
1828,30.37,0.87,-63.22,1
1829,30.39,9.34,-35.2,1
1830,30.4,13.37,-56.1,1
1831,30.41,3.98,-58.14,1
1832,30.43,-2.92,-44.04,1
1833,30.44,-6.59,-78.93,1
1834,30.45,-17.24,-106.2,1
1835,30.47,-17.12,-30.89,1
1836,30.48,2.08,32.83,1
1837,30.49,19.32,-16.0,1
1838,30.5,19.05,-65.34,1
1839,30.52,6.45,-43.54,1
1840,30.53,3.1,-23.97,1
1841,30.54,17.48,-30.36,1
1842,30.56,24.94,-7.25,1
1843,30.57,14.88,20.85,1
1844,30.58,13.6,9.24,1
1845,30.6,24.72,-1.47,1
1846,30.61,16.45,-6.35,1
1847,30.62,-13.54,-29.34,1
1848,30.64,-26.95,-26.77,1
1849,30.65,-8.34,-4.17,1
1850,30.67,12.02,-12.0,1
1851,30.68,8.45,-19.11,1
1852,30.69,-7.52,-10.3,1
1853,30.7,-10.42,-12.47,1
1854,30.72,3.0,2.95,1
1855,30.73,7.04,22.52,1
1856,30.75,-4.19,-3.61,1
1857,30.76,-1.81,-21.28,1
1858,30.77,14.47,12.91,1
1859,30.78,13.37,33.46,1
1860,30.8,-1.27,5.61,1
1861,30.81,-4.03,-27.83,1
1862,30.82,-2.25,-40.26,1
1863,30.84,-9.31,-40.84,1
1864,30.85,-13.89,-16.07,1
1865,30.86,-11.11,35.58,1
1866,30.88,-4.96,34.6,1
1867,30.89,2.57,-38.27,1
1868,30.9,2.11,-64.61,1
1869,30.92,-3.46,-10.12,1
1870,30.93,0.49,35.05,1
1871,30.94,5.64,35.0,1
1872,30.96,1.17,15.14,1
1873,30.97,0.16,17.02,1
1874,30.99,4.51,51.8,1
1875,31.0,1.33,67.12,1
1876,31.01,-0.96,43.92,1
1877,31.03,7.62,16.98,1
1878,31.04,12.16,-0.92,1
1879,31.05,4.39,-10.55,1
1880,31.07,-6.28,-18.24,1
1881,31.08,-15.29,-22.04,1
1882,31.09,-20.5,-1.12,1
1883,31.11,-16.27,20.26,1
1884,31.12,-4.04,5.84,1
1885,31.13,3.6,-14.54,1
1886,31.14,-0.07,-17.28,1
1887,31.16,-1.53,-11.65,1
1888,31.17,5.13,14.83,1
1889,31.18,1.57,50.85,1
1890,31.2,-13.76,58.01,1
1891,31.21,-20.19,51.54,1
1892,31.22,-15.33,60.59,1
1893,31.24,-14.21,50.0,1
1894,31.25,-12.54,-2.22,1
1895,31.26,6.95,-39.97,1
1896,31.28,27.42,-30.61,1
1897,31.29,17.53,-4.11,1
1898,31.3,-6.47,17.11,1
1899,31.32,-12.87,28.13,1
1900,31.33,-7.37,28.57,1
1901,31.34,-3.52,19.91,1
1902,31.36,0.15,-0.92,1
1903,31.37,-1.42,-12.3,1
1904,31.38,-7.56,11.47,1
1905,31.4,-1.37,25.53,1
1906,31.41,13.19,-9.39,1
1907,31.42,9.34,-39.72,1
1908,31.44,-18.21,-30.34,1
1909,31.45,-34.71,-14.94,1
1910,31.46,-10.57,-12.48,1
1911,31.48,20.13,-10.74,1
1912,31.49,10.53,-9.84,1
1913,31.5,-17.78,-16.83,1
1914,31.52,-24.33,-8.54,1
1915,31.53,-10.6,11.04,1
1916,31.54,10.05,-11.75,1
1917,31.56,23.47,-49.61,1
1918,31.57,15.14,-25.65,1
1919,31.58,1.81,19.62,1
1920,31.6,4.02,17.71,1
1921,31.61,4.43,-2.2,1
1922,31.63,-1.56,-12.87,1
1923,31.64,8.55,-18.18,1
1924,31.65,25.52,-0.19,1
1925,31.67,23.27,10.39,1
1926,31.68,6.45,-27.91,1
1927,31.69,-3.17,-44.11,1
1928,31.71,-2.62,12.6,1
1929,31.72,-7.92,65.93,1
1930,31.73,-15.36,64.01,1
1931,31.75,-7.3,47.44,1
1932,31.76,6.34,52.27,1
1933,31.77,7.59,38.98,1
1934,31.78,0.78,-18.69,1
1935,31.8,-1.26,-34.43,1
1936,31.81,4.77,10.97,1
1937,31.82,9.07,10.83,1
1938,31.84,3.92,-18.58,1
1939,31.85,-3.22,6.7,1
1940,31.86,-5.18,40.88,1
1941,31.88,-3.77,43.91,1
1942,31.89,0.7,57.64,1
1943,31.9,2.87,58.98,1
1944,31.92,-5.43,-1.83,1
1945,31.93,-12.44,-51.64,1
1946,31.94,-5.4,-10.27,1
1947,31.96,2.6,51.75,1
1948,31.97,-0.69,46.37,1
1949,31.98,-6.63,4.2,1
1950,32.0,-4.44,-13.4,1
1951,32.01,5.54,-0.06,1
1952,32.03,11.11,-2.72,1
1953,32.04,-0.14,-45.08,1
1954,32.05,-11.26,-55.57,1
1955,32.06,2.64,1.99,1
1956,32.08,19.11,45.79,1
1957,32.09,6.13,31.84,1
1958,32.11,-16.78,17.59,1
1959,32.12,-15.01,42.89,1
1960,32.13,9.35,60.06,1
1961,32.15,22.26,23.45,1
1962,32.16,3.9,-16.49,1
1963,32.17,-15.32,-31.3,1
1964,32.19,-5.98,-81.01,1
1965,32.2,6.51,-149.74,1
1966,32.21,-4.76,-144.95,1
1967,32.22,-17.71,-68.36,1
1968,32.24,-9.32,-10.62,1
1969,32.25,10.29,-26.74,1
1970,32.27,23.85,-89.9,1
1971,32.28,23.73,-133.38,1
1972,32.29,16.39,-120.72,1
1973,32.31,11.49,-70.34,1
1974,32.32,2.88,-17.76,1
1975,32.33,-11.29,15.06,1
1976,32.35,-11.84,23.34,1
1977,32.36,4.14,21.95,1
1978,32.37,10.65,32.01,1
1979,32.39,1.92,54.95,1
1980,32.4,-1.7,72.59,1
1981,32.41,0.16,73.5,1
1982,32.43,-6.66,64.88,1
1983,32.44,-16.0,62.31,1
1984,32.45,-10.76,69.59,1
1985,32.47,5.41,72.41,1
1986,32.48,14.64,63.57,1
1987,32.49,12.99,50.33,1
1988,32.51,6.35,36.09,1
1989,32.52,-1.55,27.35,1
1990,32.53,-3.57,31.84,1
1991,32.54,3.19,38.47,1
1992,32.56,10.59,32.96,1
1993,32.57,14.33,23.87,1
1994,32.59,19.15,22.58,1
1995,32.6,21.51,18.79,1
1996,32.61,8.39,8.34,1
1997,32.63,-13.41,11.51,1
1998,32.64,-19.77,26.52,1
1999,32.65,-10.53,28.51,1
2000,32.67,-5.83,23.85,1
2001,32.68,-9.14,26.1,1
2002,32.69,-13.39,23.22,1
2003,32.71,-16.87,14.04,1
2004,32.72,-14.21,8.1,1
2005,32.73,-4.76,2.85,1
2006,32.75,-1.44,0.18,1
2007,32.76,-9.84,5.07,1
2008,32.77,-16.71,10.54,1
2009,32.79,-11.98,8.82,1
2010,32.8,-0.93,2.26,1
2011,32.81,11.07,0.84,1
2012,32.83,18.61,10.65,1
2013,32.84,15.27,21.9,1
2014,32.85,6.25,22.76,1
2015,32.87,-3.22,13.03,1
2016,32.88,-17.02,-0.81,1
2017,32.89,-24.96,-6.13,1
2018,32.9,-14.64,1.25,1
2019,32.92,-2.81,5.89,1
2020,32.93,-3.23,0.42,1
2021,32.95,-0.8,-4.24,1
2022,32.96,6.85,-5.54,1
2023,32.97,5.56,-9.86,1
2024,32.99,1.51,-16.01,1
2025,33.0,3.09,-18.23,1
2026,33.01,7.68,-14.87,1
2027,33.03,14.61,-10.73,1
2028,33.04,14.22,-11.08,1
2029,33.05,0.87,-13.73,1
2030,33.06,-11.14,-12.82,1
2031,33.08,-12.38,-6.9,1
2032,33.09,-8.81,-2.26,1
2033,33.11,-5.52,-7.65,1
2034,33.12,-2.7,-15.48,1
2035,33.13,-1.46,-13.22,1
2036,33.15,-3.38,-12.44,1
2037,33.16,-4.36,-26.68,1
2038,33.17,3.82,-39.35,1
2039,33.19,16.93,-33.16,1
2040,33.2,16.4,-21.22,1
2041,33.21,-0.16,-18.54,1
2042,33.22,-12.26,-19.84,1
2043,33.24,-7.66,-20.28,1
2044,33.25,3.09,-20.1,1
2045,33.27,8.01,-15.54,1
2046,33.28,10.58,-10.62,1
2047,33.29,11.26,-14.18,1
2048,33.31,3.38,-20.03,1
2049,33.32,-6.15,-18.68,1
2050,33.33,-6.99,-16.74,1
2051,33.35,-1.39,-19.19,1
2052,33.36,4.6,-18.26,1
2053,33.37,7.34,-13.13,1
2054,33.38,4.1,-16.28,1
2055,33.4,-0.48,-28.92,1
2056,33.41,2.96,-34.38,1
2057,33.43,10.25,-26.03,1
2058,33.44,8.68,-16.37,1
2059,33.45,1.45,-15.03,1
2060,33.47,-0.43,-16.55,1
2061,33.48,-3.47,-10.39,1
2062,33.49,-12.91,2.2,1
2063,33.51,-11.98,2.79,1
2064,33.52,4.03,-14.18,1
2065,33.53,14.99,-24.6,1
2066,33.54,12.34,-17.55,1
2067,33.56,4.43,-11.17,1
2068,33.57,-3.53,-11.76,1
2069,33.59,-9.98,-10.43,1
2070,33.6,-12.78,-7.07,1
2071,33.61,-11.04,-6.38,1
2072,33.63,-4.58,-9.21,1
2073,33.64,7.07,-13.36,1
2074,33.65,12.09,-13.77,1
2075,33.67,1.25,-7.44,1
2076,33.68,-6.75,-1.57,1
2077,33.69,-0.63,-5.24,1
2078,33.71,4.81,-14.75,1
2079,33.72,5.76,-19.45,1
2080,33.73,9.42,-14.0,1
2081,33.75,11.11,-2.68,1
2082,33.76,4.17,3.68,1
2083,33.77,-8.45,2.78,1
2084,33.79,-16.03,1.73,1
2085,33.8,-11.08,0.81,1
2086,33.81,-2.94,-2.49,1
2087,33.83,-4.8,-2.23,1
2088,33.84,-9.54,3.87,1
2089,33.85,-3.54,7.32,1
2090,33.87,7.77,5.81,1
2091,33.88,10.47,3.01,1
2092,33.89,1.89,-1.53,1
2093,33.9,-7.47,-3.32,1
2094,33.92,-6.9,-0.69,1
2095,33.93,-0.83,-3.24,1
2096,33.95,3.3,-6.63,1
2097,33.96,8.82,2.16,1
2098,33.97,11.11,13.24,1
2099,33.99,0.92,12.83,1
2100,34.0,-11.33,7.64,1
2101,34.01,-12.62,5.89,1
2102,34.03,-7.44,5.8,1
2103,34.04,0.16,5.92,1
2104,34.05,10.58,8.56,1
2105,34.06,13.67,9.18,1
2106,34.08,4.29,2.83,1
2107,34.09,-5.53,2.41,1
2108,34.11,-7.91,12.51,1
2109,34.12,-8.39,13.59,1
2110,34.13,-8.71,7.67,1
2111,34.15,-5.23,12.14,1
2112,34.16,-0.44,19.09,1
2113,34.17,1.82,21.03,1
2114,34.19,0.58,13.77,1
2115,34.2,-2.5,-25.86,1
2116,34.21,-1.14,-87.24,1
2117,34.23,4.38,-121.23,1
2118,34.24,6.71,-124.45,1
2119,34.25,5.9,-125.44,1
2120,34.27,4.85,-123.47,1
2121,34.28,5.54,-114.25,1
2122,34.29,10.18,-107.39,1
2123,34.31,17.24,-104.8,1
2124,34.32,21.94,-94.63,1
2125,34.33,17.73,-69.57,1
2126,34.35,6.93,-38.74,1
2127,34.36,-2.07,-8.2,1
2128,34.37,-10.05,21.97,1
2129,34.38,-11.05,43.11,1
2130,34.4,2.97,50.71,1
2131,34.41,11.34,55.27,1
2132,34.43,-1.44,70.51,1
2133,34.44,-10.3,97.52,1
2134,34.45,-5.68,121.26,1
2135,34.47,-5.66,129.63,1
2136,34.48,-5.76,131.72,1
2137,34.49,-0.28,140.3,1
2138,34.51,-5.35,145.06,1
2139,34.52,-17.97,136.2,1
2140,34.53,-18.54,128.72,1
2141,34.54,-9.57,132.52,1
2142,34.56,-6.1,137.55,1
2143,34.57,-7.48,135.1,1
2144,34.59,-7.77,126.92,1
2145,34.6,-9.23,119.43,1
2146,34.61,-7.59,111.92,1
2147,34.63,2.0,97.33,1
2148,34.64,9.65,77.38,1
2149,34.65,10.45,64.16,1
2150,34.67,12.08,65.29,1
2151,34.68,9.54,67.75,1
2152,34.69,-7.49,53.81,1
2153,34.71,-28.46,31.23,1
2154,34.72,-30.27,19.31,1
2155,34.73,-12.09,20.43,1
2156,34.75,-2.48,24.17,1
2157,34.76,-10.73,22.6,1
2158,34.77,-11.86,14.04,1
2159,34.79,-1.18,0.81,1
2160,34.8,2.83,-10.69,1
2161,34.81,0.8,-15.75,1
2162,34.83,4.83,-15.8,1
2163,34.84,12.3,-16.88,1
2164,34.85,12.42,-22.9,1
2165,34.87,7.08,-28.73,1
2166,34.88,6.63,-31.31,1
2167,34.89,9.1,-36.61,1
2168,34.91,4.13,-40.75,1
2169,34.92,-5.53,-34.39,1
2170,34.93,-5.8,-31.52,1
2171,34.95,1.79,-44.4,1
2172,34.96,2.62,-54.29,1
2173,34.97,1.33,-49.78,1
2174,34.99,6.26,-44.74,1
2175,35.0,9.27,-48.83,1
2176,35.01,9.74,-56.07,1
2177,35.03,11.84,-56.02,1
2178,35.04,9.22,-48.7,1
2179,35.05,0.61,-42.73,1
2180,35.06,-5.08,-42.09,1
2181,35.08,-4.22,-45.02,1
2182,35.09,-3.18,-49.43,1
2183,35.11,-7.36,-54.84,1
2184,35.12,-10.22,-57.52,1
2185,35.13,-4.15,-55.37,1
2186,35.15,3.05,-54.65,1
2187,35.16,5.33,-56.63,1
2188,35.17,10.01,-57.07,1
2189,35.19,16.18,-57.12,1
2190,35.2,12.42,-56.05,1
2191,35.21,0.62,-50.89,1
2192,35.22,-4.22,-44.84,1
2193,35.24,-0.32,-42.18,1
2194,35.25,-0.56,-42.32,1
2195,35.27,-3.98,-40.41,1
2196,35.28,0.65,-33.74,1
2197,35.29,7.82,-26.37,1
2198,35.31,8.88,-24.05,1
2199,35.32,9.4,-26.66,1
2200,35.33,7.32,-30.85,1
2201,35.35,-3.78,-35.14,1
2202,35.36,-11.46,-38.54,1
2203,35.37,-5.13,-39.11,1
2204,35.38,1.22,-34.03,1
2205,35.4,-5.37,-25.3,1
2206,35.41,-9.81,-20.86,1
2207,35.43,4.72,-23.34,1
2208,35.44,23.57,-23.74,1
2209,35.45,23.12,-14.5,1
2210,35.47,7.7,-3.33,1
2211,35.48,-0.85,0.05,1
2212,35.49,0.8,-1.89,1
2213,35.51,-2.67,-3.19,1
2214,35.52,-11.93,-0.44,1
2215,35.53,-15.17,3.63,1
2216,35.55,-11.28,0.09,1
2217,35.56,-5.93,-7.81,1
2218,35.57,3.3,-6.31,1
2219,35.59,16.49,3.99,1
2220,35.6,17.31,10.76,1
2221,35.61,1.14,12.12,1
2222,35.63,-10.23,10.96,1
2223,35.64,-6.83,4.18,1
2224,35.65,2.05,-4.83,1
2225,35.67,10.46,-3.93,1
2226,35.68,15.1,7.65,1
2227,35.69,8.32,13.26,1
2228,35.71,-8.05,6.42,1
2229,35.72,-13.88,6.36,1
2230,35.73,-0.62,20.39,1
2231,35.75,9.95,26.1,1
2232,35.76,4.8,13.57,1
2233,35.77,0.33,2.5,1
2234,35.79,1.5,3.95,1
2235,35.8,-0.06,7.97,1
2236,35.81,0.53,11.25,1
2237,35.83,-1.35,17.18,1
2238,35.84,-17.47,21.25,1
2239,35.85,-31.29,20.44,1
2240,35.87,-24.97,17.59,1
2241,35.88,-10.87,16.82,1
2242,35.89,-3.87,19.33,1
2243,35.9,-2.26,20.43,1
2244,35.92,-0.38,20.67,1
2245,35.93,1.81,23.21,1
2246,35.95,1.93,25.53,1
2247,35.96,1.3,26.05,1
2248,35.97,1.84,23.32,1
2249,35.99,6.48,19.31,1
2250,36.0,16.41,22.56,1
2251,36.01,15.81,29.28,1
2252,36.03,-6.23,27.64,1
2253,36.04,-24.14,21.06,1
2254,36.05,-17.9,18.39,1
2255,36.06,-9.36,18.35,1
2256,36.08,-8.49,19.29,1
2257,36.09,2.23,21.44,1
2258,36.11,12.32,20.78,1
2259,36.12,2.75,16.97,1
2260,36.13,-4.46,15.85,1
2261,36.15,7.03,21.5,1
2262,36.16,14.78,28.96,1
2263,36.17,12.14,37.02,1
2264,36.19,14.9,70.22,1
2265,36.2,20.96,148.05,1
2266,36.21,16.48,237.26,1
2267,36.23,-8.01,280.61,1
2268,36.24,-43.58,256.68,1
2269,36.25,-58.42,193.28,1
2270,36.27,-37.15,131.73,1
2271,36.28,-0.39,80.44,1
2272,36.29,21.17,28.08,1
2273,36.31,17.6,-19.72,1
2274,36.32,10.38,-57.24,1
2275,36.33,18.34,-98.02,1
2276,36.35,23.9,-145.68,1
2277,36.36,12.37,-177.03,1
2278,36.37,4.86,-175.46,1
2279,36.38,14.08,-157.37,1
2280,36.4,17.17,-145.07,1
2281,36.41,0.14,-137.86,1
2282,36.43,-16.37,-127.72,1
2283,36.44,-11.44,-116.55,1
2284,36.45,2.17,-104.77,1
2285,36.47,4.33,-86.98,1
2286,36.48,2.07,-70.7,1
2287,36.49,3.07,-73.43,1
2288,36.51,0.22,-85.82,1
2289,36.52,-0.46,-81.86,1
2290,36.53,8.96,-63.48,1
2291,36.54,16.38,-54.27,1
2292,36.56,10.51,-56.35,1
2293,36.57,-4.82,-53.29,1
2294,36.59,-15.05,-44.35,1
2295,36.6,-11.75,-40.71,1
2296,36.61,-5.37,-36.08,1
2297,36.63,-3.81,-24.59,1
2298,36.64,-2.41,-17.25,1
2299,36.65,0.7,-15.76,1
2300,36.67,2.15,-11.92,1
2301,36.68,-3.2,-11.29,1
2302,36.69,-12.5,-13.77,1
2303,36.71,-8.84,-5.57,1
2304,36.72,10.13,9.34,1
2305,36.73,17.31,13.29,1
2306,36.75,1.75,5.72,1
2307,36.76,-8.63,3.36,1
2308,36.77,2.33,16.08,1
2309,36.79,14.23,31.87,1
2310,36.8,7.9,33.25,1
2311,36.81,-8.26,24.85,1
2312,36.83,-12.37,22.84,1
2313,36.84,-0.18,27.17,1
2314,36.85,6.23,29.79,1
2315,36.87,-2.66,32.53,1
2316,36.88,-4.96,37.84,1
2317,36.89,9.95,41.14,1
2318,36.9,19.82,42.02,1
2319,36.92,8.69,45.05,1
2320,36.93,-9.17,43.0,1
2321,36.95,-13.72,27.26,1
2322,36.96,-7.14,15.54,1
2323,36.97,-2.02,25.5,1
2324,36.99,0.37,40.38,1
2325,37.0,4.13,39.56,1
2326,37.01,7.3,31.94,1
2327,37.03,4.11,31.31,1
2328,37.04,-5.43,33.64,1
2329,37.05,-11.04,33.04,1
2330,37.06,-9.17,31.42,1
2331,37.08,-7.85,30.61,1
2332,37.09,-4.81,28.96,1
2333,37.11,5.99,25.31,1
2334,37.12,10.92,20.23,1
2335,37.13,0.62,17.46,1
2336,37.15,-5.37,19.8,1
2337,37.16,5.99,23.23,1
2338,37.17,14.12,19.32,1
2339,37.19,2.04,11.4,1
2340,37.2,-11.37,14.27,1
2341,37.21,-10.03,24.15,1
2342,37.22,-8.4,24.06,1
2343,37.24,-11.53,17.5,1
2344,37.25,-11.1,14.48,1
2345,37.27,-12.79,13.4,1
2346,37.28,-16.16,14.77,1
2347,37.29,-8.92,16.79,1
2348,37.31,5.35,14.25,1
2349,37.32,10.9,14.51,1
2350,37.33,3.64,19.27,1
2351,37.35,-3.7,17.2,1
2352,37.36,-0.04,11.41,1
2353,37.37,6.71,10.53,1
2354,37.38,4.35,9.78,1
2355,37.4,0.01,7.28,1
2356,37.41,4.5,8.91,1
2357,37.43,7.78,10.11,1
2358,37.44,2.88,6.03,1
2359,37.45,-0.47,5.84,1
2360,37.47,-3.43,9.74,1
2361,37.48,-11.92,1.26,1
2362,37.49,-12.22,-17.81,1
2363,37.51,4.22,-21.54,1
2364,37.52,18.0,-7.69,1
2365,37.53,13.77,-3.55,1
2366,37.54,2.88,-11.2,1
2367,37.56,-1.45,-9.37,1
2368,37.57,-1.84,-2.83,1
2369,37.59,-2.46,-6.43,1
2370,37.6,-0.62,-12.59,1
2371,37.61,3.57,-13.04,1
2372,37.63,0.69,-9.42,1
2373,37.64,-10.23,-4.21,1
2374,37.65,-9.89,0.85,1
2375,37.67,4.92,1.84,1
2376,37.68,9.21,-7.6,1
2377,37.69,-0.43,-20.31,1
2378,37.71,-4.3,-20.62,1
2379,37.72,-3.33,-12.41,1
2380,37.73,-7.45,-6.75,1
2381,37.75,-8.48,-7.16,1
2382,37.76,-0.98,-15.32,1
2383,37.77,3.05,-23.21,1
2384,37.79,-1.42,-22.06,1
2385,37.8,-5.6,-14.94,1
2386,37.81,-4.64,-6.2,1
2387,37.83,-0.02,-2.16,1
2388,37.84,5.56,-7.48,1
2389,37.85,9.27,-13.85,1
2390,37.87,8.72,-15.5,1
2391,37.88,2.21,-17.89,1
2392,37.89,-4.08,-21.23,1
2393,37.9,0.18,-19.59,1
2394,37.92,10.53,-13.18,1
2395,37.93,14.73,-7.2,1
2396,37.95,9.58,-3.01,1
2397,37.96,-0.27,2.24,1
2398,37.97,-6.12,5.73,1
2399,37.99,-4.2,1.14,1
2400,38.0,-3.26,-7.0,1
2401,38.01,-6.28,-11.63,1
2402,38.03,-1.58,-13.03,1
2403,38.04,10.64,-11.19,1
2404,38.05,14.41,-9.94,1
2405,38.06,4.13,-14.49,1
2406,38.08,-11.63,-16.07,1
2407,38.09,-19.54,-6.85,1
2408,38.11,-14.42,0.54,1
2409,38.12,-8.84,-5.55,1
2410,38.13,-8.92,-10.45,1
2411,38.15,-2.57,9.07,1
2412,38.16,8.09,50.17,1
2413,38.17,8.1,82.7,1
2414,38.19,5.28,88.65,1
2415,38.2,16.22,87.76,1
2416,38.21,30.17,90.81,1
2417,38.22,24.74,66.67,1
2418,38.24,7.84,20.41,1
2419,38.25,3.97,1.71,1
2420,38.27,7.59,-15.67,1
2421,38.28,2.15,-54.48,1
2422,38.29,-2.82,-29.32,1
2423,38.31,-10.22,26.62,1
2424,38.32,-39.57,-21.33,1
2425,38.33,-55.98,-81.06,1
2426,38.35,-16.56,-26.06,1
2427,38.36,29.67,14.3,1
2428,38.37,23.3,-49.17,1
2429,38.38,-6.9,-98.88,1
2430,38.4,-18.33,-79.9,1
2431,38.41,-16.87,-57.11,1
2432,38.43,-12.53,-53.95,1
2433,38.44,-6.29,-51.86,1
2434,38.45,-8.95,-52.71,1
2435,38.47,-17.58,-71.19,1
2436,38.48,-12.23,-92.76,1
2437,38.49,10.24,-67.63,1
2438,38.51,26.37,-12.25,1
2439,38.52,17.05,-7.32,1
2440,38.53,-3.07,-45.16,1
2441,38.54,-11.45,-57.58,1
2442,38.56,-9.17,-30.45,1
2443,38.57,-5.7,-2.25,1
2444,38.59,-1.64,-24.11,1
2445,38.6,6.93,-55.5,1
2446,38.61,17.22,-16.76,1
2447,38.63,18.38,26.53,1
2448,38.64,9.92,-4.49,1
2449,38.65,4.07,-30.68,1
2450,38.67,2.02,2.52,1
2451,38.68,-2.16,31.24,1
2452,38.69,1.29,23.89,1
2453,38.71,16.07,1.41,1
2454,38.72,24.78,-10.04,1
2455,38.73,21.49,19.13,1
2456,38.75,13.61,50.31,1
2457,38.76,1.5,19.64,1
2458,38.77,-6.39,-15.76,1
2459,38.79,-0.9,8.96,1
2460,38.8,4.17,31.25,1
2461,38.81,-2.3,18.99,1
2462,38.83,-3.81,17.95,1
2463,38.84,13.35,18.43,1
2464,38.85,29.59,0.91,1
2465,38.87,25.65,0.82,1
2466,38.88,14.61,26.3,1
2467,38.89,6.5,37.01,1
2468,38.9,-7.44,22.64,1
2469,38.92,-17.49,19.9,1
2470,38.93,-11.59,38.54,1
2471,38.95,-7.34,42.2,1
2472,38.96,-10.27,29.24,1
2473,38.97,-2.85,29.72,1
2474,38.99,3.23,38.17,1
2475,39.0,-9.39,45.91,1
2476,39.01,-13.98,57.62,1
2477,39.03,4.79,55.24,1
2478,39.04,13.91,31.4,1
2479,39.05,-1.43,16.55,1
2480,39.06,-12.61,26.78,1
2481,39.08,-0.18,32.06,1
2482,39.09,15.19,5.5,1
2483,39.11,5.4,-26.32,1
2484,39.12,-17.44,-14.81,1
2485,39.13,-23.08,28.81,1
2486,39.15,-15.45,47.17,1
2487,39.16,-8.4,28.7,1
2488,39.17,5.11,17.74,1
2489,39.19,16.6,27.59,1
2490,39.2,4.33,5.84,1
2491,39.21,-14.44,-40.44,1
2492,39.22,-9.8,-25.8,1
2493,39.24,5.34,15.19,1
2494,39.25,4.07,-10.54,1
2495,39.27,-9.23,-37.71,1
2496,39.28,-12.11,5.58,1
2497,39.29,-2.69,41.22,1
2498,39.31,4.38,25.75,1
2499,39.32,5.33,7.34,1
2500,39.33,1.79,-8.08,1
2501,39.35,-1.7,-27.76,1
2502,39.36,-0.05,-24.29,1
2503,39.37,-1.29,1.96,1
2504,39.38,-9.93,27.49,1
2505,39.4,-14.92,31.82,1
2506,39.41,-11.38,4.4,1
2507,39.43,-7.8,-28.91,1
2508,39.44,-8.82,-38.61,1
2509,39.45,-4.99,-22.7,1
2510,39.47,5.93,10.16,1
2511,39.48,2.97,37.44,1
2512,39.49,-10.9,35.2,1
2513,39.51,-3.46,13.33,1
2514,39.52,17.27,-2.17,1
2515,39.53,15.36,-6.75,1
2516,39.54,-0.8,-4.12,1
2517,39.56,-1.03,-0.49,1
2518,39.57,9.13,-7.89,1
2519,39.59,9.3,-12.01,1
2520,39.6,1.95,2.45,1
2521,39.61,-2.02,18.81,1
2522,39.63,0.8,25.57,1
2523,39.64,5.71,14.42,1
2524,39.65,2.3,-14.1,1
2525,39.67,-8.22,-29.65,1
2526,39.68,-9.37,-23.9,1
2527,39.69,1.3,-24.81,1
2528,39.71,5.0,-26.03,1
2529,39.72,-4.84,1.31,1
2530,39.73,-6.96,23.49,1
2531,39.75,8.5,-0.08,1
2532,39.76,15.03,-28.49,1
2533,39.77,-1.57,-26.1,1
2534,39.79,-14.51,-23.99,1
2535,39.8,-9.77,-41.41,1
2536,39.81,-7.63,-54.28,1
2537,39.83,-13.29,-38.97,1
2538,39.84,-10.44,-7.1,1
2539,39.85,2.59,0.69,1
2540,39.87,12.53,-19.77,1
2541,39.88,9.26,-31.5,1
2542,39.89,-1.85,-13.29,1
2543,39.9,-4.0,13.83,1
2544,39.92,1.45,14.47,1
2545,39.93,1.11,3.56,1
2546,39.95,-0.72,12.17,1
2547,39.96,1.07,14.52,1
2548,39.97,-2.98,-9.44,1
2549,39.99,-13.61,-20.69,1
2550,40.0,-13.53,-3.8,1
2551,40.01,3.45,-8.17,1
2552,40.03,15.29,-48.49,1
2553,40.04,7.29,-69.08,1
2554,40.05,-3.41,-40.86,1
2555,40.07,-5.59,-4.03,1
2556,40.08,-9.66,9.87,1
2557,40.09,-13.12,15.33,1
2558,40.11,-6.58,7.72,1
2559,40.12,1.93,-5.67,1
2560,40.13,6.96,21.92,1
2561,40.15,10.38,63.0,1
2562,40.16,7.12,51.62,1
2563,40.17,-2.59,12.06,1
2564,40.19,-10.49,-11.88,1
2565,40.2,-11.35,-29.49,1
2566,40.21,0.67,-46.95,1
2567,40.22,19.43,-57.11,1
2568,40.24,25.32,-62.97,1
2569,40.25,18.2,-67.74,1
2570,40.27,17.12,-76.93,1
2571,40.28,22.32,-102.17,1
2572,40.29,15.83,-130.9,1
2573,40.31,0.5,-124.86,1
2574,40.32,-1.61,-81.13,1
2575,40.33,11.98,-36.32,1
2576,40.35,20.13,0.64,1
2577,40.36,7.24,41.88,1
2578,40.37,-14.45,72.22,1
2579,40.38,-23.26,80.38,1
2580,40.4,-17.58,88.93,1
2581,40.41,-3.1,109.56,1
2582,40.43,12.38,123.08,1
2583,40.44,11.76,114.73,1
2584,40.45,-4.79,93.46,1
2585,40.47,-17.95,77.93,1
2586,40.48,-17.96,72.15,1
2587,40.49,-7.74,66.55,1
2588,40.51,1.23,58.61,1
2589,40.52,-0.38,56.12,1
2590,40.53,-3.67,60.02,1
2591,40.54,-0.75,56.41,1
2592,40.56,0.7,38.11,1
2593,40.57,-3.39,21.32,1
2594,40.59,-10.13,17.11,1
2595,40.6,-21.99,17.74,1
2596,40.61,-36.17,21.45,1
2597,40.63,-34.72,26.61,1
2598,40.64,-14.48,20.9,1
2599,40.65,-0.24,3.89,1
2600,40.67,-1.87,-8.95,1
2601,40.68,-2.39,-6.25,1
2602,40.69,1.52,6.06,1
2603,40.71,0.93,10.92,1
2604,40.72,0.27,5.56,1
2605,40.73,4.0,0.75,1
2606,40.75,5.76,-0.13,1
2607,40.76,3.53,1.5,1
2608,40.77,3.23,8.26,1
2609,40.79,8.52,19.66,1
2610,40.8,11.89,23.06,1
2611,40.81,7.01,13.18,1
2612,40.83,2.96,10.85,1
2613,40.84,8.24,23.57,1
2614,40.85,17.85,26.41,1
2615,40.87,21.95,14.53,1
2616,40.88,14.56,7.03,1
2617,40.89,3.69,4.21,1
2618,40.9,3.72,0.85,1
2619,40.92,7.6,2.27,1
2620,40.93,0.7,4.84,1
2621,40.95,-7.55,-1.45,1
2622,40.96,-4.57,-9.01,1
2623,40.97,4.33,-3.32,1
2624,40.99,7.04,3.17,1
2625,41.0,2.6,-9.05,1
2626,41.01,5.19,-25.18,1
2627,41.03,15.13,-25.49,1
2628,41.04,13.24,-22.21,1
2629,41.05,1.01,-24.28,1
2630,41.06,-3.09,-18.09,1
2631,41.08,0.02,-7.3,1
2632,41.09,-1.52,-14.04,1
2633,41.11,-2.01,-30.23,1
2634,41.12,8.9,-28.52,1
2635,41.13,17.23,-14.08,1
2636,41.15,7.47,-11.72,1
2637,41.16,-4.26,-23.11,1
2638,41.17,-0.56,-30.89,1
2639,41.19,8.66,-30.02,1
2640,41.2,9.33,-29.64,1
2641,41.21,1.4,-31.94,1
2642,41.22,-5.61,-29.87,1
2643,41.24,-2.04,-21.39,1
2644,41.25,11.67,-17.4,1
2645,41.27,21.93,-25.87,1
2646,41.28,11.6,-32.55,1
2647,41.29,-15.1,-26.24,1
2648,41.31,-30.2,-20.46,1
2649,41.32,-20.06,-22.28,1
2650,41.33,1.11,-21.04,1
2651,41.35,13.44,-17.88,1
2652,41.36,9.81,-21.97,1
2653,41.37,2.06,-25.83,1
2654,41.38,0.0,-22.76,1
2655,41.4,-2.92,-24.18,1
2656,41.41,-4.29,-32.37,1
2657,41.43,3.8,-30.1,1
2658,41.44,9.74,-14.55,1
2659,41.45,5.34,-3.2,1
2660,41.47,-1.46,-0.09,1
2661,41.48,-9.89,3.37,1
2662,41.49,-21.61,2.01,1
2663,41.51,-25.12,-8.38,1
2664,41.52,-14.04,-13.04,1
2665,41.53,-3.83,-7.27,1
2666,41.54,-8.81,-7.79,1
2667,41.56,-12.34,-15.85,1
2668,41.57,3.45,-12.47,1
2669,41.59,14.46,-0.7,1
2670,41.6,-0.54,-1.37,1
2671,41.61,-15.42,-7.29,1
2672,41.63,-9.23,-1.82,1
2673,41.64,1.82,0.64,1
2674,41.65,5.68,-10.79,1
2675,41.67,5.38,-17.22,1
2676,41.68,1.4,-10.74,1
2677,41.69,-3.25,-5.25,1
2678,41.71,-2.74,-5.65,1
2679,41.72,0.78,-4.59,1
2680,41.73,1.16,-0.16,1
2681,41.75,-1.28,5.13,1
2682,41.76,-5.24,11.25,1
2683,41.77,-12.82,13.07,1
2684,41.79,-21.43,8.31,1
2685,41.8,-26.02,4.02,1
2686,41.81,-20.38,-0.53,1
2687,41.83,-1.2,-5.82,1
2688,41.84,15.55,-3.19,1
2689,41.85,13.48,3.71,1
2690,41.87,6.76,6.08,1
2691,41.88,14.05,4.21,1
2692,41.89,19.9,-0.65,1
2693,41.9,4.51,-1.29,1
2694,41.92,-12.89,4.2,1
2695,41.93,-4.91,3.08,1
2696,41.95,12.63,-0.77,1
2697,41.96,10.4,6.24,1
2698,41.97,-2.53,15.84,1
2699,41.99,-3.99,14.2,1
2700,42.0,-0.53,4.0,1
2701,42.01,-4.09,0.02,1
2702,42.03,-5.86,6.72,1
2703,42.04,-2.95,11.84,1
2704,42.05,-6.44,10.86,1
2705,42.06,-10.25,9.98,1
2706,42.08,-1.63,12.37,1
2707,42.09,8.71,17.66,1
2708,42.11,7.86,19.27,1
2709,42.12,6.64,13.31,1
2710,42.13,11.97,8.36,1
2711,42.15,8.62,9.49,1
2712,42.16,0.61,9.47,1
2713,42.17,7.22,7.96,1
2714,42.19,9.99,10.53,1
2715,42.2,-7.78,-0.57,1
2716,42.21,-14.3,-42.72,1
2717,42.22,2.65,-84.97,1
2718,42.24,14.35,-96.81,1
2719,42.25,16.3,-102.8,1
2720,42.27,17.57,-123.62,1
2721,42.28,9.64,-137.03,1
2722,42.29,2.97,-129.91,1
2723,42.31,11.93,-113.84,1
2724,42.32,14.26,-90.43,1
2725,42.33,2.93,-56.72,1
2726,42.35,-0.47,-26.92,1
2727,42.36,-5.42,-9.74,1
2728,42.37,-16.24,8.12,1
2729,42.38,-9.69,30.61,1
2730,42.4,0.04,44.38,1
2731,42.41,-8.9,50.28,1
2732,42.43,-14.8,63.03,1
2733,42.44,-2.59,86.11,1
2734,42.45,8.88,105.48,1
2735,42.47,1.79,109.99,1
2736,42.48,-11.73,108.88,1
2737,42.49,-8.42,112.61,1
2738,42.51,3.24,118.91,1
2739,42.52,4.01,127.1,1
2740,42.53,-1.69,135.76,1
2741,42.54,-8.71,134.64,1
2742,42.56,-14.66,125.76,1
2743,42.57,-7.08,123.34,1
2744,42.59,9.93,126.58,1
2745,42.6,10.24,124.62,1
2746,42.61,-5.85,112.91,1
2747,42.63,-9.37,97.13,1
2748,42.64,5.01,86.5,1
2749,42.65,18.57,77.08,1
2750,42.66,14.25,62.33,1
2751,42.68,-8.01,49.59,1
2752,42.69,-21.0,42.61,1
2753,42.71,-11.83,35.16,1
2754,42.72,-5.37,29.14,1
2755,42.73,-12.13,27.32,1
2756,42.75,-16.53,20.34,1
2757,42.76,-16.86,8.41,1
2758,42.77,-16.09,2.39,1
2759,42.79,-3.57,-2.54,1
2760,42.8,17.05,-12.72,1
2761,42.81,20.35,-20.01,1
2762,42.83,-3.43,-21.46,1
2763,42.84,-24.72,-21.01,1
2764,42.85,-11.54,-21.43,1
2765,42.87,17.14,-27.99,1
2766,42.88,18.03,-39.71,1
2767,42.89,-8.51,-45.95,1
2768,42.9,-21.54,-43.51,1
2769,42.92,-8.44,-39.35,1
2770,42.93,-1.48,-37.81,1
2771,42.95,-7.57,-37.66,1
2772,42.96,-4.74,-39.17,1
2773,42.97,-1.87,-45.31,1
2774,42.99,-7.05,-53.88,1
2775,43.0,-3.09,-56.16,1
2776,43.01,3.72,-50.72,1
2777,43.03,-0.12,-47.83,1
2778,43.04,0.03,-50.8,1
2779,43.05,12.18,-51.99,1
2780,43.06,19.12,-49.18,1
2781,43.08,11.22,-46.07,1
2782,43.09,2.11,-48.86,1
2783,43.11,2.64,-59.97,1
2784,43.12,8.78,-67.54,1
2785,43.13,10.69,-61.79,1
2786,43.15,-0.04,-49.41,1
2787,43.16,-10.64,-42.2,1
2788,43.17,-1.73,-43.75,1
2789,43.19,13.72,-43.57,1
2790,43.2,13.21,-36.67,1
2791,43.21,2.24,-34.67,1
2792,43.22,-1.88,-38.29,1
2793,43.24,0.93,-35.49,1
2794,43.25,1.15,-31.62,1
2795,43.27,-0.44,-38.73,1
2796,43.28,1.57,-44.99,1
2797,43.29,4.46,-33.03,1
2798,43.3,3.13,-15.6,1
2799,43.32,-1.48,-14.84,1
2800,43.33,-3.63,-28.42,1
2801,43.35,-0.65,-40.11,1
2802,43.36,-2.48,-42.07,1
2803,43.37,-7.8,-36.29,1
2804,43.38,3.82,-24.84,1
2805,43.4,21.9,-13.4,1
2806,43.41,16.42,-10.2,1
2807,43.43,2.26,-10.59,1
2808,43.44,7.6,-8.09,1
2809,43.45,18.95,-10.4,1
2810,43.47,13.16,-16.16,1
2811,43.48,-7.06,-12.44,1
2812,43.49,-22.4,-3.88,1
2813,43.51,-19.11,-2.15,1
2814,43.52,-6.51,-3.41,1
2815,43.53,1.75,-4.18,1
2816,43.54,5.19,-4.6,1
2817,43.56,-0.05,1.33,1
2818,43.57,-10.38,12.45,1
2819,43.59,-6.4,19.63,1
2820,43.6,7.46,16.26,1
2821,43.61,7.95,3.13,1
2822,43.63,0.29,-6.18,1
2823,43.64,-0.17,-0.28,1
2824,43.65,0.69,12.94,1
2825,43.67,-3.59,20.93,1
2826,43.68,-3.62,20.8,1
2827,43.69,8.96,13.89,1
2828,43.71,18.13,5.21,1
2829,43.72,10.06,2.97,1
2830,43.73,3.53,6.55,1
2831,43.75,10.38,11.66,1
2832,43.76,12.31,19.86,1
2833,43.77,-0.9,24.37,1
2834,43.79,-13.21,19.05,1
2835,43.8,-11.14,15.55,1
2836,43.81,-3.9,17.45,1
2837,43.83,-1.56,13.4,1
2838,43.84,0.96,5.97,1
2839,43.85,6.4,5.73,1
2840,43.87,7.75,10.72,1
2841,43.88,1.3,16.53,1
2842,43.89,-7.14,20.59,1
2843,43.9,-8.71,20.43,1
2844,43.92,-3.66,17.34,1
2845,43.93,0.18,8.93,1
2846,43.94,0.43,-2.43,1
2847,43.96,0.2,-1.15,1
2848,43.97,2.36,13.84,1
2849,43.99,7.29,29.09,1
2850,44.0,9.65,57.02,1
2851,44.01,5.11,114.89,1
2852,44.03,1.48,175.23,1
2853,44.04,7.49,208.26,1
2854,44.05,13.55,231.65,1
2855,44.06,6.09,254.99,1
2856,44.08,-1.34,247.42,1
2857,44.09,8.21,201.46,1
2858,44.11,16.05,142.75,1
2859,44.12,-0.07,78.4,1
2860,44.13,-23.29,7.51,1
2861,44.15,-26.44,-57.63,1
2862,44.16,-14.64,-109.1,1
2863,44.17,-7.02,-142.71,1
2864,44.19,-11.8,-160.58,1
2865,44.2,-26.98,-181.27,1
2866,44.21,-34.25,-207.32,1
2867,44.22,-23.23,-210.34,1
2868,44.24,-12.07,-184.02,1
2869,44.25,-6.85,-154.81,1
2870,44.27,2.68,-134.61,1
2871,44.28,5.83,-118.41,1
2872,44.29,-9.89,-107.22,1
2873,44.31,-21.54,-98.31,1
2874,44.32,-5.7,-84.94,1
2875,44.33,14.72,-68.68,1
2876,44.35,10.37,-55.76,1
2877,44.36,-6.05,-51.61,1
2878,44.37,-7.71,-55.38,1
2879,44.38,3.07,-47.77,1
2880,44.4,9.32,-20.35,1
2881,44.41,12.27,-6.17,1
2882,44.43,14.68,-26.5,1
2883,44.44,6.55,-47.11,1
2884,44.45,-3.97,-36.12,1
2885,44.47,2.65,-15.13,1
2886,44.48,16.5,-12.91,1
2887,44.49,17.24,-20.74,1
2888,44.51,8.4,-19.54,1
2889,44.52,-0.22,-11.5,1
2890,44.53,-9.13,-3.12,1
2891,44.54,-15.26,7.03,1
2892,44.56,-11.17,12.08,1
2893,44.57,0.0,5.12,1
2894,44.58,6.21,4.88,1
2895,44.6,4.05,23.4,1
2896,44.61,0.4,36.65,1
2897,44.63,0.29,31.4,1
2898,44.64,4.87,26.44,1
2899,44.65,8.68,34.19,1
2900,44.67,9.76,47.51,1
2901,44.68,8.88,55.34,1
2902,44.69,-3.32,53.77,1
2903,44.71,-15.68,45.68,1
2904,44.72,-0.29,38.77,1
2905,44.73,27.91,39.71,1
2906,44.75,33.89,45.37,1
2907,44.76,23.09,47.34,1
2908,44.77,12.87,42.3,1
2909,44.79,-1.57,35.61,1
2910,44.8,-12.84,31.6,1
2911,44.81,-3.99,27.84,1
2912,44.83,11.78,30.84,1
2913,44.84,17.67,43.79,1
2914,44.85,17.41,47.33,1
2915,44.87,8.07,36.92,1
2916,44.88,-10.63,34.42,1
2917,44.89,-17.98,37.97,1
2918,44.9,-8.73,33.85,1
2919,44.92,-3.6,30.8,1
2920,44.93,-9.68,33.56,1
2921,44.95,-16.64,36.19,1
2922,44.96,-23.21,40.92,1
2923,44.97,-27.32,44.18,1
2924,44.99,-14.2,32.7,1
2925,45.0,16.08,15.58,1
2926,45.01,32.6,19.4,1
2927,45.03,20.33,37.0,1
2928,45.04,5.3,32.87,1
2929,45.05,3.48,11.69,1
2930,45.06,4.14,8.98,1
2931,45.08,1.56,23.65,1
2932,45.09,-1.22,30.11,1
2933,45.11,2.33,26.13,1
2934,45.12,11.33,20.63,1
2935,45.13,12.69,13.64,1
2936,45.15,5.96,6.1,1
2937,45.16,0.33,0.33,1
2938,45.17,-3.13,-1.73,1
2939,45.19,-1.32,5.28,1
2940,45.2,0.9,16.0,1
2941,45.21,-11.54,16.25,1
2942,45.22,-26.95,7.36,1
2943,45.24,-25.16,4.1,1
2944,45.25,-16.25,7.35,1
2945,45.26,-11.4,1.57,1
2946,45.28,-2.99,-11.09,1
2947,45.29,7.26,-7.53,1
2948,45.31,6.81,4.18,1
2949,45.32,-4.58,-2.07,1
2950,45.33,-11.67,-11.43,1
2951,45.35,-4.49,-2.65,1
2952,45.36,3.35,3.84,1
2953,45.37,-3.62,-8.25,1
2954,45.38,-14.65,-23.45,1
2955,45.4,-10.54,-25.62,1
2956,45.41,2.13,-15.46,1
2957,45.43,3.27,-5.64,1
2958,45.44,1.29,-4.4,1
2959,45.45,12.26,-6.81,1
2960,45.47,15.32,-9.45,1
2961,45.48,-7.28,-11.74,1
2962,45.49,-23.73,-11.98,1
2963,45.51,-9.2,-15.06,1
2964,45.52,7.18,-20.83,1
2965,45.53,0.86,-21.82,1
2966,45.54,-4.33,-19.56,1
2967,45.56,10.34,-13.8,1
2968,45.57,19.29,-3.32,1
2969,45.59,1.64,-1.97,1
2970,45.6,-19.81,-13.47,1
2971,45.61,-17.0,-19.16,1
2972,45.63,3.13,-13.57,1
2973,45.64,15.75,-7.73,1
2974,45.65,14.12,-1.92,1
2975,45.67,9.77,4.2,1
2976,45.68,3.28,3.01,1
2977,45.69,-10.67,-4.46,1
2978,45.71,-17.77,-9.7,1
2979,45.72,-11.0,-8.07,1
2980,45.73,-3.2,-5.66,1
2981,45.75,8.53,-12.38,1
2982,45.76,22.29,-19.56,1
2983,45.77,13.59,-14.58,1
2984,45.79,-13.15,-9.54,1
2985,45.8,-29.3,-16.3,1
2986,45.81,-26.21,-22.32,1
2987,45.83,-10.99,-17.99,1
2988,45.84,3.29,-13.44,1
2989,45.85,5.56,-17.58,1
2990,45.86,0.0,-24.31,1
2991,45.88,-2.2,-27.79,1
2992,45.89,2.33,-30.18,1
2993,45.9,8.06,-24.32,1
2994,45.92,13.47,-6.4,1
2995,45.93,22.14,1.25,1
2996,45.95,24.9,-7.86,1
2997,45.96,10.0,-8.99,1
2998,45.97,-6.64,1.74,1
2999,45.99,-4.54,5.48,1
3000,46.0,3.68,-4.27,1
3001,46.01,-1.6,-12.6,1
3002,46.03,-9.74,-4.46,1
3003,46.04,-5.16,4.88,1
3004,46.05,-1.92,-2.33,1
3005,46.06,-14.4,-11.03,1
3006,46.08,-25.01,-7.88,1
3007,46.09,-14.21,2.15,1
3008,46.11,6.55,8.49,1
3009,46.12,12.77,-4.46,1
3010,46.13,-3.11,-30.2,1
3011,46.15,-18.27,-37.85,1
3012,46.16,-7.75,-19.23,1
3013,46.17,10.87,11.54,1
3014,46.19,13.03,50.1,1
3015,46.2,12.75,88.04,1
3016,46.21,16.39,95.55,1
3017,46.22,10.4,70.21,1
3018,46.24,1.76,66.79,1
3019,46.25,-4.84,97.72,1
3020,46.27,-16.61,96.82,1
3021,46.28,-13.89,29.59,1
3022,46.29,11.02,-50.26,1
3023,46.31,18.84,-41.82,1
3024,46.32,0.16,50.65,1
3025,46.33,-6.6,78.98,1
3026,46.35,7.74,8.93,1
3027,46.36,18.09,-33.24,1
3028,46.37,9.43,-34.06,1
3029,46.38,-10.35,-78.88,1
3030,46.4,-14.41,-125.51,1
3031,46.41,1.46,-105.62,1
3032,46.43,7.9,-81.14,1
3033,46.44,4.69,-82.72,1
3034,46.45,10.6,-59.23,1
3035,46.47,6.41,-13.66,1
3036,46.48,-16.66,12.15,1
3037,46.49,-18.44,-5.91,1
3038,46.5,10.0,-39.63,1
3039,46.52,16.89,-44.3,1
3040,46.53,-5.65,-46.97,1
3041,46.54,-12.17,-55.29,1
3042,46.56,-3.73,-17.89,1
3043,46.57,-4.91,24.46,1
3044,46.59,-9.86,-10.43,1
3045,46.6,-17.89,-72.37,1
3046,46.61,-27.76,-72.99,1
3047,46.63,-14.04,-36.28,1
3048,46.64,23.6,-22.63,1
3049,46.65,37.42,-26.59,1
3050,46.67,11.32,3.07,1
3051,46.68,-4.57,51.18,1
3052,46.69,10.41,38.92,1
3053,46.71,13.07,-6.57,1
3054,46.72,-4.5,-9.71,1
3055,46.73,-2.77,-2.52,1
3056,46.75,10.6,-21.45,1
3057,46.76,4.41,-36.55,1
3058,46.77,-9.84,-14.96,1
3059,46.79,-18.14,27.99,1
3060,46.8,-18.66,29.51,1
3061,46.81,-6.31,-13.78,1
3062,46.83,7.54,-21.91,1
3063,46.84,16.83,13.46,1
3064,46.85,25.5,11.89,1
3065,46.87,22.76,-24.69,1
3066,46.88,10.38,-16.23,1
3067,46.89,2.51,25.96,1
3068,46.9,-2.37,31.23,1
3069,46.92,-3.21,20.4,1
3070,46.93,6.84,37.69,1
3071,46.95,13.86,41.72,1
3072,46.96,1.11,-1.36,1
3073,46.97,-13.25,-43.42,1
3074,46.99,-4.56,-26.05,1
3075,47.0,10.0,29.3,1
3076,47.01,7.32,41.4,1
3077,47.03,-2.55,-0.23,1
3078,47.04,-10.64,-23.48,1
3079,47.05,-19.34,-2.01,1
3080,47.06,-19.23,40.18,1
3081,47.08,-8.23,82.94,1
3082,47.09,3.71,79.9,1
3083,47.11,15.77,17.94,1
3084,47.12,20.9,-17.27,1
3085,47.13,10.69,21.53,1
3086,47.14,4.27,65.23,1
3087,47.16,12.97,55.32,1
3088,47.17,12.73,20.3,1
3089,47.18,-7.15,-0.52,1
3090,47.2,-25.03,-14.67,1
3091,47.21,-22.82,-15.14,1
3092,47.22,-6.36,12.27,1
3093,47.24,7.23,19.63,1
3094,47.25,8.77,-7.33,1
3095,47.27,3.31,-8.08,1
3096,47.28,-0.02,25.93,1
3097,47.29,-3.47,46.17,1
3098,47.31,-11.8,29.67,1
3099,47.32,-18.49,-11.97,1
3100,47.33,-18.37,-42.93,1
3101,47.35,-10.92,-31.97,1
3102,47.36,3.21,0.94,1
3103,47.37,10.64,12.27,1
3104,47.38,4.33,4.23,1
3105,47.4,4.04,-3.63,1
3106,47.41,11.76,-6.71,1
3107,47.43,3.16,3.18,1
3108,47.44,-10.5,12.74,1
3109,47.45,-1.75,13.14,1
3110,47.47,8.55,25.19,1
3111,47.48,-5.33,37.46,1
3112,47.49,-20.18,25.5,1
3113,47.51,-14.44,15.11,1
3114,47.52,-1.35,26.01,1
3115,47.53,6.77,20.22,1
3116,47.54,8.54,-2.7,1
3117,47.56,4.52,11.11,1
3118,47.57,0.8,44.73,1
3119,47.59,-2.89,39.93,1
3120,47.6,-10.85,15.98,1
3121,47.61,-13.82,15.87,1
3122,47.63,-0.61,18.2,1
3123,47.64,12.81,2.87,1
3124,47.65,1.21,-4.12,1
3125,47.67,-16.19,-7.05,1
3126,47.68,-5.72,-27.88,1
3127,47.69,15.25,-31.2,1
3128,47.71,20.9,2.0,1
3129,47.72,21.65,23.37,1
3130,47.73,22.65,12.27,1
3131,47.75,9.04,-2.36,1
3132,47.76,-12.4,-2.57,1
3133,47.77,-14.61,-7.68,1
3134,47.78,2.43,-22.86,1
3135,47.8,5.35,-16.82,1
3136,47.81,-14.58,-11.53,1
3137,47.82,-20.49,-24.01,1
3138,47.84,-3.35,-12.06,1
3139,47.85,-2.54,0.76,1
3140,47.86,-16.87,-10.91,1
3141,47.88,-3.83,-2.45,1
3142,47.89,22.89,20.88,1
3143,47.9,17.58,26.21,1
3144,47.92,-2.4,22.04,1
3145,47.93,-0.05,24.75,1
3146,47.95,5.42,36.18,1
3147,47.96,-4.2,29.6,1
3148,47.97,-3.3,-3.37,1
3149,47.99,12.87,-2.88,1
3150,48.0,13.79,45.26,1
3151,48.01,-3.96,51.62,1
3152,48.03,-18.44,-9.17,1
3153,48.04,-23.6,-60.12,1
3154,48.05,-19.09,-65.53,1
3155,48.06,-4.0,-39.59,1
3156,48.08,10.57,-16.91,1
3157,48.09,15.37,-31.4,1
3158,48.11,12.89,-44.45,1
3159,48.12,9.47,-18.27,1
3160,48.13,6.89,1.45,1
3161,48.15,3.87,-10.47,1
3162,48.16,0.04,-18.97,1
3163,48.17,-7.74,-15.56,1
3164,48.19,-13.71,-19.88,1
3165,48.2,-7.34,-48.65,1
3166,48.21,-0.72,-111.12,1
3167,48.22,-6.61,-176.1,1
3168,48.24,-13.81,-201.78,1
3169,48.25,-16.55,-190.7,1
3170,48.27,-26.3,-169.37,1
3171,48.28,-40.7,-142.27,1
3172,48.29,-33.94,-93.29,1
3173,48.31,4.46,-30.65,1
3174,48.32,44.67,17.18,1
3175,48.33,54.76,50.77,1
3176,48.35,41.04,80.18,1
3177,48.36,26.01,98.61,1
3178,48.37,12.4,108.55,1
3179,48.38,-2.26,117.44,1
3180,48.4,-6.15,117.47,1
3181,48.41,4.31,104.39,1
3182,48.42,11.19,89.31,1
3183,48.44,2.65,84.22,1
3184,48.45,-8.13,82.27,1
3185,48.46,-6.41,62.2,1
3186,48.48,6.37,29.8,1
3187,48.49,19.46,15.59,1
3188,48.5,23.55,21.69,1
3189,48.52,20.06,28.82,1
3190,48.53,14.0,32.86,1
3191,48.54,4.56,36.85,1
3192,48.56,-6.9,41.5,1
3193,48.57,-12.26,43.87,1
3194,48.59,-8.77,38.74,1
3195,48.6,-5.56,27.14,1
3196,48.61,-9.5,14.76,1
3197,48.63,-8.99,8.3,1
3198,48.64,3.73,11.54,1
3199,48.65,9.19,21.96,1
3200,48.67,-0.85,28.38,1
3201,48.68,-8.21,20.24,1
3202,48.69,-11.2,10.57,1
3203,48.71,-19.2,12.65,1
3204,48.72,-22.56,11.08,1
3205,48.73,-11.61,-0.55,1
3206,48.75,3.77,-4.86,1
3207,48.76,7.3,-0.49,1
3208,48.77,-2.54,2.91,1
3209,48.79,-10.73,10.36,1
3210,48.8,-10.12,17.94,1
3211,48.81,-8.58,10.21,1
3212,48.83,-8.38,-4.56,1
3213,48.84,-5.79,-7.19,1
3214,48.85,-2.19,2.48,1
3215,48.87,1.0,13.82,1
3216,48.88,3.28,15.11,1
3217,48.89,2.2,1.75,1
3218,48.9,-4.13,-12.46,1
3219,48.92,-12.2,-13.18,1
3220,48.93,-12.18,-8.78,1
3221,48.95,-0.34,-8.64,1
3222,48.96,11.87,-3.42,1
3223,48.97,9.74,8.11,1
3224,48.99,-3.06,10.21,1
3225,49.0,-7.31,-1.14,1
3226,49.01,-0.66,-13.04,1
3227,49.03,0.19,-13.94,1
3228,49.04,-3.39,-8.67,1
3229,49.05,-1.33,-10.49,1
3230,49.06,-4.89,-15.78,1
3231,49.08,-15.11,-15.32,1
3232,49.09,-11.87,-12.39,1
3233,49.1,5.58,-8.16,1
3234,49.12,18.42,-4.51,1
3235,49.13,17.49,-6.8,1
3236,49.14,7.18,-8.91,1
3237,49.16,-5.27,-7.23,1
3238,49.17,-17.19,-10.32,1
3239,49.19,-24.0,-17.25,1
3240,49.2,-17.13,-19.57,1
3241,49.21,2.38,-18.05,1
3242,49.22,19.1,-16.95,1
3243,49.24,18.89,-14.96,1
3244,49.25,4.26,-12.07,1
3245,49.27,-10.53,-10.64,1
3246,49.28,-12.5,-9.18,1
3247,49.29,-0.64,-10.96,1
3248,49.31,13.38,-19.8,1
3249,49.32,15.87,-22.89,1
3250,49.33,6.71,-13.95,1
3251,49.35,2.45,-11.13,1
3252,49.36,9.63,-17.52,1
3253,49.37,15.13,-12.77,1
3254,49.38,10.13,1.29,1
3255,49.4,-1.11,-0.45,1
3256,49.41,-9.26,-18.92,1
3257,49.43,-5.33,-24.86,1
3258,49.44,7.31,-9.48,1
3259,49.45,14.54,1.86,1
3260,49.47,11.78,-0.69,1
3261,49.48,6.08,-4.46,1
3262,49.49,2.2,-8.42,1
3263,49.51,2.12,-17.46,1
3264,49.52,4.11,-22.77,1
3265,49.53,4.52,-14.73,1
3266,49.54,7.7,0.09,1
3267,49.56,11.02,5.12,1
3268,49.57,-0.73,-1.87,1
3269,49.59,-19.39,-6.7,1
3270,49.6,-19.76,-7.78,1
3271,49.61,-4.95,-12.23,1
3272,49.63,3.28,-11.45,1
3273,49.64,0.5,-1.79,1
3274,49.65,-3.31,3.24,1
3275,49.67,0.99,0.74,1
3276,49.68,8.35,0.28,1
3277,49.69,1.25,0.4,1
3278,49.7,-11.38,-6.05,1
3279,49.72,-5.14,-14.85,1
3280,49.73,9.48,-15.58,1
3281,49.74,12.39,-7.31,1
3282,49.76,11.06,-1.38,1
3283,49.77,13.41,-4.54,1
3284,49.78,10.54,-5.48,1
3285,49.8,0.3,1.65,1
3286,49.81,-7.06,1.03,1
3287,49.825,-7.75,-11.33,1
3288,49.84,-4.84,-15.26,1
3289,49.85,-1.76,-6.81,1
3290,49.87,-2.52,-4.12,1
3291,49.88,-6.23,-9.98,1
3292,49.89,-8.27,-9.07,1
3293,49.9,-6.65,0.74,1
3294,49.92,-1.44,4.29,1
3295,49.93,4.33,-1.14,1
3296,49.95,5.51,-5.85,1
3297,49.96,0.36,-6.53,1
3298,49.97,-7.87,-4.21,1
3299,49.99,-10.6,-1.06,1
3300,50.0,0.09,2.26,1
3301,50.01,12.96,6.71,1
3302,50.03,9.12,9.26,1
3303,50.04,-2.89,7.87,1
3304,50.05,-5.16,6.73,1
3305,50.06,-2.72,7.17,1
3306,50.08,-3.57,3.2,1
3307,50.09,-2.73,-2.86,1
3308,50.11,2.52,0.71,1
3309,50.12,5.17,12.26,1
3310,50.13,-1.73,19.67,1
3311,50.15,-10.62,9.1,1
3312,50.16,-7.86,-34.8,1
3313,50.17,-2.55,-91.18,1
3314,50.19,-7.06,-112.35,1
3315,50.2,-0.54,-107.05,1
3316,50.21,24.81,-118.95,1
3317,50.22,38.15,-137.99,1
3318,50.24,33.21,-136.43,1
3319,50.25,28.11,-126.22,1
3320,50.27,21.74,-116.95,1
3321,50.28,15.47,-95.38,1
3322,50.29,14.48,-63.79,1
3323,50.31,7.41,-36.75,1
3324,50.32,-6.52,-8.37,1
3325,50.33,-16.14,32.93,1
3326,50.34,-22.5,69.71,1
3327,50.36,-25.65,79.72,1
3328,50.37,-19.98,82.02,1
3329,50.38,-9.19,104.74,1
3330,50.4,-5.78,134.72,1
3331,50.41,-16.28,146.58,1
3332,50.42,-26.58,138.82,1
3333,50.44,-23.93,125.27,1
3334,50.45,-16.82,120.71,1
3335,50.46,-8.27,126.16,1
3336,50.48,4.75,135.23,1
3337,50.49,12.24,145.05,1
3338,50.51,10.41,148.33,1
3339,50.52,6.12,140.7,1
3340,50.53,-1.05,128.6,1
3341,50.54,-7.8,114.81,1
3342,50.56,-4.97,98.35,1
3343,50.57,3.95,86.8,1
3344,50.59,4.83,85.12,1
3345,50.6,-8.66,80.29,1
3346,50.61,-21.73,63.59,1
3347,50.63,-14.92,46.57,1
3348,50.64,0.71,39.0,1
3349,50.65,-4.77,36.92,1
3350,50.67,-25.63,30.55,1
3351,50.68,-22.12,17.86,1
3352,50.69,6.94,7.29,1
3353,50.71,16.54,2.96,1
3354,50.72,1.13,5.14,1
3355,50.73,-4.62,7.8,1
3356,50.75,2.59,-0.41,1
3357,50.76,9.7,-11.63,1
3358,50.77,15.82,-16.83,1
3359,50.79,8.48,-28.4,1
3360,50.8,-15.4,-40.99,1
3361,50.81,-27.95,-31.84,1
3362,50.83,-17.7,-13.12,1
3363,50.84,-2.2,-14.03,1
3364,50.85,7.33,-26.92,1
3365,50.87,6.55,-31.0,1
3366,50.88,-2.78,-35.41,1
3367,50.89,-7.1,-50.85,1
3368,50.9,-3.18,-62.34,1
3369,50.92,2.6,-61.45,1
3370,50.93,9.88,-61.8,1
3371,50.95,11.2,-62.65,1
3372,50.96,5.06,-49.71,1
3373,50.97,3.93,-35.23,1
3374,50.98,4.62,-38.66,1
3375,51.0,-1.78,-50.63,1
3376,51.01,-6.02,-55.79,1
3377,51.02,-3.18,-57.09,1
3378,51.04,-1.07,-60.05,1
3379,51.05,-1.53,-58.06,1
3380,51.06,-1.66,-49.33,1
3381,51.08,-0.57,-44.59,1
3382,51.09,4.44,-43.52,1
3383,51.1,13.34,-36.06,1
3384,51.12,16.19,-28.57,1
3385,51.13,5.56,-36.19,1
3386,51.15,-3.63,-52.51,1
3387,51.16,3.3,-56.38,1
3388,51.17,8.9,-44.75,1
3389,51.19,-0.69,-33.6,1
3390,51.2,-5.11,-34.43,1
3391,51.21,5.8,-41.05,1
3392,51.22,11.74,-42.09,1
3393,51.24,4.32,-41.33,1
3394,51.25,0.71,-41.17,1
3395,51.27,10.5,-31.95,1
3396,51.28,18.72,-17.89,1
3397,51.29,10.9,-13.21,1
3398,51.31,-3.79,-20.0,1
3399,51.32,-7.46,-27.45,1
3400,51.33,0.62,-22.15,1
3401,51.35,4.51,-8.06,1
3402,51.36,-0.22,-3.43,1
3403,51.37,-0.5,-8.06,1
3404,51.38,7.27,-8.13,1
3405,51.4,14.44,-6.4,1
3406,51.41,14.3,-10.56,1
3407,51.43,3.71,-14.27,1
3408,51.44,-7.41,-10.07,1
3409,51.45,-4.27,-2.02,1
3410,51.47,5.06,0.57,1
3411,51.48,3.19,-6.33,1
3412,51.49,-2.75,-15.43,1
3413,51.51,0.24,-15.53,1
3414,51.52,0.74,-5.87,1
3415,51.53,-9.66,0.49,1
3416,51.54,-12.28,-5.46,1
3417,51.56,-2.05,-9.7,1
3418,51.57,-0.26,-0.23,1
3419,51.59,-5.74,9.48,1
3420,51.6,-0.1,12.65,1
3421,51.61,10.46,16.63,1
3422,51.62,11.8,16.77,1
3423,51.64,4.76,11.35,1
3424,51.65,-5.78,11.02,1
3425,51.66,-7.62,17.05,1
3426,51.68,7.33,19.2,1
3427,51.69,18.82,15.11,1
3428,51.7,12.69,13.56,1
3429,51.72,5.42,14.93,1
3430,51.73,2.18,11.02,1
3431,51.74,-5.03,8.03,1
3432,51.76,-8.89,12.04,1
3433,51.77,-5.95,10.87,1
3434,51.79,-6.13,4.86,1
3435,51.8,-10.35,9.18,1
3436,51.81,-11.12,20.35,1
3437,51.83,-5.93,26.13,1
3438,51.84,0.42,26.43,1
3439,51.85,3.07,24.56,1
3440,51.87,8.27,20.11,1
3441,51.88,17.88,14.6,1
3442,51.89,13.88,14.11,1
3443,51.9,-7.14,20.29,1
3444,51.92,-23.56,23.51,1
3445,51.93,-21.13,15.52,1
3446,51.95,-5.62,5.56,1
3447,51.96,1.25,9.15,1
3448,51.97,-8.79,19.86,1
3449,51.99,-13.12,17.95,1
3450,52.0,-3.02,5.73,1
3451,52.01,-0.23,1.0,1
3452,52.03,-6.77,6.36,1
3453,52.04,-1.41,13.06,1
3454,52.05,7.88,19.35,1
3455,52.06,0.94,22.04,1
3456,52.08,-6.86,15.92,1
3457,52.09,-0.59,10.87,1
3458,52.11,2.2,26.67,1
3459,52.12,-4.65,81.82,1
3460,52.13,-3.35,175.82,1
3461,52.15,6.38,261.6,1
3462,52.16,5.4,286.16,1
3463,52.17,-2.25,258.73,1
3464,52.19,8.65,214.37,1
3465,52.2,26.55,155.34,1
3466,52.21,13.01,85.6,1
3467,52.22,-18.64,27.84,1
3468,52.24,-23.17,-16.5,1
3469,52.25,-7.88,-65.39,1
3470,52.26,-4.96,-118.82,1
3471,52.28,-13.87,-157.85,1
3472,52.29,-21.86,-175.46,1
3473,52.3,-22.59,-178.23,1
3474,52.32,-14.49,-171.29,1
3475,52.33,-5.54,-161.36,1
3476,52.34,-1.45,-150.51,1
3477,52.36,5.61,-133.83,1
3478,52.37,17.07,-117.24,1
3479,52.38,18.05,-110.04,1
3480,52.4,6.38,-103.75,1
3481,52.41,0.93,-89.19,1
3482,52.43,7.36,-75.07,1
3483,52.44,12.24,-69.95,1
3484,52.45,10.67,-69.92,1
3485,52.47,9.5,-65.08,1
3486,52.48,6.89,-51.16,1
3487,52.49,-1.29,-37.6,1
3488,52.51,-2.87,-33.21,1
3489,52.52,5.55,-34.64,1
3490,52.53,5.51,-34.28,1
3491,52.54,-3.23,-26.37,1
3492,52.56,-2.76,-13.22,1
3493,52.57,6.3,-3.01,1
3494,52.59,13.76,-1.46,1
3495,52.6,17.96,-6.23,1
3496,52.61,9.07,-4.84,1
3497,52.63,-15.01,5.04,1
3498,52.64,-23.1,5.24,1
3499,52.65,-4.75,-8.08,1
3500,52.67,9.83,-12.94,1
3501,52.68,10.64,-0.85,1
3502,52.69,10.77,14.83,1
3503,52.71,9.48,23.77,1
3504,52.72,3.93,23.35,1
3505,52.73,1.63,15.94,1
3506,52.75,7.71,14.97,1
3507,52.76,13.79,26.2,1
3508,52.77,6.71,35.17,1
3509,52.79,-9.16,33.42,1
3510,52.8,-15.99,30.7,1
3511,52.81,-9.47,33.03,1
3512,52.83,0.5,35.9,1
3513,52.84,2.41,33.49,1
3514,52.85,-6.8,27.16,1
3515,52.87,-11.47,27.85,1
3516,52.88,1.15,40.69,1
3517,52.89,13.31,51.66,1
3518,52.9,5.33,46.89,1
3519,52.92,-11.16,33.9,1
3520,52.93,-15.22,27.69,1
3521,52.94,-4.2,30.93,1
3522,52.96,5.31,33.93,1
3523,52.97,1.52,29.99,1
3524,52.98,-2.38,25.78,1
3525,53.0,5.35,29.53,1
3526,53.01,10.51,35.83,1
3527,53.02,1.75,33.34,1
3528,53.04,-6.62,27.34,1
3529,53.05,-4.53,28.04,1
3530,53.06,-3.44,27.76,1
3531,53.08,-3.31,22.07,1
3532,53.09,1.95,22.95,1
3533,53.11,-1.03,30.79,1
3534,53.12,-13.84,29.4,1
3535,53.13,-15.15,15.63,1
3536,53.15,-0.76,6.97,1
3537,53.16,12.81,13.73,1
3538,53.17,12.88,22.25,1
3539,53.19,-0.67,20.72,1
3540,53.2,-13.05,17.86,1
3541,53.21,-10.72,19.27,1
3542,53.22,-1.25,16.98,1
3543,53.24,4.99,16.83,1
3544,53.25,10.59,25.62,1
3545,53.27,14.07,27.03,1
3546,53.28,7.67,13.88,1
3547,53.29,-5.18,6.71,1
3548,53.31,-13.28,14.78,1
3549,53.32,-14.11,16.22,1
3550,53.33,-12.92,-1.59,1
3551,53.35,-9.62,-15.66,1
3552,53.36,-1.12,-8.03,1
3553,53.37,4.75,8.17,1
3554,53.38,-0.05,12.32,1
3555,53.4,-5.6,0.86,1
3556,53.41,-1.09,-6.54,1
3557,53.43,2.96,0.49,1
3558,53.44,-7.55,2.3,1
3559,53.45,-20.38,-10.63,1
3560,53.47,-16.41,-21.62,1
3561,53.48,1.28,-19.73,1
3562,53.49,17.67,-11.18,1
3563,53.51,19.22,-5.31,1
3564,53.52,5.69,-5.73,1
3565,53.53,-4.28,-9.6,1
3566,53.54,-2.93,-11.02,1
3567,53.56,-5.63,-8.32,1
3568,53.57,-14.35,-6.68,1
3569,53.58,-9.44,-11.68,1
3570,53.6,9.4,-18.38,1
3571,53.61,17.02,-14.28,1
3572,53.62,6.78,-3.47,1
3573,53.64,-0.84,-4.23,1
3574,53.65,1.37,-11.27,1
3575,53.66,3.72,-9.8,1
3576,53.68,3.0,-8.76,1
3577,53.69,0.29,-16.08,1
3578,53.7,-0.61,-19.59,1
3579,53.72,2.29,-12.43,1
3580,53.73,1.07,-5.36,1
3581,53.75,-6.36,-4.95,1
3582,53.76,-8.96,-3.97,1
3583,53.77,-4.97,-4.67,1
3584,53.79,-3.56,-9.79,1
3585,53.8,-1.78,-9.6,1
3586,53.81,7.8,-11.27,1
3587,53.83,13.16,-24.76,1
3588,53.84,2.26,-31.78,1
3589,53.85,-7.26,-21.91,1
3590,53.87,6.32,-10.86,1
3591,53.88,25.17,-5.57,1
3592,53.89,17.15,-0.44,1
3593,53.9,-6.81,0.63,1
3594,53.92,-14.53,-9.08,1
3595,53.93,-5.33,-21.32,1
3596,53.95,2.69,-21.62,1
3597,53.96,1.03,-12.84,1
3598,53.97,-5.9,-8.52,1
3599,53.99,-6.14,-9.54,1
3600,54.0,-2.61,-10.61,1
3601,54.01,-8.65,-11.94,1
3602,54.03,-13.12,-9.71,1
3603,54.04,-1.99,-0.74,1
3604,54.05,8.99,0.94,1
3605,54.06,7.06,-8.92,1
3606,54.08,2.36,-11.97,1
3607,54.09,2.3,-15.62,1
3608,54.11,4.7,-30.25,1
3609,54.12,8.59,-23.64,1
3610,54.13,9.9,5.97,1
3611,54.15,1.88,7.35,1
3612,54.16,-6.71,-21.23,1
3613,54.17,-2.16,-20.96,1
3614,54.18,4.39,28.4,1
3615,54.2,-2.4,79.63,1
3616,54.21,-11.5,93.0,1
3617,54.22,-5.75,51.33,1
3618,54.24,12.56,-81.03,1
3619,54.25,20.85,-184.91,1
3620,54.26,8.09,13.72,1
3621,54.28,-8.78,382.76,1
3622,54.29,-19.57,405.64,1
3623,54.3,-18.86,63.94,1
3624,54.32,3.8,-140.13,1
3625,54.33,22.82,-21.93,1
3626,54.34,12.62,153.26,1
3627,54.36,-4.16,169.74,1
3628,54.37,-6.05,76.48,1
3629,54.38,3.01,-1.27,1
3630,54.4,11.31,-30.32,1
3631,54.41,4.53,-56.18,1
3632,54.43,-9.33,-95.8,1
3633,54.44,-6.75,-87.2,1
3634,54.45,4.07,-48.83,1
3635,54.47,-0.57,-65.18,1
3636,54.48,-4.78,-87.01,1
3637,54.49,10.89,-61.73,1
3638,54.51,15.03,-69.87,1
3639,54.52,-8.57,-136.3,1
3640,54.53,-16.16,-142.74,1
3641,54.54,5.52,-65.6,1
3642,54.56,12.58,-51.59,1
3643,54.57,-4.75,-111.32,1
3644,54.59,-8.29,-90.09,1
3645,54.6,7.38,11.99,1
3646,54.61,5.25,30.17,1
3647,54.63,-12.45,-70.36,1
3648,54.64,-7.05,-125.68,1
3649,54.65,12.07,-50.68,1
3650,54.67,10.95,39.43,1
3651,54.68,-6.02,34.92,1
3652,54.69,-11.15,-20.3,1
3653,54.71,6.61,-33.31,1
3654,54.72,23.32,-20.22,1
3655,54.73,24.47,-30.36,1
3656,54.75,26.55,-47.83,1
3657,54.76,24.33,-54.14,1
3658,54.77,9.32,-35.39,1
3659,54.79,-0.3,-3.06,1
3660,54.8,-0.26,-8.37,1
3661,54.81,-3.03,-32.44,1
3662,54.82,-8.39,-42.9,1
3663,54.84,-8.55,-78.22,1
3664,54.85,-11.68,-94.53,1
3665,54.86,-23.64,-33.18,1
3666,54.88,-18.38,12.34,1
3667,54.89,7.42,-8.11,1
3668,54.9,12.96,-20.2,1
3669,54.92,-11.62,-1.45,1
3670,54.93,-34.36,20.0,1
3671,54.94,-27.85,39.96,1
3672,54.96,0.39,54.82,1
3673,54.97,15.39,35.73,1
3674,54.98,9.39,-9.53,1
3675,55.0,7.57,-4.47,1
3676,55.01,8.57,47.78,1
3677,55.025000000000006,-9.76,49.97,1
3678,55.04,-24.66,17.25,1
3679,55.05,-7.0,31.7,1
3680,55.06,8.78,46.21,1
3681,55.08,-2.15,5.91,1
3682,55.09,-7.21,-17.5,1
3683,55.11,6.27,7.42,1
3684,55.12,17.48,29.04,1
3685,55.13,17.22,39.98,1
3686,55.15,8.04,49.45,1
3687,55.16,-3.31,44.95,1
3688,55.17,-6.72,34.82,1
3689,55.19,0.65,33.75,1
3690,55.2,4.25,25.41,1
3691,55.21,-3.85,2.58,1
3692,55.22,-6.92,8.24,1
3693,55.24,-4.07,27.02,1
3694,55.25,-11.86,-13.32,1
3695,55.27,-22.17,-49.93,1
3696,55.28,-17.72,6.45,1
3697,55.29,-4.16,54.52,1
3698,55.31,4.8,8.31,1
3699,55.32,5.86,-31.16,1
3700,55.33,-10.13,-2.64,1
3701,55.35,-37.26,38.76,1
3702,55.36,-35.87,78.6,1
3703,55.37,-7.47,101.08,1
3704,55.38,5.96,64.11,1
3705,55.4,10.12,12.46,1
3706,55.41,19.04,-1.02,1
3707,55.43,6.09,10.25,1
3708,55.44,-22.72,25.53,1
3709,55.45,-23.46,14.24,1
3710,55.46,2.94,-14.76,1
3711,55.48,17.26,-0.19,1
3712,55.49,10.25,33.15,1
3713,55.5,1.52,15.47,1
3714,55.52,-3.34,-6.09,1
3715,55.53,-3.9,25.6,1
3716,55.54,4.82,42.04,1
3717,55.56,11.48,-16.23,1
3718,55.57,8.17,-64.57,1
3719,55.58,8.91,-13.74,1
3720,55.6,11.99,65.83,1
3721,55.61,3.33,80.29,1
3722,55.62,-1.69,63.94,1
3723,55.64,8.94,65.58,1
3724,55.65,12.48,56.65,1
3725,55.66,3.2,22.17,1
3726,55.68,0.2,-13.63,1
3727,55.69,6.92,-50.34,1
3728,55.71,16.29,-71.44,1
3729,55.72,27.79,-26.51,1
3730,55.73,36.16,52.65,1
3731,55.75,21.72,42.79,1
3732,55.76,-9.01,-57.34,1
3733,55.77,-17.12,-79.86,1
3734,55.79,-8.42,7.79,1
3735,55.8,-16.29,52.61,1
3736,55.81,-22.7,19.31,1
3737,55.83,-9.06,3.91,1
3738,55.84,0.52,41.19,1
3739,55.85,-0.63,80.41,1
3740,55.87,-1.5,70.0,1
3741,55.88,-8.49,24.95,1
3742,55.89,-13.06,-1.45,1
3743,55.9,4.21,1.5,1
3744,55.92,20.54,-12.37,1
3745,55.93,4.96,-64.73,1
3746,55.95,-20.37,-81.09,1
3747,55.96,-20.38,-3.53,1
3748,55.97,-6.02,84.2,1
3749,55.99,-1.34,85.08,1
3750,56.0,3.39,28.01,1
3751,56.01,16.59,-6.39,1
3752,56.03,17.02,9.94,1
3753,56.04,-4.35,37.33,1
3754,56.05,-20.9,33.76,1
3755,56.06,-10.12,-0.79,1
3756,56.08,7.25,-41.21,1
3757,56.09,3.17,-43.46,1
3758,56.1,-4.83,5.79,1
3759,56.12,4.4,52.21,1
3760,56.13,9.84,29.26,1
3761,56.14,3.94,-41.21,1
3762,56.16,6.62,-58.12,1
3763,56.17,7.8,-22.99,1
3764,56.18,-6.48,-12.22,1
3765,56.2,-17.15,-6.94,1
3766,56.21,-15.75,-1.06,1
3767,56.22,-8.89,-33.14,1
3768,56.24,7.05,-63.9,1
3769,56.25,22.78,-64.07,1
3770,56.26,17.79,-81.47,1
3771,56.28,2.68,-141.63,1
3772,56.29,-0.38,-211.48,1
3773,56.3,2.09,-251.13,1
3774,56.32,-0.4,-241.87,1
3775,56.33,3.1,-184.89,1
3776,56.35,15.87,-107.17,1
3777,56.36,22.58,-43.18,1
3778,56.37,14.87,1.64,1
3779,56.38,-2.11,37.27,1
3780,56.4,-15.43,59.72,1
3781,56.41,-14.79,63.59,1
3782,56.43,-3.33,61.92,1
3783,56.44,7.23,70.15,1
3784,56.45,8.23,76.71,1
3785,56.47,1.8,68.58,1
3786,56.48,-2.83,61.18,1
3787,56.49,-2.19,62.08,1
3788,56.51,-0.7,61.22,1
3789,56.52,-2.43,59.0,1
3790,56.53,-4.7,56.69,1
3791,56.54,-3.68,57.25,1
3792,56.56,-2.46,67.69,1
3793,56.57,-2.8,73.58,1
3794,56.59,-3.76,61.15,1
3795,56.6,-6.65,47.34,1
3796,56.61,-7.47,44.12,1
3797,56.63,1.25,41.94,1
3798,56.64,11.58,40.19,1
3799,56.65,6.91,41.2,1
3800,56.67,-7.07,34.22,1
3801,56.68,-10.63,21.04,1
3802,56.69,-7.23,21.16,1
3803,56.71,-8.44,34.57,1
3804,56.72,-6.2,34.49,1
3805,56.73,2.14,14.19,1
3806,56.74,3.78,2.48,1
3807,56.76,-1.79,16.42,1
3808,56.77,-3.87,33.08,1
3809,56.78,-1.45,27.12,1
3810,56.8,3.25,7.61,1
3811,56.81,9.92,-2.94,1
3812,56.82,6.46,1.23,1
3813,56.84,-10.43,10.14,1
3814,56.85,-16.41,17.54,1
3815,56.86,-6.21,20.67,1
3816,56.88,-3.13,11.37,1
3817,56.89,-6.98,-1.55,1
3818,56.9,-3.38,-0.94,1
3819,56.92,2.55,5.19,1
3820,56.93,4.04,3.22,1
3821,56.94,5.66,-1.48,1
3822,56.96,7.04,-1.33,1
3823,56.97,4.68,-0.01,1
3824,56.99,1.75,0.06,1
3825,57.0,0.48,1.2,1
3826,57.01,1.24,2.77,1
3827,57.03,6.32,2.72,1
3828,57.04,10.27,-1.11,1
3829,57.05,6.39,-6.5,1
3830,57.06,-2.51,-6.86,1
3831,57.08,-11.16,-6.58,1
3832,57.09,-15.43,-10.51,1
3833,57.11,-12.11,-10.57,1
3834,57.12,-3.06,-10.39,1
3835,57.13,0.98,-18.2,1
3836,57.15,-5.18,-20.03,1
3837,57.16,-4.64,-9.58,1
3838,57.17,10.64,-6.88,1
3839,57.19,19.32,-20.09,1
3840,57.2,9.91,-28.8,1
3841,57.21,0.05,-18.44,1
3842,57.22,3.27,-2.97,1
3843,57.24,11.46,0.66,1
3844,57.25,14.53,-7.16,1
3845,57.27,11.35,-19.05,1
3846,57.28,3.91,-26.46,1
3847,57.29,-2.93,-24.2,1
3848,57.31,-4.06,-21.48,1
3849,57.32,-0.18,-27.29,1
3850,57.33,3.3,-31.63,1
3851,57.35,2.63,-24.39,1
3852,57.36,-0.08,-15.53,1
3853,57.37,-7.52,-15.68,1
3854,57.38,-20.09,-16.09,1
3855,57.4,-18.33,-11.36,1
3856,57.41,3.27,-15.0,1
3857,57.42,18.12,-27.41,1
3858,57.44,12.23,-30.58,1
3859,57.45,2.52,-20.24,1
3860,57.46,0.12,-8.49,1
3861,57.48,-0.25,-3.34,1
3862,57.49,0.52,-1.12,1
3863,57.5,5.55,-3.56,1
3864,57.52,8.48,-18.87,1
3865,57.53,-0.89,-32.81,1
3866,57.54,-16.69,-24.62,1
3867,57.56,-18.91,-11.08,1
3868,57.57,-3.53,-14.87,1
3869,57.58,8.2,-20.87,1
3870,57.6,4.37,-17.61,1
3871,57.61,3.02,-20.7,1
3872,57.62,12.46,-26.68,1
3873,57.64,10.96,-22.31,1
3874,57.65,-5.51,-20.87,1
3875,57.67,-13.03,-20.83,1
3876,57.68,-4.42,-7.03,1
3877,57.69,4.65,3.59,1
3878,57.71,3.22,-4.7,1
3879,57.72,-2.93,-18.09,1
3880,57.73,-3.94,-17.45,1
3881,57.75,-1.2,-4.53,1
3882,57.76,-2.2,-1.65,1
3883,57.77,-8.59,-14.04,1
3884,57.79,-10.59,-18.26,1
3885,57.8,2.36,-4.23,1
3886,57.81,14.32,4.38,1
3887,57.83,1.92,-9.14,1
3888,57.84,-18.48,-22.35,1
3889,57.85,-16.88,-10.64,1
3890,57.87,-3.01,9.99,1
3891,57.88,5.27,11.71,1
3892,57.89,14.61,1.45,1
3893,57.9,20.79,1.13,1
3894,57.92,9.0,8.81,1
3895,57.93,-8.76,10.15,1
3896,57.95,-11.27,4.7,1
3897,57.96,0.09,3.6,1
3898,57.97,9.61,9.27,1
3899,57.99,4.88,9.99,1
3900,58.0,-6.94,3.27,1
3901,58.01,-7.28,0.83,1
3902,58.02,-0.04,3.43,1
3903,58.04,2.17,0.51,1
3904,58.05,4.24,-6.59,1
3905,58.06,3.37,-5.19,1
3906,58.08,-10.55,2.34,1
3907,58.09,-21.83,4.47,1
3908,58.1,-11.2,4.16,1
3909,58.12,6.19,5.16,1
3910,58.13,6.48,8.19,1
3911,58.14,-5.2,17.73,1
3912,58.16,-8.19,25.96,1
3913,58.17,-0.64,19.82,1
3914,58.18,4.36,6.27,1
3915,58.2,4.89,-5.69,1
3916,58.21,3.78,-33.36,1
3917,58.22,-4.31,-87.35,1
3918,58.24,-13.96,-135.01,1
3919,58.25,-10.6,-146.32,1
3920,58.26,3.96,-134.8,1
3921,58.28,22.44,-123.28,1
3922,58.29,38.06,-113.46,1
3923,58.31,37.32,-95.12,1
3924,58.32,22.77,-69.0,1
3925,58.33,8.24,-49.1,1
3926,58.35,-1.83,-35.3,1
3927,58.36,-5.45,-13.8,1
3928,58.37,-5.21,12.41,1
3929,58.38,-5.62,31.96,1
3930,58.4,-6.7,47.56,1
3931,58.41,-11.86,61.12,1
3932,58.43,-17.08,68.77,1
3933,58.44,-14.84,75.07,1
3934,58.45,-13.23,84.7,1
3935,58.47,-12.97,98.73,1
3936,58.48,-2.68,119.92,1
3937,58.49,9.23,139.94,1
3938,58.51,7.82,147.97,1
3939,58.52,-4.28,156.42,1
3940,58.53,-10.22,171.26,1
3941,58.54,-0.93,165.58,1
3942,58.56,6.17,135.21,1
3943,58.57,-5.73,116.72,1
3944,58.59,-19.48,119.83,1
3945,58.6,-11.19,115.12,1
3946,58.61,6.28,91.52,1
3947,58.63,5.14,70.17,1
3948,58.64,-4.09,65.32,1
3949,58.65,1.08,68.53,1
3950,58.66,1.82,66.48,1
3951,58.68,-19.6,55.32,1
3952,58.69,-31.51,39.83,1
3953,58.7,-10.94,26.42,1
3954,58.72,11.68,17.69,1
3955,58.73,12.24,13.57,1
3956,58.74,9.13,13.85,1
3957,58.76,15.35,12.92,1
3958,58.77,15.2,5.43,1
3959,58.78,0.5,-1.73,1
3960,58.8,-8.25,-2.79,1
3961,58.81,1.77,-4.13,1
3962,58.82,5.52,-10.23,1
3963,58.84,-11.38,-18.82,1
3964,58.85,-20.31,-26.62,1
3965,58.86,-6.46,-29.42,1
3966,58.88,4.22,-25.25,1
3967,58.89,-0.87,-20.4,1
3968,58.9,-1.11,-24.87,1
3969,58.92,8.63,-38.72,1
3970,58.93,6.39,-51.17,1
3971,58.95,-4.22,-54.06,1
3972,58.96,-2.94,-48.46,1
3973,58.97,1.74,-39.63,1
3974,58.99,1.31,-33.17,1
3975,59.0,3.7,-33.77,1
3976,59.01,2.58,-37.65,1
3977,59.03,-8.43,-40.13,1
3978,59.04,-12.58,-44.71,1
3979,59.05,-0.14,-48.67,1
3980,59.06,12.54,-45.75,1
3981,59.08,14.97,-43.47,1
3982,59.09,15.98,-47.22,1
3983,59.11,17.53,-48.95,1
3984,59.12,12.25,-45.62,1
3985,59.13,2.49,-40.16,1
3986,59.15,-7.55,-33.52,1
3987,59.16,-12.47,-29.9,1
3988,59.17,0.49,-31.26,1
3989,59.19,23.27,-31.77,1
3990,59.2,24.88,-30.84,1
3991,59.21,3.61,-36.24,1
3992,59.22,-7.42,-47.02,1
3993,59.24,1.68,-49.97,1
3994,59.25,7.41,-42.45,1
3995,59.27,1.23,-37.6,1
3996,59.28,-1.32,-42.46,1
3997,59.29,2.98,-47.62,1
3998,59.3,2.75,-42.86,1
3999,59.32,-3.05,-32.88,1
4000,59.33,-4.41,-27.92,1
4001,59.34,1.56,-28.07,1
4002,59.36,2.96,-29.4,1
4003,59.37,-7.55,-29.17,1
4004,59.38,-18.48,-24.86,1
4005,59.4,-19.42,-18.97,1
4006,59.41,-12.24,-13.27,1
4007,59.42,0.38,-10.1,1
4008,59.44,12.82,-15.31,1
4009,59.45,13.02,-22.49,1
4010,59.46,0.25,-20.0,1
4011,59.48,-10.91,-11.91,1
4012,59.49,-9.74,-5.41,1
4013,59.5,-2.28,0.58,1
4014,59.52,-1.79,1.39,1
4015,59.53,-5.25,-6.87,1
4016,59.54,0.84,-12.52,1
4017,59.56,10.21,-4.62,1
4018,59.57,5.47,6.71,1
4019,59.59,-6.89,4.71,1
4020,59.6,-7.11,-4.05,1
4021,59.61,2.32,-2.43,1
4022,59.63,6.64,7.63,1
4023,59.64,6.75,12.62,1
4024,59.65,8.32,5.59,1
4025,59.67,7.45,-4.26,1
4026,59.68,-0.03,-1.94,1
4027,59.69,-8.41,8.85,1
4028,59.71,-5.8,15.0,1
4029,59.72,4.87,14.8,1
4030,59.73,8.11,12.01,1
4031,59.75,4.49,9.65,1
4032,59.76,3.25,9.65,1
4033,59.77,2.73,13.56,1
4034,59.79,1.31,22.0,1
4035,59.8,-1.5,27.25,1
4036,59.81,-5.82,20.61,1
4037,59.83,-4.87,8.68,1
4038,59.84,-1.12,6.21,1
4039,59.85,-4.65,11.63,1
4040,59.87,-8.25,9.99,1
4041,59.88,-2.85,1.57,1
4042,59.89,0.99,-0.32,1
4043,59.9,-3.33,6.79,1
4044,59.92,-6.1,14.35,1
4045,59.93,-3.93,17.65,1
4046,59.94,-0.35,17.89,1
4047,59.96,5.12,13.49,1
4048,59.97,6.35,6.24,1
4049,59.98,-1.25,7.13,1
4050,60.0,-4.24,17.64,1
4051,60.01,1.93,21.07,1
4052,60.02,2.81,9.63,1
4053,60.04,0.95,0.47,1
4054,60.05,5.82,8.77,1
4055,60.06,4.73,23.37,1
4056,60.08,-7.72,24.85,1
4057,60.09,-12.39,16.31,1
4058,60.1,-4.71,15.51,1
4059,60.12,-1.04,23.1,1
4060,60.13,-1.05,27.83,1
4061,60.14,3.92,28.42,1
4062,60.16,8.16,30.38,1
4063,60.17,8.2,56.87,1
4064,60.18,6.41,137.86,1
4065,60.2,0.54,240.76,1
4066,60.21,-7.28,290.42,1
4067,60.22,-9.87,271.99,1
4068,60.24,-2.75,219.34,1
4069,60.25,9.17,159.8,1
4070,60.27,12.32,105.86,1
4071,60.28,4.36,46.3,1
4072,60.29,-4.93,-13.95,1
4073,60.31,-14.99,-47.45,1
4074,60.32,-19.83,-70.19,1
4075,60.33,-7.5,-112.26,1
4076,60.35,3.97,-162.41,1
4077,60.36,-6.54,-191.87,1
4078,60.37,-20.22,-185.83,1
4079,60.38,-17.38,-159.97,1
4080,60.4,-8.04,-138.0,1
4081,60.41,-2.16,-120.71,1
4082,60.43,4.77,-109.18,1
4083,60.44,13.73,-108.34,1
4084,60.45,18.19,-107.12,1
4085,60.47,17.87,-99.28,1
4086,60.48,14.43,-95.73,1
4087,60.49,7.13,-96.89,1
4088,60.51,5.73,-87.49,1
4089,60.52,13.74,-65.71,1
4090,60.53,13.67,-51.05,1
4091,60.54,0.64,-52.66,1
4092,60.56,-10.56,-57.69,1
4093,60.57,-12.33,-56.18,1
4094,60.58,-7.46,-46.5,1
4095,60.6,2.05,-30.56,1
4096,60.61,18.61,-21.09,1
4097,60.62,31.32,-28.09,1
4098,60.64,19.93,-29.86,1
4099,60.65,-6.62,-11.24,1
4100,60.66,-20.12,1.98,1
4101,60.68,-15.4,-0.86,1
4102,60.69,-2.57,4.01,1
4103,60.7,12.31,17.17,1
4104,60.72,19.46,17.42,1
4105,60.73,8.32,9.66,1
4106,60.74,-11.11,12.5,1
4107,60.76,-14.43,21.17,1
4108,60.77,-0.49,24.57,1
4109,60.78,8.36,25.0,1
4110,60.8,2.8,27.32,1
4111,60.81,-3.88,32.65,1
4112,60.82,1.91,39.16,1
4113,60.84,11.17,39.96,1
4114,60.85,10.44,30.8,1
4115,60.86,6.12,22.11,1
4116,60.88,2.92,27.62,1
4117,60.89,-1.59,38.47,1
4118,60.9,-1.42,37.11,1
4119,60.92,0.17,29.83,1
4120,60.93,-7.41,32.3,1
4121,60.95,-14.96,40.77,1
4122,60.96,-10.37,43.1,1
4123,60.97,-4.6,40.9,1
4124,60.99,-10.09,41.71,1
4125,61.0,-18.34,41.97,1
4126,61.01,-15.79,37.47,1
4127,61.03,-5.11,29.85,1
4128,61.04,0.47,21.6,1
4129,61.05,1.31,20.97,1
4130,61.06,9.53,32.61,1
4131,61.08,16.68,40.02,1
4132,61.09,6.44,33.82,1
4133,61.11,-13.17,31.07,1
4134,61.12,-22.41,37.0,1
4135,61.13,-15.77,32.43,1
4136,61.15,-3.96,18.08,1
4137,61.16,1.56,18.03,1
4138,61.17,1.59,33.71,1
4139,61.19,2.09,39.29,1
4140,61.2,4.67,27.03,1
4141,61.21,5.46,13.0,1
4142,61.22,-0.3,8.14,1
4143,61.24,-7.05,13.03,1
4144,61.25,-4.23,21.91,1
4145,61.26,2.45,22.92,1
4146,61.28,0.45,11.85,1
4147,61.29,-6.87,5.19,1
4148,61.3,-10.92,12.36,1
4149,61.32,-10.26,15.04,1
4150,61.33,-6.83,4.07,1
4151,61.34,-5.05,-1.75,1
4152,61.36,-0.25,4.64,1
4153,61.37,16.21,7.88,1
4154,61.38,28.77,6.05,1
4155,61.4,17.7,7.3,1
4156,61.41,0.5,6.24,1
4157,61.42,-0.38,2.08,1
4158,61.44,-0.37,3.01,1
4159,61.45,-11.48,4.34,1
4160,61.46,-13.95,1.1,1
4161,61.48,-2.41,-0.33,1
4162,61.49,5.18,-0.75,1
4163,61.5,6.38,-2.9,1
4164,61.52,6.87,-6.23,1
4165,61.53,1.77,-14.85,1
4166,61.54,-7.58,-21.06,1
4167,61.56,-11.6,-9.91,1
4168,61.57,-7.23,5.03,1
4169,61.59,2.62,0.23,1
4170,61.6,11.81,-15.05,1
4171,61.61,11.58,-15.84,1
4172,61.63,-0.04,-3.33,1
4173,61.64,-9.83,1.12,1
4174,61.65,-7.12,-5.32,1
4175,61.67,-0.17,-10.36,1
4176,61.68,0.91,-14.67,1
4177,61.69,-4.41,-19.23,1
4178,61.71,-10.57,-17.24,1
4179,61.72,-10.67,-11.4,1
4180,61.73,-6.91,-7.29,1
4181,61.75,-3.38,-9.29,1
4182,61.76,0.64,-22.9,1
4183,61.77,5.2,-33.62,1
4184,61.79,12.92,-21.19,1
4185,61.8,21.63,-0.4,1
4186,61.81,19.1,2.83,1
4187,61.83,4.98,-7.09,1
4188,61.84,-1.24,-13.12,1
4189,61.85,4.58,-13.82,1
4190,61.86,4.12,-15.73,1
4191,61.88,-1.56,-16.77,1
4192,61.89,3.97,-12.18,1
4193,61.9,13.92,-8.93,1
4194,61.92,9.95,-12.9,1
4195,61.93,-5.89,-17.71,1
4196,61.94,-13.1,-17.45,1
4197,61.96,-1.39,-12.28,1
4198,61.97,15.31,-3.63,1
4199,61.98,17.73,3.89,1
4200,62.0,2.16,0.33,1
4201,62.01,-13.94,-15.88,1
4202,62.02,-8.45,-26.43,1
4203,62.04,8.14,-21.18,1
4204,62.05,7.54,-16.55,1
4205,62.06,-2.36,-16.35,1
4206,62.08,-2.33,-8.78,1
4207,62.09,-4.8,-2.61,1
4208,62.1,-17.59,-8.07,1
4209,62.12,-25.08,-13.19,1
4210,62.13,-17.36,-5.88,1
4211,62.14,-1.16,5.5,1
4212,62.16,6.42,20.46,1
4213,62.17,-1.99,69.95,1
4214,62.19,-8.58,140.28,1
4215,62.2,-2.01,149.67,1
4216,62.21,4.29,85.44,1
4217,62.22,12.77,29.79,1
4218,62.24,30.12,3.33,1
4219,62.25,28.21,-13.83,1
4220,62.27,-2.86,19.12,1
4221,62.28,-26.15,68.47,1
4222,62.29,-22.03,31.09,1
4223,62.31,-8.06,-49.32,1
4224,62.32,-1.91,-61.31,1
4225,62.33,-0.2,-49.14,1
4226,62.35,11.03,-79.87,1
4227,62.36,23.33,-77.15,1
4228,62.37,14.71,-32.13,1
4229,62.38,-5.55,-43.62,1
4230,62.4,-14.14,-82.31,1
4231,62.41,-14.73,-75.04,1
4232,62.43,-18.14,-49.36,1
4233,62.44,-13.24,-29.01,1
4234,62.45,3.32,-18.2,1
4235,62.47,8.21,-27.88,1
4236,62.48,0.41,-24.53,1
4237,62.49,5.97,-12.17,1
4238,62.5,15.78,-48.2,1
4239,62.52,2.3,-84.42,1
4240,62.53,-16.15,-37.01,1
4241,62.54,-12.66,18.46,1
4242,62.56,-1.88,-18.94,1
4243,62.57,-1.08,-61.22,1
4244,62.58,-5.09,-5.71,1
4245,62.6,-5.87,54.53,1
4246,62.61,-0.52,16.15,1
4247,62.62,2.66,-52.75,1
4248,62.64,-1.04,-68.27,1
4249,62.65,3.06,-48.87,1
4250,62.66,17.69,-27.56,1
4251,62.68,23.43,-22.21,1
4252,62.69,13.58,-29.13,1
4253,62.7,3.07,-24.92,1
4254,62.72,1.35,-37.7,1
4255,62.73,2.08,-62.93,1
4256,62.74,-1.27,-24.27,1
4257,62.76,-5.81,45.93,1
4258,62.77,-3.03,41.18,1
4259,62.78,6.6,-13.53,1
4260,62.8,10.39,-24.41,1
4261,62.81,2.58,-0.57,1
4262,62.83,-9.84,9.0,1
4263,62.84,-14.04,19.74,1
4264,62.85,-4.35,26.33,1
4265,62.87,3.43,-6.64,1
4266,62.88,-2.03,-27.34,1
4267,62.89,-6.01,1.02,1
4268,62.9,0.2,11.57,1
4269,62.92,3.63,7.91,1
4270,62.93,-5.58,47.46,1
4271,62.95,-16.44,73.78,1
4272,62.96,-6.62,36.76,1
4273,62.97,17.62,6.72,1
4274,62.99,22.16,15.21,1
4275,63.0,4.14,17.45,1
4276,63.01,-4.55,17.9,1
4277,63.03,9.28,39.31,1
4278,63.04,26.61,67.24,1
4279,63.05,24.98,72.29,1
4280,63.06,7.65,38.12,1
4281,63.08,-8.45,9.8,1
4282,63.09,-16.35,22.94,1
4283,63.11,-4.92,35.88,1
4284,63.12,22.13,22.85,1
4285,63.13,25.35,6.98,1
4286,63.14,-1.01,9.13,1
4287,63.16,-17.03,34.65,1
4288,63.17,-13.96,57.22,1
4289,63.18,-8.12,39.82,1
4290,63.2,-4.48,14.51,1
4291,63.21,-9.35,36.79,1
4292,63.22,-18.74,64.48,1
4293,63.24,-15.84,41.46,1
4294,63.25,-3.72,14.29,1
4295,63.26,0.91,18.58,1
4296,63.28,-0.82,16.52,1
4297,63.29,4.87,-2.34,1
4298,63.3,9.7,-9.66,1
4299,63.32,0.17,-1.58,1
4300,63.33,-4.75,2.04,1
4301,63.34,1.74,-4.58,1
4302,63.36,-5.41,-10.58,1
4303,63.37,-18.4,-21.48,1
4304,63.38,-9.27,-30.91,1
4305,63.4,0.6,5.41,1
4306,63.41,-12.96,71.95,1
4307,63.42,-21.15,71.33,1
4308,63.44,-9.17,-8.34,1
4309,63.45,-2.76,-60.33,1
4310,63.46,-3.48,-39.16,1
4311,63.48,6.98,-3.03,1
4312,63.49,12.61,7.43,1
4313,63.51,-3.04,6.18,1
4314,63.52,-10.97,23.49,1
4315,63.53,6.84,46.08,1
4316,63.54,16.75,27.07,1
4317,63.56,-1.49,-12.74,1
4318,63.57,-17.67,-25.15,1
4319,63.59,-10.19,-27.35,1
4320,63.6,4.63,-37.63,1
4321,63.61,9.43,-28.31,1
4322,63.63,2.1,9.12,1
4323,63.64,-3.63,21.39,1
4324,63.65,5.66,-25.07,1
4325,63.67,17.21,-64.54,1
4326,63.68,13.7,-37.39,1
4327,63.69,0.58,0.48,1
4328,63.71,-7.88,-9.74,1
4329,63.72,-5.26,-23.69,1
4330,63.73,1.6,-8.96,1
4331,63.75,-0.69,-1.38,1
4332,63.76,-6.6,-1.19,1
4333,63.77,-2.25,6.9,1
4334,63.78,4.38,-0.58,1
4335,63.8,4.23,-24.89,1
4336,63.81,6.14,-40.72,1
4337,63.82,9.42,-44.47,1
4338,63.84,4.59,-37.56,1
4339,63.85,-2.64,-7.6,1
4340,63.86,-0.21,36.83,1
4341,63.88,11.16,60.04,1
4342,63.89,18.56,40.98,1
4343,63.9,12.67,0.02,1
4344,63.92,-0.41,-8.66,1
4345,63.93,-10.93,29.54,1
4346,63.94,-13.35,51.18,1
4347,63.96,-9.87,29.96,1
4348,63.97,-12.82,19.23,1
4349,63.98,-16.25,23.47,1
4350,64.0,-5.36,5.07,1
4351,64.01,6.27,-10.42,1
4352,64.02,5.16,-3.11,1
4353,64.04,0.76,-12.24,1
4354,64.05,-0.04,-30.35,1
4355,64.06,4.5,-11.16,1
4356,64.08,10.2,12.77,1
4357,64.09,3.34,-4.78,1
4358,64.1,-11.32,-23.52,1
4359,64.12,-10.29,-1.9,1
4360,64.13,5.41,36.65,1
4361,64.14,16.31,55.99,1
4362,64.16,15.66,49.54,1
4363,64.17,4.84,28.83,1
4364,64.18,-6.84,1.73,1
4365,64.2,-7.27,-20.88,1
4366,64.21,-4.33,-30.16,1
4367,64.22,-8.36,-42.46,1
4368,64.24,-14.11,-77.86,1
4369,64.25,-13.73,-121.04,1
4370,64.26,-0.9,-147.29,1
4371,64.28,13.97,-164.81,1
4372,64.29,10.74,-178.26,1
4373,64.3,1.4,-163.92,1
4374,64.32,9.57,-124.64,1
4375,64.33,22.81,-92.69,1
4376,64.34,19.08,-72.87,1
4377,64.36,9.92,-36.94,1
4378,64.37,10.72,23.83,1
4379,64.38,6.07,76.22,1
4380,64.4,-12.11,96.81,1
4381,64.41,-21.33,104.67,1
4382,64.42,-14.86,110.91,1
4383,64.44,-13.75,102.96,1
4384,64.45,-22.61,87.57,1
4385,64.46,-23.17,84.96,1
4386,64.48,-8.54,87.42,1
4387,64.49,8.43,73.93,1
4388,64.5,14.65,55.16,1
4389,64.52,8.41,54.86,1
4390,64.53,-2.04,63.05,1
4391,64.54,-4.0,60.26,1
4392,64.56,4.26,52.83,1
4393,64.57,9.95,45.5,1
4394,64.58,7.13,33.82,1
4395,64.6,2.35,29.18,1
4396,64.61,-1.62,35.76,1
4397,64.62,-2.85,32.93,1
4398,64.64,-1.91,21.01,1
4399,64.65,-1.4,23.03,1
4400,64.66,3.88,32.51,1
4401,64.68,10.3,25.73,1
4402,64.69,7.25,8.82,1
4403,64.7,1.85,-1.3,1
4404,64.72,3.71,-5.23,1
4405,64.73,7.47,-0.85,1
4406,64.74,5.67,14.07,1
4407,64.76,-2.97,21.37,1
4408,64.77,-10.96,9.3,1
4409,64.79,-7.97,-1.21,1
4410,64.8,1.17,4.18,1
4411,64.81,1.58,4.9,1
4412,64.82,-5.89,-8.17,1
4413,64.84,-6.88,-12.55,1
4414,64.85,1.21,0.32,1
4415,64.86,6.7,10.26,1
4416,64.88,3.23,2.8,1
4417,64.89,-3.01,-7.97,1
4418,64.9,-7.81,-3.63,1
4419,64.92,-7.13,2.62,1
4420,64.93,2.39,-9.27,1
4421,64.94,5.91,-22.9,1
4422,64.96,-5.42,-17.61,1
4423,64.97,-11.53,-4.66,1
4424,64.98,-3.56,1.63,1
4425,65.0,2.24,1.55,1
4426,65.01,-0.51,-2.03,1
4427,65.02,-3.97,-5.43,1
4428,65.04,-2.56,-8.59,1
4429,65.05,3.31,-13.64,1
4430,65.06,7.0,-12.92,1
4431,65.08,3.06,-2.7,1
4432,65.09,-1.05,2.04,1
4433,65.1,5.48,-7.26,1
4434,65.12,16.1,-13.8,1
4435,65.13,13.5,-5.96,1
4436,65.14,-3.49,-4.06,1
4437,65.16,-15.41,-20.8,1
4438,65.17,-12.39,-29.31,1
4439,65.18,-6.05,-13.38,1
4440,65.2,-3.75,3.17,1
4441,65.21,-0.73,-0.48,1
4442,65.22,1.51,-14.01,1
4443,65.24,-1.31,-19.5,1
4444,65.25,-1.37,-16.92,1
4445,65.26,9.09,-14.44,1
4446,65.28,16.14,-12.08,1
4447,65.29,6.2,-7.76,1
4448,65.3,-4.67,-8.03,1
4449,65.32,-1.38,-17.52,1
4450,65.33,2.15,-24.28,1
4451,65.34,-3.8,-20.83,1
4452,65.36,-3.41,-18.76,1
4453,65.37,10.07,-23.03,1
4454,65.38,18.71,-23.34,1
4455,65.4,12.15,-15.75,1
4456,65.41,1.99,-14.43,1
4457,65.42500000000001,1.22,-28.91,1
4458,65.44,6.86,-38.61,1
4459,65.45,5.65,-23.42,1
4460,65.46,-3.49,-6.61,1
4461,65.48,-9.11,-13.93,1
4462,65.49,-9.22,-21.33,1
4463,65.5,-8.75,-10.51,1
4464,65.52,-5.55,-4.58,1
4465,65.53,-0.33,-9.3,1
4466,65.54,2.93,-10.29,1
4467,65.56,5.89,-14.21,1
4468,65.57,5.63,-21.09,1
4469,65.58,1.05,-11.62,1
4470,65.6,2.14,8.29,1
4471,65.61,7.07,14.49,1
4472,65.62,2.12,5.85,1
4473,65.64,-10.06,-1.7,1
4474,65.65,-12.81,0.43,1
4475,65.66,-1.99,4.82,1
4476,65.68,8.0,1.68,1
4477,65.69,8.48,-3.96,1
4478,65.7,6.37,-5.34,1
4479,65.72,5.81,-11.42,1
4480,65.73,3.42,-26.67,1
4481,65.74,-0.4,-28.48,1
4482,65.76,-3.05,-4.51,1
4483,65.77,-5.32,14.02,1
4484,65.78,-5.93,1.96,1
4485,65.8,-3.04,-16.95,1
4486,65.81,-0.54,-10.31,1
4487,65.82,-0.62,8.94,1
4488,65.84,-0.69,9.42,1
4489,65.85,-0.48,-4.5,1
4490,65.86,-2.4,-10.45,1
4491,65.88,-5.32,-0.79,1
4492,65.89,-2.14,9.29,1
4493,65.9,4.01,-0.07,1
4494,65.92,1.02,-14.91,1
4495,65.93,-7.87,-11.07,1
4496,65.94,-10.17,1.33,1
4497,65.96,-4.85,6.6,1
4498,65.97,-2.81,8.8,1
4499,65.98,-9.51,9.39,1
4500,66.0,-11.08,6.22,1
4501,66.01,1.69,6.38,1
4502,66.02,8.89,6.85,1
4503,66.04,-3.62,-1.89,1
4504,66.05,-15.09,-5.78,1
4505,66.06,-6.93,4.81,1
4506,66.08,3.96,11.13,1
4507,66.09,-2.76,5.29,1
4508,66.11,-13.66,0.19,1
4509,66.12,-8.32,4.38,1
4510,66.13,1.97,13.06,1
4511,66.14,0.49,14.65,1
4512,66.16,-3.0,5.59,1
4513,66.17,-2.0,-1.25,1
4514,66.18,-6.09,9.71,1
4515,66.2,-9.11,27.12,1
4516,66.21,1.73,25.12,1
4517,66.22,15.17,4.48,1
4518,66.24,13.61,-23.23,1
4519,66.25,1.67,-49.38,1
4520,66.26,-4.88,-57.6,1
4521,66.28,-0.34,-50.29,1
4522,66.29,10.75,-43.78,1
4523,66.3,18.78,-45.7,1
4524,66.32,20.51,-69.82,1
4525,66.33,21.4,-112.28,1
4526,66.34,19.04,-134.65,1
4527,66.36,9.0,-121.45,1
4528,66.37,-1.69,-104.54,1
4529,66.38,-6.6,-99.71,1
4530,66.4,-3.17,-81.34,1
4531,66.41,7.78,-45.84,1
4532,66.42,12.83,-20.42,1
4533,66.44,4.63,-2.83,1
4534,66.45,-3.88,24.8,1
4535,66.46,-6.13,51.04,1
4536,66.48,-8.36,64.09,1
4537,66.49,-13.63,73.71,1
4538,66.5,-21.09,88.14,1
4539,66.52,-24.41,106.42,1
4540,66.53,-22.27,123.89,1
4541,66.54,-19.35,137.8,1
4542,66.56,-9.92,149.03,1
4543,66.57,3.27,154.53,1
4544,66.58,2.26,152.13,1
4545,66.6,-8.06,147.41,1
4546,66.61,-8.11,138.91,1
4547,66.62,-2.3,123.22,1
4548,66.64,-3.6,112.44,1
4549,66.65,-7.39,107.97,1
4550,66.66,-4.46,91.75,1
4551,66.68,0.58,71.91,1
4552,66.69,-0.94,71.14,1
4553,66.7,-4.79,75.98,1
4554,66.72,-1.64,64.14,1
4555,66.73,5.67,48.03,1
4556,66.75,7.68,43.5,1
4557,66.76,4.46,44.22,1
4558,66.77,2.68,43.24,1
4559,66.79,4.41,35.48,1
4560,66.8,7.8,16.71,1
4561,66.81,8.99,-0.07,1
4562,66.82,7.05,-1.18,1
4563,66.84,8.51,0.56,1
4564,66.85,14.41,-7.26,1
4565,66.86,14.03,-13.68,1
4566,66.88,1.21,-16.38,1
4567,66.89,-10.28,-25.2,1
4568,66.9,-3.43,-34.49,1
4569,66.92,9.83,-35.86,1
4570,66.93,3.93,-32.09,1
4571,66.94,-11.68,-26.47,1
4572,66.96,-7.17,-25.28,1
4573,66.97,8.54,-31.63,1
4574,66.98,7.84,-33.57,1
4575,67.0,-1.39,-29.8,1
4576,67.01,-0.39,-35.79,1
4577,67.02,5.18,-47.29,1
4578,67.04,3.53,-45.76,1
4579,67.05,-2.32,-37.28,1
4580,67.06,-3.74,-37.83,1
4581,67.08,-3.71,-44.82,1
4582,67.09,-4.04,-50.43,1
4583,67.1,2.92,-51.97,1
4584,67.12,10.7,-50.72,1
4585,67.13,5.72,-53.25,1
4586,67.14,-3.93,-56.33,1
4587,67.16,-5.52,-46.21,1
4588,67.17,-3.84,-29.52,1
4589,67.18,-2.27,-29.45,1
4590,67.2,4.42,-40.71,1
4591,67.21,11.64,-40.01,1
4592,67.22,11.31,-32.42,1
4593,67.24,6.34,-35.11,1
4594,67.25,1.3,-44.42,1
4595,67.26,-5.47,-48.51,1
4596,67.28,-8.89,-47.04,1
4597,67.29,-0.66,-44.25,1
4598,67.3,9.0,-35.41,1
4599,67.32,4.98,-24.69,1
4600,67.33,-4.37,-26.13,1
4601,67.34,-2.33,-29.08,1
4602,67.36,6.72,-22.04,1
4603,67.37,7.92,-23.31,1
4604,67.38,1.28,-35.29,1
4605,67.4,-2.91,-34.11,1
4606,67.41,-3.96,-22.71,1
4607,67.43,-4.19,-21.81,1
4608,67.44,-2.19,-25.81,1
4609,67.45,-3.5,-23.88,1
4610,67.46,-7.57,-21.59,1
4611,67.48,-2.66,-19.57,1
4612,67.49,6.2,-14.77,1
4613,67.5,3.14,-11.28,1
4614,67.52,-6.44,-11.21,1
4615,67.53,-7.79,-10.15,1
4616,67.54,1.14,-4.96,1
4617,67.56,11.29,-0.47,1
4618,67.57,10.93,0.7,1
4619,67.58,4.15,0.01,1
4620,67.6,3.6,-7.82,1
4621,67.61,3.69,-16.48,1
4622,67.62,-3.79,-10.13,1
4623,67.64,-10.32,1.22,1
4624,67.65,-5.7,0.79,1
4625,67.66,6.33,-3.74,1
4626,67.68,11.54,-2.95,1
4627,67.69,7.6,-0.01,1
4628,67.7,6.8,2.11,1
4629,67.72,7.42,3.79,1
4630,67.73,-0.56,2.3,1
4631,67.74,-8.39,-0.34,1
4632,67.76,-6.08,1.76,1
4633,67.77,1.23,7.02,1
4634,67.78,7.12,8.32,1
4635,67.8,6.13,7.27,1
4636,67.81,-1.68,9.49,1
4637,67.82,-6.31,9.67,1
4638,67.84,-7.29,6.07,1
4639,67.85,-10.04,9.14,1
4640,67.86,-8.03,15.97,1
4641,67.88,0.31,13.96,1
4642,67.89,5.89,8.4,1
4643,67.9,8.29,13.28,1
4644,67.92,9.17,26.34,1
4645,67.93,1.25,31.09,1
4646,67.94,-13.87,22.05,1
4647,67.96,-20.99,10.39,1
4648,67.97,-13.59,1.89,1
4649,67.98,-2.07,-2.16,1
4650,68.0,0.69,4.93,1
4651,68.01,-4.82,18.77,1
4652,68.02,-6.75,24.88,1
4653,68.04,2.58,20.95,1
4654,68.05,13.22,16.82,1
4655,68.06,10.6,20.92,1
4656,68.08,3.85,30.62,1
4657,68.09,5.74,34.95,1
4658,68.11,4.19,26.84,1
4659,68.12,-7.36,11.61,1
4660,68.13,-14.22,4.27,1
4661,68.14,-8.72,12.62,1
4662,68.16,-0.1,29.25,1
4663,68.17,1.48,47.32,1
4664,68.18,-1.34,64.01,1
4665,68.2,1.62,66.04,1
4666,68.21,9.83,45.95,1
4667,68.22,7.99,21.71,1
4668,68.24,-4.9,10.49,1
4669,68.25,-7.89,14.98,1
4670,68.26,1.07,45.89,1
4671,68.28,2.95,122.18,1
4672,68.29,-0.56,230.54,1
4673,68.3,4.8,305.52,1
4674,68.32,14.45,291.45,1
4675,68.33,11.28,210.2,1
4676,68.34,-10.81,122.24,1
4677,68.36,-34.58,45.61,1
4678,68.37,-40.65,-31.79,1
4679,68.38,-36.72,-91.63,1
4680,68.4,-35.1,-117.7,1
4681,68.41,-24.93,-141.51,1
4682,68.42,0.75,-183.12,1
4683,68.44,21.96,-206.67,1
4684,68.45,24.66,-185.7,1
4685,68.46,23.9,-150.11,1
4686,68.48,27.18,-131.19,1
4687,68.49,21.12,-120.35,1
4688,68.5,7.62,-109.37,1
4689,68.52,0.11,-105.08,1
4690,68.53,2.83,-104.26,1
4691,68.54,12.09,-98.69,1
4692,68.56,16.2,-85.28,1
4693,68.57,9.13,-67.03,1
4694,68.58,2.57,-55.88,1
4695,68.6,4.7,-59.83,1
4696,68.61,13.07,-66.01,1
4697,68.62,29.36,-56.55,1
4698,68.64,43.09,-35.46,1
4699,68.65,33.2,-20.65,1
4700,68.66,9.87,-18.72,1
4701,68.68,-2.52,-22.98,1
4702,68.69,-7.08,-23.07,1
4703,68.7,-10.93,-14.92,1
4704,68.72,-8.95,-8.53,1
4705,68.73,-3.39,-9.51,1
4706,68.75,-1.91,-6.82,1
4707,68.76,-4.06,0.52,1
4708,68.77,-3.32,1.57,1
4709,68.79,-1.6,0.9,1
4710,68.8,-8.75,8.16,1
4711,68.81,-17.19,18.58,1
4712,68.82,-15.96,21.03,1
4713,68.84,-12.94,14.24,1
4714,68.85,-11.7,11.79,1
4715,68.86,-8.01,21.74,1
4716,68.88,-5.8,31.59,1
4717,68.89,-6.01,29.09,1
4718,68.9,-3.75,20.8,1
4719,68.92,-0.67,19.08,1
4720,68.93,-3.99,25.99,1
4721,68.94,-12.12,37.25,1
4722,68.96,-12.97,47.03,1
4723,68.97,-7.37,47.55,1
4724,68.98,-8.8,40.04,1
4725,69.0,-12.23,34.84,1
4726,69.01,-7.51,31.72,1
4727,69.02,-5.61,27.07,1
4728,69.04,-10.6,29.26,1
4729,69.05,-10.07,35.9,1
4730,69.06,-4.86,33.3,1
4731,69.08,-0.64,27.35,1
4732,69.09,5.05,29.91,1
4733,69.1,6.87,36.44,1
4734,69.12,0.8,37.48,1
4735,69.13,-0.67,30.51,1
4736,69.14,6.65,21.4,1
4737,69.16,7.02,16.65,1
4738,69.17,0.42,14.64,1
4739,69.18,2.72,15.42,1
4740,69.2,8.41,19.65,1
4741,69.21,4.81,19.81,1
4742,69.22,2.01,16.93,1
4743,69.24,6.16,24.2,1
4744,69.25,5.64,32.33,1
4745,69.26,1.1,18.88,1
4746,69.28,-2.62,-3.83,1
4747,69.29,-9.53,-4.42,1
4748,69.3,-12.99,13.73,1
4749,69.32,-6.54,23.59,1
4750,69.33,1.28,18.82,1
4751,69.34,4.51,18.16,1
4752,69.36,4.74,27.02,1
4753,69.37,5.07,25.5,1
4754,69.38,8.95,11.3,1
4755,69.4,9.91,6.73,1
4756,69.41,2.76,12.72,1
4757,69.43,0.33,15.35,1
4758,69.44,5.59,17.16,1
4759,69.45,1.62,19.38,1
4760,69.46,-8.54,11.88,1
4761,69.48,-6.19,-4.7,1
4762,69.49,1.42,-14.7,1
4763,69.5,-1.12,-6.4,1
4764,69.52,-5.71,10.01,1
4765,69.53,-1.05,12.26,1
4766,69.54,7.94,-0.51,1
4767,69.56,7.23,-7.88,1
4768,69.57,-7.21,-1.55,1
4769,69.58,-14.61,5.83,1
4770,69.6,1.83,3.39,1
4771,69.61,18.08,-2.76,1
4772,69.62,8.34,-2.31,1
4773,69.64,-7.37,0.12,1
4774,69.65,-7.09,-3.86,1
4775,69.66,-3.74,-9.28,1
4776,69.68,-5.15,-8.38,1
4777,69.69,-0.94,-2.32,1
4778,69.7,6.18,-1.34,1
4779,69.72,4.19,-10.58,1
4780,69.73,-4.22,-21.2,1
4781,69.74,-7.86,-25.83,1
4782,69.76,-4.22,-23.19,1
4783,69.77,3.45,-14.58,1
4784,69.78,9.84,-8.28,1
4785,69.8,7.83,-5.15,1
4786,69.81,-2.54,0.26,1
4787,69.82,-8.37,-0.09,1
4788,69.84,-0.41,-10.33,1
4789,69.85,6.81,-17.36,1
4790,69.86,-3.08,-17.12,1
4791,69.88,-13.39,-13.33,1
4792,69.89,-5.26,-4.5,1
4793,69.9,3.95,0.79,1
4794,69.92,-4.11,-6.19,1
4795,69.93,-10.16,-10.28,1
4796,69.94,5.34,-3.79,1
4797,69.96,19.54,-4.21,1
4798,69.97,11.46,-15.55,1
4799,69.98,1.54,-23.21,1
4800,70.0,5.18,-23.4,1
4801,70.01,4.94,-20.54,1
4802,70.02,-3.45,-12.3,1
4803,70.04,-0.33,-3.19,1
4804,70.05,10.38,-2.02,1
4805,70.06,8.68,-3.87,1
4806,70.08,2.86,-7.42,1
4807,70.09,3.47,-13.9,1
4808,70.11,-2.41,-16.07,1
4809,70.12,-15.24,-19.14,1
4810,70.13,-13.4,-24.46,1
4811,70.14,6.1,-20.01,1
4812,70.16,20.36,-15.35,1
4813,70.17,16.22,-14.78,1
4814,70.18,1.79,8.8,1
4815,70.2,-11.41,56.87,1
4816,70.21,-15.43,92.17,1
4817,70.22,-6.69,75.19,1
4818,70.24,6.8,-0.7,1
4819,70.25,13.09,-43.68,1
4820,70.26,14.53,36.68,1
4821,70.28,20.91,135.26,1
4822,70.29,25.8,104.71,1
4823,70.3,16.75,6.28,1
4824,70.32,0.26,-58.48,1
4825,70.33,-10.36,-91.78,1
4826,70.34,-12.59,-23.86,1
4827,70.36,-10.86,152.88,1
4828,70.37,-2.79,236.32,1
4829,70.38,2.85,186.1,1
4830,70.4,-20.16,137.71,1
4831,70.41,-45.24,46.45,1
4832,70.42,-24.31,-96.6,1
4833,70.44,12.7,-74.97,1
4834,70.45,14.18,106.7,1
4835,70.46,-7.78,132.79,1
4836,70.48,-8.59,-43.8,1
4837,70.49,9.95,-130.22,1
4838,70.5,6.22,-50.54,1
4839,70.52,-12.96,-4.27,1
4840,70.53,-4.98,-51.42,1
4841,70.54,24.77,-73.19,1
4842,70.56,37.25,-46.79,1
4843,70.57,19.16,-60.24,1
4844,70.58,-9.0,-105.14,1
4845,70.6,-17.19,-90.55,1
4846,70.61,-6.54,-37.4,1
4847,70.62,-8.89,-40.78,1
4848,70.64,-25.62,-87.8,1
4849,70.65,-28.95,-127.17,1
4850,70.66,-14.66,-174.22,1
4851,70.68,-0.97,-191.91,1
4852,70.69,1.12,-128.66,1
4853,70.7,0.58,-51.25,1
4854,70.72,8.83,-22.4,1
4855,70.73,17.47,-27.21,1
4856,70.75,19.19,-58.42,1
4857,70.76,19.49,-96.78,1
4858,70.77,14.61,-90.93,1
4859,70.79,-1.24,-51.67,1
4860,70.8,-16.0,-41.82,1
4861,70.81,-12.88,-56.52,1
4862,70.82,4.98,-70.92,1
4863,70.84,8.67,-78.57,1
4864,70.85,-6.28,-31.25,1
4865,70.86,-5.79,30.71,1
4866,70.88,8.76,0.36,1
4867,70.89,9.53,-56.24,1
4868,70.9,6.3,-45.85,1
4869,70.92,4.52,-31.05,1
4870,70.93,-9.92,-23.79,1
4871,70.94,-19.59,25.4,1
4872,70.96,-10.06,46.48,1
4873,70.97,-0.08,11.21,1
4874,70.98,3.13,12.12,1
4875,71.0,5.76,31.3,1
4876,71.01,1.61,10.96,1
