,Timestamp,Data1,Data2,Label
0,6.0,-12.29,-13.26,0
1,6.01,-10.84,-7.54,0
2,6.03,-25.79,0.04,0
3,6.04,-25.56,-0.75,0
4,6.05,-19.14,5.31,0
5,6.07,27.24,5.61,0
6,6.08,13.21,-8.51,0
7,6.09,-7.78,-14.33,0
8,6.11,22.66,-8.33,1
9,6.12,-14.95,5.65,1
10,6.13,29.28,20.0,1
11,6.15,16.04,30.69,1
12,6.16,-2.5,37.71,1
13,6.17,36.06,39.28,1
14,6.19,24.88,83.52,1
15,6.2,46.44,162.92,1
16,6.21,263.5,164.75,1
17,6.23,8.73,285.85,1
18,6.24,-60.86,234.3,1
19,6.25,-275.85,-20.39,1
20,6.27,63.23,-437.11,1
21,6.28,-384.23,-132.41,1
22,6.29,76.32,202.62,1
23,6.31,-294.22,-71.09,1
24,6.32,-153.39,-343.92,1
25,6.33,-112.98,-275.77,1
26,6.35,17.18,-178.16,1
27,6.36,2.16,-99.57,1
28,6.37,55.14,370.06,1
29,6.39,119.59,153.88,1
30,6.4,91.39,185.53,1
31,6.41,-1.53,98.67,1
32,6.43,134.73,59.56,1
33,6.44,91.03,3.43,1
34,6.45,126.88,-168.43,1
35,6.47,-74.23,-275.16,1
36,6.48,249.76,-163.11,1
37,6.49,215.11,-183.04,1
38,6.51,-1.81,122.84,1
39,6.52,120.11,-288.07,1
40,6.53,-100.89,-542.63,1
41,6.55,170.85,-157.7,1
42,6.56,5.43,-501.73,1
43,6.57,64.14,-85.83,1
44,6.59,-222.98,-271.93,1
45,6.6,369.32,22.13,1
46,6.61,-236.5,375.57,1
47,6.63,37.2,71.06,1
48,6.64,-16.87,20.99,1
49,6.65,-164.9,268.4,1
50,6.67,29.63,64.58,1
51,6.68,-236.24,331.13,1
52,6.69,146.1,-86.17,1
53,6.71,93.64,248.95,1
54,6.72,-173.18,188.54,1
55,6.73,79.57,295.79,1
56,6.75,287.53,124.39,1
57,6.76,52.87,-95.46,1
58,6.77,-301.72,-167.13,1
59,6.79,5.05,606.73,1
60,6.8,-180.22,44.13,1
61,6.81,132.25,-284.66,1
62,6.83,-118.43,25.26,1
63,6.84,-23.6,255.46,1
64,6.85,-66.71,49.33,1
65,6.87,-89.13,-238.66,1
66,6.88,-46.51,62.43,1
67,6.89,-60.77,-187.57,1
68,6.91,-42.76,-104.52,0
69,6.92,-47.42,-170.64,0
70,6.93,-47.22,-185.78,0
71,6.95,-14.04,30.95,0
72,6.96,-2.16,-38.25,0
73,6.97,-16.0,116.53,0
74,6.99,-8.17,92.05,0
75,7.0,19.76,73.7,0
76,7.01,-1.36,50.54,0
77,7.03,12.38,87.07,0
78,7.04,-3.38,103.5,0
79,7.05,21.28,144.72,0
80,7.07,28.71,170.94,0
81,7.08,20.46,188.76,0
82,7.09,33.86,175.74,0
83,7.11,45.83,175.95,0
84,7.12,21.88,155.28,0
85,7.13,17.96,127.67,0
86,7.15,5.47,100.34,0
87,7.16,39.03,83.65,0
88,7.17,7.76,49.3,0
89,7.19,-2.43,32.31,0
90,7.2,9.0,-10.22,0
91,7.21,21.54,-22.67,0
92,7.23,22.7,-17.05,0
93,7.24,4.22,-50.08,0
94,7.25,-3.83,-57.4,0
95,7.27,9.55,-79.48,0
96,7.28,-3.62,-93.61,0
97,7.29,0.35,-96.1,0
98,7.31,1.59,-93.07,0
99,7.32,29.11,-97.11,0
100,7.33,4.32,-101.74,0
101,7.35,-2.4,-111.49,0
102,7.36,20.53,-110.95,0
103,7.37,2.4,-105.22,0
104,7.39,-11.73,-96.34,0
105,7.4,-2.15,-114.5,0
106,7.41,-1.37,-121.96,0
107,7.43,1.94,-110.08,0
108,7.44,-6.92,-105.07,0
109,7.45,-22.46,-98.58,0
110,7.47,-0.7,-92.87,0
111,7.48,-20.57,-84.73,0
112,7.49,-7.92,-89.82,0
113,7.51,-16.48,-89.21,0
114,7.52,12.33,-68.21,0
115,7.53,-3.96,-42.21,0
116,7.55,-1.63,-52.21,0
117,7.56,-8.54,-34.62,0
118,7.57,18.22,-25.35,0
119,7.59,14.98,-18.26,0
120,7.6,-0.71,-23.82,0
121,7.61,-2.07,-28.64,0
122,7.63,18.51,-18.01,0
123,7.64,10.1,5.78,0
124,7.65,3.24,14.51,0
125,7.67,-10.08,18.64,0
126,7.68,9.69,7.03,0
127,7.69,4.46,8.67,0
128,7.71,-8.54,19.85,0
129,7.72,5.74,40.95,0
130,7.73,-5.83,36.56,0
131,7.75,12.45,48.75,0
132,7.76,-8.49,53.37,0
133,7.77,2.41,32.65,0
134,7.79,4.78,40.61,0
135,7.8,-12.88,51.76,0
136,7.81,-9.03,63.65,0
137,7.83,17.61,53.57,0
138,7.84,4.95,42.6,0
139,7.85,-2.39,48.3,0
140,7.87,-17.17,57.66,0
141,7.88,-2.49,39.3,0
142,7.89,-8.7,46.28,0
143,7.91,-11.62,49.33,0
144,7.92,8.02,23.64,0
145,7.93,15.59,36.51,0
146,7.95,6.15,22.27,0
147,7.96,-9.19,23.41,0
148,7.97,11.33,16.18,0
149,7.99,18.32,22.23,0
150,8.0,-13.47,37.25,0
151,8.01,-74.46,20.88,0
152,8.03,-32.03,24.12,0
153,8.04,40.54,36.67,0
154,8.05,-11.45,24.06,0
155,8.07,7.13,18.07,0
156,8.08,27.12,48.48,0
157,8.09,8.6,56.05,0
158,8.11,70.81,68.82,1
159,8.12,-205.13,212.7,1
160,8.13,164.56,374.72,1
161,8.15,290.29,165.15,1
162,8.16,0.26,264.43,1
163,8.17,-164.67,112.66,1
164,8.19,304.89,47.11,1
165,8.2,-193.75,-176.5,1
166,8.21,172.09,-279.51,1
167,8.23,-62.14,66.11,1
168,8.24,249.17,-399.21,1
169,8.25,-155.22,-372.97,1
170,8.27,15.38,-109.18,1
171,8.28,-393.1,-157.32,1
172,8.29,109.08,-353.6,1
173,8.31,-183.17,141.09,1
174,8.32,-40.99,-187.56,1
175,8.33,165.71,-594.88,1
176,8.35,149.47,-250.54,1
177,8.36,-101.23,-12.09,1
178,8.37,100.64,131.57,1
179,8.39,-194.52,-193.4,1
180,8.4,-36.16,-27.1,1
181,8.41,27.59,-149.98,1
182,8.43,-101.36,340.11,1
183,8.44,-166.24,271.93,1
184,8.45,-42.02,38.61,1
185,8.47,-313.55,194.72,1
186,8.48,-0.33,101.24,1
187,8.49,-5.65,-48.87,1
188,8.51,37.26,-110.02,1
189,8.52,-48.1,-108.54,1
190,8.53,66.31,155.81,1
191,8.55,48.79,-188.2,1
192,8.56,-75.18,-370.72,1
193,8.57,-279.28,42.98,1
194,8.59,-73.97,448.1,1
195,8.6,196.83,229.53,1
196,8.61,-228.12,-143.52,1
197,8.63,88.41,276.03,1
198,8.64,-30.37,-93.96,1
199,8.65,108.31,234.93,1
200,8.67,172.25,-357.45,1
201,8.68,30.22,216.8,1
202,8.69,108.44,18.94,1
203,8.71,-23.38,136.77,1
204,8.72,178.3,546.97,1
205,8.73,253.16,322.16,1
206,8.75,-86.53,462.95,1
207,8.76,-13.71,148.05,1
208,8.77,222.04,-36.0,1
209,8.79,-29.11,-106.96,1
210,8.8,114.84,-355.0,1
211,8.81,-6.18,137.25,1
212,8.83,22.41,-215.46,1
213,8.84,152.15,-288.92,1
214,8.85,33.47,-83.49,1
215,8.87,154.67,-127.32,1
216,8.88,-2.93,-68.55,1
217,8.89,42.87,-78.51,1
218,8.91,26.96,-121.59,0
219,8.92,11.3,-135.32,0
220,8.93,-35.4,-155.83,0
221,8.95,-68.1,-151.95,0
222,8.96,-52.22,-96.34,0
223,8.97,-65.84,-87.45,0
224,8.99,-51.58,-58.43,0
225,9.0,-30.68,-16.74,0
226,9.01,-17.62,-23.35,0
227,9.03,-27.52,11.15,0
228,9.04,-21.89,23.17,0
229,9.05,-1.26,78.9,0
230,9.07,28.82,103.68,0
231,9.08,5.99,136.46,0
232,9.09,-15.73,166.87,0
233,9.11,-6.79,164.64,0
234,9.12,21.97,163.3,0
235,9.13,5.58,178.88,0
236,9.15,-1.18,165.14,0
237,9.16,-17.58,95.84,0
238,9.17,-7.58,91.52,0
239,9.19,2.99,57.21,0
240,9.2,-12.82,15.51,0
241,9.21,-8.58,16.65,0
242,9.23,-13.54,9.47,0
243,9.24,-20.87,-20.43,0
244,9.25,-18.87,-0.03,0
245,9.27,-7.26,-2.74,0
246,9.28,-17.16,-24.2,0
247,9.29,-43.87,-34.93,0
248,9.31,-32.74,-28.4,0
249,9.32,-12.9,-29.85,0
250,9.33,-23.42,-41.52,0
251,9.35,-31.17,-73.31,0
252,9.36,-67.39,-59.07,0
253,9.37,-53.48,-59.4,0
254,9.39,-42.23,-75.8,0
255,9.4,-42.68,-77.03,0
256,9.41,-10.39,-82.98,0
257,9.43,-9.21,-58.62,0
258,9.44,-9.99,-66.96,0
259,9.45,7.05,-73.7,0
260,9.47,-7.0,-57.26,0
261,9.48,23.36,-57.91,0
262,9.49,-15.39,-45.42,0
263,9.51,-13.49,-44.34,0
264,9.52,4.99,-43.04,0
265,9.53,6.96,-46.69,0
266,9.55,-11.29,-37.48,0
267,9.56,-7.43,-39.41,0
268,9.57,15.37,-26.41,0
269,9.59,-1.07,-17.29,0
270,9.6,4.1,-19.3,0
271,9.61,6.09,-11.36,0
272,9.63,12.33,-13.5,0
273,9.64,1.67,-16.12,0
274,9.65,16.08,-8.25,0
275,9.67,6.27,0.71,0
276,9.68,25.89,-3.25,0
277,9.69,13.04,4.88,0
278,9.71,0.1,2.83,0
279,9.72,5.73,4.99,0
280,9.73,38.12,0.42,0
281,9.75,12.52,15.67,0
282,9.76,-10.98,31.27,0
283,9.77,-7.79,32.68,0
284,9.79,16.28,18.03,0
285,9.8,11.51,9.27,0
286,9.81,1.98,4.84,0
287,9.83,3.14,5.27,0
288,9.84,28.74,35.5,0
289,9.85,-14.48,30.36,0
290,9.87,8.26,37.61,0
291,9.88,11.02,38.74,0
292,9.89,2.64,30.16,0
293,9.91,-2.73,16.15,0
294,9.92,-3.42,4.56,0
295,9.93,3.67,25.15,0
296,9.95,25.16,28.21,0
297,9.96,0.34,35.84,0
298,9.97,7.92,31.69,0
299,9.99,1.39,31.43,0
300,10.0,14.04,12.09,0
301,10.01,-60.01,8.82,0
302,10.03,-17.22,2.07,0
303,10.04,18.26,10.57,0
304,10.05,-13.96,18.82,0
305,10.07,13.77,12.26,0
306,10.08,39.78,24.31,0
307,10.09,2.08,27.41,0
308,10.11,20.51,33.8,1
309,10.12,41.38,79.3,1
310,10.13,-28.41,222.13,1
311,10.15,-95.27,177.41,1
312,10.16,-74.06,391.96,1
313,10.17,-115.17,112.12,1
314,10.19,304.96,-209.6,1
315,10.2,-99.86,-172.02,1
316,10.21,255.37,214.1,1
317,10.23,271.59,133.06,1
318,10.24,-88.98,-9.57,1
319,10.25,-44.1,-171.7,1
320,10.27,257.48,-107.45,1
321,10.28,-223.35,-327.5,1
322,10.29,282.63,-268.68,1
323,10.31,103.42,-250.36,1
324,10.32,-351.65,-205.73,1
325,10.33,-397.37,-193.83,1
326,10.35,-118.0,-197.6,1
327,10.36,-143.01,-80.21,1
328,10.37,60.44,353.12,1
329,10.39,-74.26,-98.17,1
330,10.4,9.22,-260.09,1
331,10.41,138.78,-28.14,1
332,10.43,54.16,-274.67,1
333,10.44,286.38,40.59,1
334,10.45,-195.87,-48.44,1
335,10.47,105.68,-210.64,1
336,10.48,108.48,588.98,1
337,10.49,-299.51,-23.57,1
338,10.51,-258.33,-335.62,1
339,10.52,-178.0,-58.39,1
340,10.53,272.07,159.95,1
341,10.55,-145.2,80.06,1
342,10.56,-117.82,337.96,1
343,10.57,-107.84,66.62,1
344,10.59,109.43,-18.87,1
345,10.6,-224.08,4.47,1
346,10.61,197.68,369.93,1
347,10.63,-17.41,112.29,1
348,10.64,156.01,-239.49,1
349,10.65,-21.34,-277.56,1
350,10.67,-62.11,-25.39,1
351,10.68,8.28,15.18,1
352,10.69,107.37,-74.72,1
353,10.71,76.54,-90.52,1
354,10.72,66.72,40.46,1
355,10.73,60.63,95.3,1
356,10.75,-104.57,148.67,1
357,10.76,226.36,555.25,1
358,10.77,-31.2,-139.96,1
359,10.79,331.84,143.05,1
360,10.8,-135.65,21.26,1
361,10.81,246.08,-78.34,1
362,10.83,183.13,310.77,1
363,10.84,77.72,138.46,1
364,10.85,-139.4,21.03,1
365,10.87,-76.09,257.19,1
366,10.88,17.45,-24.55,1
367,10.89,-30.4,47.77,1
368,10.91,-70.53,-152.26,0
369,10.92,-124.37,-74.01,0
370,10.93,-120.56,-82.96,0
371,10.95,-185.46,-66.36,0
372,10.96,-137.22,-13.01,0
373,10.97,-55.58,-22.95,0
374,10.99,-17.41,84.42,0
375,11.0,34.98,43.21,0
376,11.01,73.5,31.15,0
377,11.03,88.97,1.23,0
378,11.04,74.33,11.47,0
379,11.05,46.57,12.18,0
380,11.07,52.89,-7.64,0
381,11.08,56.26,-23.95,0
382,11.09,42.69,25.46,0
383,11.11,33.53,32.11,0
384,11.12,25.23,30.32,0
385,11.13,16.41,29.82,0
386,11.15,4.98,32.9,0
387,11.16,1.83,26.46,0
388,11.17,9.46,0.11,0
389,11.19,-10.26,-4.43,0
390,11.2,-19.7,-36.09,0
391,11.21,-20.68,-49.27,0
392,11.23,1.08,-45.63,0
393,11.24,-0.39,-43.23,0
394,11.25,1.71,-74.1,0
395,11.27,-12.33,-72.75,0
396,11.28,-8.08,-94.27,0
397,11.29,-21.78,-105.87,0
398,11.31,-49.5,-102.72,0
399,11.32,-41.75,-99.32,0
400,11.33,-42.46,-100.15,0
401,11.35,-38.24,-80.13,0
402,11.36,-52.33,-112.51,0
403,11.37,-38.79,-58.29,0
404,11.39,-30.78,-78.87,0
405,11.4,-39.73,-73.09,0
406,11.41,-23.58,-73.45,0
407,11.43,-3.58,-58.42,0
408,11.44,-27.47,-40.75,0
409,11.45,-32.65,-41.91,0
410,11.47,-30.56,-22.57,0
411,11.48,-10.47,-19.99,0
412,11.49,-6.39,-28.35,0
413,11.51,-4.07,-16.59,0
414,11.52,-19.74,-14.55,0
415,11.53,4.97,-4.78,0
416,11.55,-23.85,0.37,0
417,11.56,1.73,12.5,0
418,11.57,14.59,22.17,0
419,11.59,22.44,22.31,0
420,11.6,6.59,22.2,0
421,11.61,6.64,21.37,0
422,11.63,4.11,41.64,0
423,11.64,19.45,25.45,0
424,11.65,23.57,29.3,0
425,11.67,4.78,36.97,0
426,11.68,0.98,32.88,0
427,11.69,22.86,24.67,0
428,11.71,42.91,32.89,0
429,11.72,2.92,59.43,0
430,11.73,17.75,55.35,0
431,11.75,19.05,52.73,0
432,11.76,22.77,51.2,0
433,11.77,16.35,41.13,0
434,11.79,15.93,32.58,0
435,11.8,32.43,47.1,0
436,11.81,17.49,32.17,0
437,11.83,18.35,28.1,0
438,11.84,21.19,26.86,0
439,11.85,16.06,34.0,0
440,11.87,-14.57,27.14,0
441,11.88,-1.87,24.81,0
442,11.89,15.43,32.71,0
443,11.91,13.52,18.96,0
444,11.92,16.12,1.24,0
445,11.93,-7.45,17.07,0
446,11.95,14.24,15.94,0
447,11.96,9.88,25.71,0
448,11.97,-8.85,27.64,0
449,11.99,5.41,-3.79,0
450,12.0,4.33,-7.61,0
451,12.01,-32.81,6.32,0
452,12.03,-40.08,13.5,0
453,12.04,-2.98,-5.05,0
454,12.05,6.9,-14.29,0
455,12.07,18.5,2.17,0
456,12.08,-6.7,18.88,0
457,12.09,4.52,47.27,0
458,12.11,32.04,107.58,1
459,12.12,22.44,261.51,1
460,12.13,-168.94,158.52,1
461,12.15,-42.55,-102.08,1
462,12.16,-88.32,224.92,1
463,12.17,381.4,153.3,1
464,12.19,97.63,20.91,1
465,12.2,-107.92,-60.58,1
466,12.21,112.83,-270.59,1
467,12.23,-177.95,-73.35,1
468,12.24,-16.72,-67.63,1
469,12.25,303.18,-64.3,1
470,12.27,105.17,163.81,1
471,12.28,108.45,-112.55,1
472,12.29,-256.79,-238.58,1
473,12.31,-86.5,-65.11,1
474,12.32,-176.84,-455.53,1
475,12.33,-139.31,-409.48,1
476,12.35,18.94,-155.16,1
477,12.36,39.77,-209.89,1
478,12.37,256.26,-145.66,1
479,12.39,-116.38,-181.46,1
480,12.4,-166.28,-265.08,1
481,12.41,-64.51,2.1,1
482,12.43,-133.66,52.87,1
483,12.44,-150.14,-166.85,1
484,12.45,38.93,43.06,1
485,12.47,-98.93,-18.83,1
486,12.48,23.4,61.72,1
487,12.49,-38.28,-127.93,1
488,12.51,164.42,578.96,1
489,12.52,12.87,263.62,1
490,12.53,-125.04,-195.59,1
491,12.55,178.98,191.62,1
492,12.56,33.49,-53.28,1
493,12.57,55.46,151.13,1
494,12.59,80.62,251.57,1
495,12.6,-48.13,-176.07,1
496,12.61,-124.34,259.94,1
497,12.63,87.99,486.39,1
498,12.64,-252.37,-171.04,1
499,12.65,-150.74,4.77,1
500,12.67,-80.88,110.41,1
501,12.68,26.97,150.93,1
502,12.69,222.52,292.03,1
503,12.71,-18.63,-99.65,1
504,12.72,93.37,144.13,1
505,12.73,-195.26,197.37,1
506,12.75,-91.06,-236.09,1
507,12.76,-20.81,266.79,1
508,12.77,239.53,150.36,1
509,12.79,106.9,362.36,1
510,12.8,-18.4,203.28,1
511,12.81,-94.08,40.48,1
512,12.83,209.65,536.82,1
513,12.84,-123.48,-58.52,1
514,12.85,51.59,-257.91,1
515,12.87,-22.33,63.08,1
516,12.88,184.13,-263.06,1
517,12.89,377.64,215.2,1
518,12.91,-10.43,-269.47,0
519,12.92,24.11,-273.04,0
520,12.93,99.46,-91.3,0
521,12.95,-35.96,-116.67,0
522,12.96,108.97,-412.6,0
523,12.97,110.94,-166.74,0
524,12.99,150.75,-425.88,0
525,13.0,88.85,-389.41,0
526,13.01,46.61,-300.03,0
527,13.03,34.33,-162.72,0
528,13.04,13.13,-19.96,0
529,13.05,32.27,-89.99,0
530,13.07,28.17,-4.61,0
531,13.08,24.48,-30.57,0
532,13.09,-27.88,78.08,0
533,13.11,-46.82,-15.53,0
534,13.12,-75.38,20.31,0
535,13.13,-77.73,13.81,0
536,13.15,-138.61,15.91,0
537,13.16,-146.04,46.65,0
538,13.17,-159.35,67.31,0
539,13.19,-123.38,99.88,0
540,13.2,-132.3,109.12,0
541,13.21,-126.69,109.3,0
542,13.23,-133.39,137.05,0
543,13.24,-104.08,108.74,0
544,13.25,-92.53,122.59,0
545,13.27,-80.09,104.63,0
546,13.28,-81.8,71.97,0
547,13.29,-46.83,51.23,0
548,13.31,-45.95,100.44,0
549,13.32,-29.21,57.88,0
550,13.33,2.04,48.91,0
551,13.35,-7.73,37.95,0
552,13.36,-11.9,8.87,0
553,13.37,-7.68,12.33,0
554,13.39,16.52,-11.84,0
555,13.4,47.23,-19.72,0
556,13.41,48.47,-30.62,0
557,13.43,36.38,-41.59,0
558,13.44,31.09,-21.6,0
559,13.45,11.76,-23.33,0
560,13.47,11.25,-25.47,0
561,13.48,3.62,-16.32,0
562,13.49,18.03,-26.76,0
563,13.51,9.04,-17.42,0
564,13.52,14.38,-35.05,0
565,13.53,28.9,-38.66,0
566,13.55,55.96,-35.6,0
567,13.56,38.12,-45.95,0
568,13.57,27.67,-38.33,0
569,13.59,34.9,-43.22,0
570,13.6,53.14,-19.66,0
571,13.61,41.28,-1.79,0
572,13.63,35.12,-23.03,0
573,13.64,9.83,-17.48,0
574,13.65,20.59,-2.26,0
575,13.67,19.75,2.48,0
576,13.68,20.46,-6.78,0
577,13.69,42.69,-10.97,0
578,13.71,29.25,-4.38,0
579,13.72,28.73,-9.64,0
580,13.73,24.62,-22.73,0
581,13.75,37.7,-11.24,0
582,13.76,9.14,-1.57,0
583,13.77,0.41,-24.87,0
584,13.79,19.14,-10.62,0
585,13.8,22.65,-6.89,0
586,13.81,-3.24,-9.9,0
587,13.83,6.84,-9.28,0
588,13.84,-5.53,8.76,0
589,13.85,-3.31,6.69,0
590,13.87,-11.37,9.61,0
591,13.88,-4.78,3.36,0
592,13.89,-7.94,-0.48,0
593,13.91,10.05,29.07,0
594,13.92,-8.51,26.43,0
595,13.93,9.77,9.37,0
596,13.95,2.94,10.85,0
597,13.96,12.86,47.26,0
598,13.97,-4.75,27.56,0
599,13.99,-14.05,17.29,0
600,14.0,-18.13,10.74,0
601,14.01,10.02,24.03,0
602,14.03,-32.21,4.5,0
603,14.04,-38.2,-17.01,0
604,14.05,-42.64,30.26,0
605,14.07,31.28,13.55,0
606,14.08,-22.81,10.77,0
607,14.09,-9.06,-4.62,0
608,14.11,1.94,11.79,1
609,14.12,-30.42,30.87,1
610,14.13,26.07,33.81,1
611,14.15,2.73,30.06,1
612,14.16,53.69,239.67,1
613,14.17,97.66,287.69,1
614,14.19,-99.68,94.25,1
615,14.2,157.14,-31.28,1
616,14.21,-8.5,126.81,1
617,14.23,137.09,115.03,1
618,14.24,121.01,-115.32,1
619,14.25,24.81,259.18,1
620,14.27,3.31,-83.53,1
621,14.28,-287.86,-173.91,1
622,14.29,-19.54,132.81,1
623,14.31,168.73,-53.04,1
624,14.32,-30.45,48.48,1
625,14.33,-116.71,-96.45,1
626,14.35,-2.59,-306.87,1
627,14.36,-303.87,-307.6,1
628,14.37,99.95,-157.45,1
629,14.39,-125.61,-451.7,1
630,14.4,-230.94,-548.06,1
631,14.41,25.23,-437.36,1
632,14.43,-91.39,-482.84,1
633,14.44,-88.26,-236.88,1
634,14.45,27.08,3.32,1
635,14.47,-141.4,236.18,1
636,14.48,-232.72,178.15,1
637,14.49,48.74,155.99,1
638,14.51,-132.22,-138.13,1
639,14.52,-131.56,-26.23,1
640,14.53,-65.53,-0.26,1
641,14.55,-41.59,282.02,1
642,14.56,361.91,6.13,1
643,14.57,-35.59,671.55,1
644,14.59,336.11,399.51,1
645,14.6,88.21,299.14,1
646,14.61,-35.82,286.48,1
647,14.63,66.55,-38.11,1
648,14.64,125.67,-510.75,1
649,14.65,-159.83,68.64,1
650,14.67,88.16,384.81,1
651,14.68,-32.81,-20.44,1
652,14.69,-9.01,137.06,1
653,14.71,28.11,-359.57,1
654,14.72,143.75,146.39,1
655,14.73,-57.74,91.26,1
656,14.75,364.71,599.12,1
657,14.76,279.05,262.67,1
658,14.77,326.76,94.63,1
659,14.79,55.55,-146.8,1
660,14.8,-260.83,-351.71,1
661,14.81,54.17,-214.48,1
662,14.83,-175.04,-12.06,1
663,14.84,-104.18,400.05,1
664,14.85,87.83,-153.63,1
665,14.87,-202.74,-203.44,1
666,14.88,-96.62,-110.57,1
667,14.89,-62.14,-156.61,1
668,14.91,-25.73,83.04,0
669,14.92,93.95,-201.61,0
670,14.93,-19.73,-256.03,0
671,14.95,-13.56,-93.32,0
672,14.96,-104.94,305.02,0
673,14.97,144.39,2.16,0
674,14.99,120.95,236.48,0
675,15.0,254.55,159.45,0
676,15.01,-81.4,61.14,0
677,15.03,13.8,24.18,0
678,15.04,-9.43,-154.76,0
679,15.05,-36.37,-53.69,0
680,15.07,-62.54,-107.81,0
681,15.08,-72.67,-103.74,0
682,15.09,-63.17,-133.03,0
683,15.11,-49.2,-77.46,0
684,15.12,-42.79,-92.91,0
685,15.13,-1.77,-1.92,0
686,15.15,26.75,4.68,0
687,15.16,14.91,-11.13,0
688,15.17,18.96,-4.53,0
689,15.19,31.32,3.95,0
690,15.2,16.47,18.9,0
691,15.21,15.5,-20.81,0
692,15.23,5.14,12.71,0
693,15.24,6.88,30.69,0
694,15.25,-15.78,32.8,0
695,15.27,-13.9,42.35,0
696,15.28,-15.42,80.81,0
697,15.29,-7.54,87.82,0
698,15.31,-22.79,71.18,0
699,15.32,-33.12,73.28,0
700,15.33,-30.01,73.11,0
701,15.35,-9.41,52.66,0
702,15.36,-13.62,50.08,0
703,15.37,-25.74,30.71,0
704,15.39,-46.03,26.18,0
705,15.4,16.91,2.83,0
706,15.41,16.67,-17.48,0
707,15.43,-17.58,-15.37,0
708,15.44,-24.53,-11.39,0
709,15.45,-29.09,-4.98,0
710,15.47,-42.47,-27.4,0
711,15.48,-34.85,-26.75,0
712,15.49,-47.72,-39.36,0
713,15.51,-8.68,-25.74,0
714,15.52,-45.23,-36.87,0
715,15.53,-28.08,-21.85,0
716,15.55,-2.85,-25.13,0
717,15.56,-14.63,-32.96,0
718,15.57,-17.0,-29.7,0
719,15.59,-15.66,-31.63,0
720,15.6,2.75,-31.39,0
721,15.61,-2.21,-47.3,0
722,15.63,0.93,-64.76,0
723,15.64,10.34,-32.45,0
724,15.65,9.73,-41.07,0
725,15.67,16.66,-44.68,0
726,15.68,-18.27,-24.71,0
727,15.69,11.3,-30.14,0
728,15.71,12.58,-32.39,0
729,15.72,2.36,-19.09,0
730,15.73,-8.82,-14.34,0
731,15.75,0.41,-15.98,0
732,15.76,34.96,-15.54,0
733,15.77,28.26,-18.42,0
734,15.79,14.62,3.79,0
735,15.8,16.09,-5.12,0
736,15.81,25.0,-12.1,0
737,15.83,31.4,-10.95,0
738,15.84,21.45,10.47,0
739,15.85,11.6,7.65,0
740,15.87,28.56,-5.9,0
741,15.88,12.04,6.6,0
742,15.89,19.23,7.32,0
743,15.91,17.74,11.09,0
744,15.92,41.13,11.03,0
745,15.93,17.4,6.18,0
746,15.95,9.85,16.69,0
747,15.96,33.29,21.87,0
748,15.97,16.41,13.75,0
749,15.99,5.86,33.99,0
750,16.0,5.46,15.4,0
751,16.01,8.91,17.79,0
752,16.03,-50.49,15.28,0
753,16.04,-35.0,23.17,0
754,16.05,-4.9,28.5,0
755,16.07,0.84,8.8,0
756,16.08,-11.36,4.04,0
757,16.09,64.3,8.62,0
758,16.11,-6.26,-1.5,1
759,16.12,31.67,29.46,1
760,16.13,17.14,54.76,1
761,16.15,23.99,109.57,1
762,16.16,60.77,240.64,1
763,16.17,-195.66,181.86,1
764,16.19,-151.47,35.59,1
765,16.2,102.82,275.24,1
766,16.21,50.17,122.86,1
767,16.23,3.14,213.56,1
768,16.24,183.96,-19.72,1
769,16.25,-247.12,-11.78,1
770,16.27,20.17,12.73,1
771,16.28,68.81,-342.48,1
772,16.29,167.44,-289.68,1
773,16.31,-131.33,7.42,1
774,16.32,72.15,-240.67,1
775,16.33,20.35,-491.39,1
776,16.35,-23.81,-165.29,1
777,16.36,-21.95,16.41,1
778,16.37,61.7,-387.7,1
779,16.39,226.11,-202.15,1
780,16.4,-153.9,16.09,1
781,16.41,87.84,144.52,1
782,16.42,-355.68,292.64,1
783,16.44,-170.3,-13.95,1
784,16.45,38.7,-44.54,1
785,16.47,-232.76,-183.07,1
786,16.48,327.3,-108.87,1
787,16.49,1.74,-308.94,1
788,16.51,80.65,-115.27,1
789,16.52,4.42,347.9,1
790,16.53,47.65,5.0,1
791,16.55,-183.07,-52.33,1
792,16.56,-43.77,76.72,1
793,16.57,45.49,12.34,1
794,16.59,-221.29,-124.12,1
795,16.6,128.88,119.2,1
796,16.61,-13.34,446.82,1
797,16.63,16.11,303.62,1
798,16.64,210.59,-84.38,1
799,16.65,203.02,-71.58,1
800,16.67,49.7,274.67,1
801,16.68,155.77,355.16,1
802,16.69,185.05,155.52,1
803,16.71,-244.0,260.34,1
804,16.72,90.22,-103.09,1
805,16.73,-126.39,346.94,1
806,16.75,-301.5,-265.12,1
807,16.76,51.52,-415.0,1
808,16.77,-92.17,-13.18,1
809,16.79,-157.87,195.46,1
810,16.8,97.0,-202.7,1
811,16.81,-233.74,-358.83,1
812,16.83,57.29,-247.91,1
813,16.84,-277.48,99.02,1
814,16.85,-80.46,50.21,1
815,16.87,-41.91,290.84,1
816,16.88,-282.2,9.41,1
817,16.89,91.15,-120.18,1
818,16.91,-241.24,176.42,0
819,16.92,213.96,-452.2,0
820,16.93,-230.9,-50.91,0
821,16.95,377.55,259.45,0
822,16.96,-149.99,161.7,0
823,16.97,358.25,-35.51,0
824,16.99,83.04,47.69,0
825,17.0,104.6,77.7,0
826,17.01,309.35,-90.85,0
827,17.03,-8.31,96.91,0
828,17.04,121.91,-16.08,0
829,17.05,35.84,-44.34,0
830,17.06,67.58,-74.71,0
831,17.08,47.1,-69.52,0
832,17.09,78.87,32.8,0
833,17.11,37.65,38.67,0
834,17.12,42.71,79.66,0
835,17.13,5.82,56.68,0
836,17.15,23.06,11.66,0
837,17.16,-0.95,-0.05,0
838,17.17,-3.42,-22.14,0
839,17.19,-17.86,-33.95,0
840,17.2,-8.98,-49.36,0
841,17.21,-24.42,5.19,0
842,17.23,-33.4,11.83,0
843,17.24,-26.95,33.9,0
844,17.25,-10.08,92.34,0
845,17.27,-19.98,69.02,0
846,17.28,-23.67,64.64,0
847,17.29,-20.47,67.63,0
848,17.31,-18.25,37.91,0
849,17.32,-7.42,61.18,0
850,17.33,-33.29,24.95,0
851,17.35,-35.85,14.58,0
852,17.36,-32.33,3.93,0
853,17.37,-39.08,-13.09,0
854,17.39,-30.47,7.49,0
855,17.4,-27.99,-44.08,0
856,17.41,22.13,-73.26,0
857,17.43,-0.98,-72.96,0
858,17.44,-9.78,-53.45,0
859,17.45,6.96,-55.15,0
860,17.47,-21.82,-35.33,0
861,17.48,-35.84,-35.22,0
862,17.49,-45.46,-44.56,0
863,17.51,-28.87,-51.69,0
864,17.52,-27.69,-43.18,0
865,17.53,-22.81,-55.7,0
866,17.55,-37.67,-58.83,0
867,17.56,-1.97,-46.61,0
868,17.57,-16.48,-46.85,0
869,17.59,-9.44,-29.06,0
870,17.6,-8.55,-43.73,0
871,17.61,4.53,-37.69,0
872,17.63,-5.75,-32.27,0
873,17.64,-15.14,-26.07,0
874,17.65,-10.59,-35.39,0
875,17.67,7.45,-18.88,0
876,17.68,3.44,-30.87,0
877,17.69,6.72,-28.67,0
878,17.7,2.71,-20.54,0
879,17.72,24.89,-18.52,0
880,17.73,11.27,-5.22,0
881,17.75,7.42,0.66,0
882,17.76,-9.48,-0.46,0
883,17.77,19.33,-0.96,0
884,17.79,10.53,0.25,0
885,17.8,8.03,9.2,0
886,17.81,19.07,8.09,0
887,17.83,16.13,14.72,0
888,17.84,2.96,14.16,0
889,17.85,15.0,2.48,0
890,17.87,27.28,8.9,0
891,17.88,19.58,30.17,0
892,17.89,1.25,8.57,0
893,17.91,-5.19,-5.72,0
894,17.92,4.7,14.46,0
895,17.93,-0.41,0.27,0
896,17.95,-3.55,21.44,0
897,17.96,-12.2,9.55,0
898,17.97,22.69,38.65,0
899,17.99,14.56,40.09,0
900,18.0,15.43,34.36,0
901,18.01,3.1,11.77,0
902,18.03,1.48,42.45,0
903,18.04,-47.37,35.1,0
904,18.05,13.07,25.88,0
905,18.07,-4.65,17.19,0
906,18.08,28.86,8.96,0
907,18.09,38.9,30.54,0
908,18.11,-9.61,29.58,1
909,18.12,12.15,50.17,1
910,18.13,33.94,107.1,1
911,18.15,-20.86,127.67,1
912,18.16,-76.36,86.7,1
913,18.17,-104.56,49.67,1
914,18.19,31.01,44.76,1
915,18.2,-1.04,210.72,1
916,18.21,313.47,-215.16,1
917,18.23,84.36,190.6,1
918,18.24,183.96,-179.7,1
919,18.25,-96.49,235.88,1
920,18.27,-102.81,-309.04,1
921,18.28,-61.26,-30.41,1
922,18.29,184.81,-363.38,1
923,18.31,-196.51,160.74,1
924,18.32,275.08,16.46,1
925,18.33,-180.44,-148.73,1
926,18.34,295.23,266.01,1
927,18.36,-137.31,-209.96,1
928,18.37,-129.34,-223.02,1
929,18.39,-104.79,427.82,1
930,18.4,-131.4,38.17,1
931,18.41,86.48,-166.04,1
932,18.43,-328.25,-358.8,1
933,18.44,128.79,-180.77,1
934,18.45,-128.64,186.18,1
935,18.47,-122.95,5.26,1
936,18.48,243.4,-530.59,1
937,18.49,-6.41,-129.27,1
938,18.51,-152.94,212.7,1
939,18.52,125.48,-186.2,1
940,18.53,68.75,-147.11,1
941,18.55,-441.58,371.42,1
942,18.56,132.13,-240.22,1
943,18.57,-386.43,21.16,1
944,18.59,-321.84,-185.97,1
945,18.6,-151.06,-27.38,1
946,18.61,-166.95,254.09,1
947,18.63,117.56,51.0,1
948,18.64,6.02,-70.01,1
949,18.65,484.96,-24.58,1
950,18.67,-26.82,408.17,1
951,18.68,280.2,161.32,1
952,18.69,169.09,600.69,1
953,18.71,259.14,76.73,1
954,18.72,-3.45,-85.02,1
955,18.73,192.19,192.85,1
956,18.75,99.47,412.19,1
957,18.76,106.46,113.85,1
958,18.77,-240.19,-2.78,1
959,18.79,-26.64,143.48,1
960,18.8,21.7,-476.16,1
961,18.81,105.0,-269.6,1
962,18.83,-105.59,259.52,1
963,18.84,-257.94,-347.06,1
964,18.85,34.36,-249.98,1
965,18.87,98.34,154.61,1
966,18.88,99.4,-97.58,1
967,18.89,-83.82,-25.44,1
968,18.91,396.52,-179.65,0
969,18.92,-176.46,-120.75,0
970,18.93,81.71,-77.52,0
971,18.95,41.23,-140.19,0
972,18.96,-44.75,-163.33,0
973,18.97,-81.15,-24.78,0
974,18.98,-0.93,-101.37,0
975,19.0,55.08,0.43,0
976,19.01,42.42,-114.73,0
977,19.03,-5.54,-67.54,0
978,19.04,-45.08,75.59,0
979,19.05,-30.11,-49.28,0
980,19.07,-38.73,72.18,0
981,19.08,-17.01,119.85,0
982,19.09,-3.82,85.7,0
983,19.11,-2.64,100.59,0
984,19.12,-10.98,94.35,0
985,19.13,-26.54,79.34,0
986,19.15,-17.12,99.8,0
987,19.16,5.1,115.87,0
988,19.17,-15.83,142.41,0
989,19.19,-17.94,123.4,0
990,19.2,-14.25,124.72,0
991,19.21,13.8,115.21,0
992,19.23,-1.0,90.92,0
993,19.24,-9.43,118.52,0
994,19.25,-15.64,74.19,0
995,19.27,-4.96,46.62,0
996,19.28,-11.89,44.07,0
997,19.29,3.95,25.44,0
998,19.31,17.08,22.2,0
999,19.32,-11.5,1.57,0
1000,19.33,-13.5,-18.0,0
1001,19.35,-11.34,-31.6,0
1002,19.36,6.12,-27.39,0
1003,19.37,9.63,-28.58,0
1004,19.39,-19.64,-46.33,0
1005,19.4,-16.8,-55.7,0
1006,19.41,-8.3,-55.13,0
1007,19.43,-19.03,-66.22,0
1008,19.44,-10.62,-72.01,0
1009,19.45,-23.1,-62.47,0
1010,19.47,-18.02,-69.3,0
1011,19.48,-21.62,-76.21,0
1012,19.49,-16.89,-68.12,0
1013,19.51,-21.02,-73.83,0
1014,19.52,-1.69,-44.71,0
1015,19.53,-13.47,-59.98,0
1016,19.55,-11.17,-64.03,0
1017,19.56,-9.92,-44.58,0
1018,19.57,12.19,-46.3,0
1019,19.59,-3.61,-48.89,0
1020,19.6,-5.5,-47.65,0
1021,19.61,-8.29,-46.6,0
1022,19.62,3.91,-32.76,0
1023,19.64,-17.72,-37.43,0
1024,19.65,2.58,-37.14,0
1025,19.67,0.67,-30.84,0
1026,19.68,19.97,-31.6,0
1027,19.69,5.36,-14.74,0
1028,19.71,9.94,-23.18,0
1029,19.72,28.95,1.55,0
1030,19.73,22.44,-10.89,0
1031,19.75,-6.61,-11.57,0
1032,19.76,2.57,-5.09,0
1033,19.77,30.26,-1.16,0
1034,19.79,10.94,-2.47,0
1035,19.8,-4.57,20.5,0
1036,19.81,1.03,16.38,0
1037,19.83,14.11,20.43,0
1038,19.84,15.99,21.58,0
1039,19.85,-3.08,21.04,0
1040,19.87,-14.28,16.03,0
1041,19.88,-5.77,13.61,0
1042,19.89,3.31,3.97,0
1043,19.91,7.22,28.66,0
1044,19.92,-9.11,5.27,0
1045,19.93,20.41,35.62,0
1046,19.95,-5.92,37.12,0
1047,19.96,-2.49,22.03,0
1048,19.97,-4.17,30.22,0
1049,19.99,12.13,36.56,0
1050,20.0,-2.03,20.57,0
1051,20.01,-10.69,20.34,0
1052,20.03,-10.7,5.86,0
1053,20.04,-20.42,29.54,0
1054,20.05,17.55,16.14,0
1055,20.07,-11.52,29.15,0
1056,20.08,9.86,14.43,0
1057,20.09,50.12,40.01,0
1058,20.11,10.06,33.54,1
1059,20.12,4.04,108.64,1
1060,20.13,53.9,239.83,1
1061,20.15,8.81,343.33,1
1062,20.16,23.61,101.92,1
1063,20.17,-230.85,227.21,1
1064,20.19,63.79,-124.55,1
1065,20.2,355.45,21.67,1
1066,20.21,238.98,20.68,1
1067,20.23,-88.8,-180.19,1
1068,20.24,97.25,211.81,1
1069,20.25,-207.49,11.54,1
1070,20.26,-122.63,-182.87,1
1071,20.28,90.27,-400.41,1
1072,20.29,-32.76,-47.64,1
1073,20.3,210.84,-364.95,1
1074,20.32,-371.89,222.13,1
1075,20.33,-41.79,-143.14,1
1076,20.35,211.14,-471.38,1
1077,20.36,-51.46,-355.06,1
1078,20.37,-67.24,215.01,1
1079,20.39,-107.87,-377.53,1
1080,20.4,62.74,-157.5,1
1081,20.41,184.85,345.27,1
1082,20.43,14.21,68.98,1
1083,20.44,51.71,15.78,1
1084,20.45,-302.79,196.63,1
1085,20.47,-387.05,-1.1,1
1086,20.48,-172.48,-75.59,1
1087,20.49,-175.93,-606.53,1
1088,20.51,104.06,-190.16,1
1089,20.52,-55.34,264.93,1
1090,20.53,8.43,68.11,1
1091,20.55,114.93,330.79,1
1092,20.56,-120.99,237.38,1
1093,20.57,-157.61,144.71,1
1094,20.59,-121.69,-152.45,1
1095,20.6,-17.8,-355.17,1
1096,20.61,-130.99,295.2,1
1097,20.63,110.56,34.35,1
1098,20.64,151.7,-148.48,1
1099,20.65,64.65,-384.78,1
1100,20.67,197.57,-154.65,1
1101,20.68,111.78,-39.65,1
1102,20.69,87.44,65.46,1
1103,20.71,152.2,395.7,1
1104,20.72,15.52,458.68,1
1105,20.73,-28.45,285.27,1
1106,20.75,-91.97,95.22,1
1107,20.76,254.63,434.78,1
1108,20.77,180.22,-69.27,1
1109,20.79,286.52,-331.04,1
1110,20.8,165.92,-192.77,1
1111,20.81,191.02,317.62,1
1112,20.83,-192.79,-19.38,1
1113,20.84,75.32,-210.36,1
1114,20.85,29.59,58.71,1
1115,20.87,-1.58,-108.08,1
1116,20.88,-55.04,-28.11,1
1117,20.89,-57.71,-63.27,1
1118,20.9,-10.82,-111.72,1
1119,20.92,-56.46,-66.68,0
1120,20.93,-53.69,-60.77,0
1121,20.94,-41.31,36.06,0
1122,20.96,-31.57,88.65,0
1123,20.97,-30.83,142.41,0
1124,20.99,-56.9,113.61,0
1125,21.0,-50.15,84.4,0
1126,21.01,-32.25,79.06,0
1127,21.03,-44.85,77.41,0
1128,21.04,-48.28,64.54,0
1129,21.05,-24.47,78.81,0
1130,21.07,-28.33,75.8,0
1131,21.08,-37.57,100.53,0
1132,21.09,-28.44,95.58,0
1133,21.11,-27.11,88.9,0
1134,21.12,-10.48,89.16,0
1135,21.13,-23.13,72.71,0
1136,21.15,-24.79,62.33,0
1137,21.16,-23.57,46.51,0
1138,21.17,3.18,35.86,0
1139,21.19,2.9,26.67,0
1140,21.2,4.97,-2.36,0
1141,21.21,-1.42,-11.7,0
1142,21.23,13.66,-52.96,0
1143,21.24,-18.49,-69.66,0
1144,21.25,-7.26,-68.47,0
1145,21.27,20.07,-83.4,0
1146,21.28,4.19,-69.45,0
1147,21.29,-9.47,-79.25,0
1148,21.31,-5.94,-85.13,0
1149,21.32,17.92,-109.32,0
1150,21.33,-1.49,-94.12,0
1151,21.35,-10.72,-82.67,0
1152,21.36,-17.26,-81.59,0
1153,21.37,22.1,-78.77,0
1154,21.39,0.8,-80.64,0
1155,21.4,-2.9,-90.64,0
1156,21.41,-14.24,-80.56,0
1157,21.43,-6.1,-80.07,0
1158,21.44,-0.48,-78.39,0
1159,21.45,-0.86,-69.55,0
1160,21.47,-3.19,-62.2,0
1161,21.48,12.36,-62.97,0
1162,21.49,2.83,-62.66,0
1163,21.51,-15.57,-59.89,0
1164,21.52,-10.07,-38.57,0
1165,21.53,20.67,-43.56,0
1166,21.54,4.65,-23.22,0
1167,21.56,9.92,-22.99,0
1168,21.57,24.41,-12.59,0
1169,21.58,-0.8,-23.35,0
1170,21.6,6.13,0.96,0
1171,21.61,12.6,-5.99,0
1172,21.63,0.81,-2.91,0
1173,21.64,3.98,16.07,0
1174,21.65,0.9,21.31,0
1175,21.67,1.52,20.33,0
1176,21.68,5.11,18.41,0
1177,21.69,1.11,7.12,0
1178,21.71,-17.91,17.0,0
1179,21.72,-20.47,36.4,0
1180,21.73,13.29,33.28,0
1181,21.75,0.44,28.24,0
1182,21.76,-2.15,28.75,0
1183,21.77,-11.95,44.04,0
1184,21.79,6.15,23.36,0
1185,21.8,19.27,31.98,0
1186,21.81,6.47,23.8,0
1187,21.83,-0.28,31.71,0
1188,21.84,25.18,51.51,0
1189,21.85,-5.26,47.13,0
1190,21.87,3.94,39.68,0
1191,21.88,-0.51,14.1,0
1192,21.89,4.09,27.57,0
1193,21.91,6.78,27.19,0
1194,21.92,-13.08,33.97,0
1195,21.93,1.87,34.73,0
1196,21.95,16.93,32.83,0
1197,21.96,2.92,61.9,0
1198,21.97,0.18,100.09,0
1199,21.99,12.32,132.62,0
1200,22.0,-4.56,188.31,0
1201,22.01,-38.51,257.28,0
1202,22.03,-57.04,168.57,0
1203,22.04,-35.43,60.35,0
1204,22.05,61.89,206.81,0
1205,22.07,143.61,-194.08,0
1206,22.08,9.3,-226.45,0
1207,22.09,396.52,-46.3,0
1208,22.11,198.2,-377.24,1
1209,22.12,43.37,-136.63,1
1210,22.13,-10.97,31.95,1
1211,22.15,42.59,-255.31,1
1212,22.16,82.06,51.46,1
1213,22.17,4.46,228.51,1
1214,22.18,-149.0,-15.75,1
1215,22.2,-207.34,-321.14,1
1216,22.21,-10.16,0.46,1
1217,22.22,26.26,-71.8,1
1218,22.24,-232.62,88.71,1
1219,22.25,-212.97,-129.93,1
1220,22.26,-189.78,-45.49,1
1221,22.28,-133.18,-172.7,1
1222,22.29,-79.91,-387.06,1
1223,22.31,-347.7,184.31,1
1224,22.32,-53.47,-361.34,1
1225,22.33,-140.76,0.86,1
1226,22.35,275.46,37.48,1
1227,22.36,-98.31,-9.04,1
1228,22.37,-218.61,328.54,1
1229,22.39,-316.04,132.42,1
1230,22.4,295.01,161.17,1
1231,22.41,0.9,52.3,1
1232,22.43,157.43,-73.48,1
1233,22.44,-276.15,-162.77,1
1234,22.45,42.23,-41.32,1
1235,22.47,10.78,281.24,1
1236,22.48,83.7,460.01,1
1237,22.49,-141.4,182.82,1
1238,22.51,30.3,-96.86,1
1239,22.52,107.53,-105.65,1
1240,22.53,225.64,-340.27,1
1241,22.55,63.58,-327.56,1
1242,22.56,69.0,79.58,1
1243,22.57,31.65,198.79,1
1244,22.59,62.87,172.47,1
1245,22.6,107.42,146.86,1
1246,22.61,112.7,9.96,1
1247,22.63,142.46,-332.09,1
1248,22.64,-40.05,46.34,1
1249,22.65,130.21,-80.98,1
1250,22.67,199.52,-57.98,1
1251,22.68,316.73,176.44,1
1252,22.69,166.06,100.58,1
1253,22.71,7.51,171.36,1
1254,22.72,180.21,-104.69,1
1255,22.73,104.33,-48.61,1
1256,22.75,54.37,48.5,1
1257,22.76,-31.51,-22.68,1
1258,22.77,-31.05,21.93,1
1259,22.79,-124.78,-13.99,1
1260,22.8,-114.61,35.11,1
1261,22.81,-85.49,69.06,1
1262,22.82,-6.03,63.95,1
1263,22.84,3.32,61.62,1
1264,22.85,8.43,43.09,1
1265,22.86,30.32,64.75,1
1266,22.88,27.16,58.47,1
1267,22.89,-3.83,48.93,1
1268,22.9,-21.94,37.11,1
1269,22.92,-10.93,64.55,0
1270,22.93,-35.68,69.32,0
1271,22.95,-40.99,84.22,0
1272,22.96,-27.19,67.24,0
1273,22.97,-31.94,72.76,0
1274,22.99,-56.84,46.29,0
1275,23.0,-47.93,34.94,0
1276,23.01,-48.46,28.12,0
1277,23.03,-16.8,5.62,0
1278,23.04,-42.06,-16.98,0
1279,23.05,-49.59,-27.49,0
1280,23.07,-32.99,-43.51,0
1281,23.08,-48.76,-49.53,0
1282,23.09,-54.25,-87.9,0
1283,23.11,-55.8,-70.36,0
1284,23.12,-51.74,-67.98,0
1285,23.13,-56.12,-86.68,0
1286,23.15,-53.9,-89.61,0
1287,23.16,-51.22,-77.39,0
1288,23.17,-25.14,-84.46,0
1289,23.19,-49.69,-69.67,0
1290,23.2,-49.45,-76.61,0
1291,23.21,-53.05,-79.25,0
1292,23.23,-23.81,-70.59,0
1293,23.24,-22.14,-71.22,0
1294,23.25,-40.24,-98.05,0
1295,23.27,-17.88,-82.82,0
1296,23.28,1.18,-49.28,0
1297,23.29,-2.34,-50.34,0
1298,23.31,-8.11,-46.63,0
1299,23.32,-22.05,-51.3,0
1300,23.33,16.01,-43.41,0
1301,23.35,10.86,-26.26,0
1302,23.36,9.7,-26.08,0
1303,23.37,2.83,-25.04,0
1304,23.39,22.17,-21.23,0
1305,23.4,7.0,-10.01,0
1306,23.41,-12.82,-16.65,0
1307,23.43,11.26,2.81,0
1308,23.44,33.37,-4.89,0
1309,23.45,19.14,-3.97,0
1310,23.46,19.02,14.21,0
1311,23.48,39.08,16.82,0
1312,23.49,18.63,31.21,0
1313,23.5,7.02,18.18,0
1314,23.52,12.4,10.84,0
1315,23.53,33.57,37.62,0
1316,23.54,8.98,23.15,0
1317,23.56,12.82,36.5,0
1318,23.57,14.21,35.28,0
1319,23.59,39.39,32.33,0
1320,23.6,14.27,26.77,0
1321,23.61,15.75,36.46,0
1322,23.63,25.68,34.47,0
1323,23.64,42.83,35.55,0
1324,23.65,31.32,39.64,0
1325,23.67,5.78,46.22,0
1326,23.68,3.41,37.2,0
1327,23.69,21.69,38.13,0
1328,23.71,11.88,47.04,0
1329,23.72,2.66,23.98,0
1330,23.73,-9.54,31.64,0
1331,23.75,29.31,22.17,0
1332,23.76,20.08,22.4,0
1333,23.77,15.88,27.08,0
1334,23.79,6.07,20.34,0
1335,23.8,15.35,6.91,0
1336,23.81,3.07,21.22,0
1337,23.83,13.9,5.15,0
1338,23.84,23.99,18.45,0
1339,23.85,6.67,12.19,0
1340,23.87,-16.33,20.17,0
1341,23.88,-16.38,10.37,0
1342,23.89,11.36,7.16,0
1343,23.91,-10.47,8.81,0
1344,23.92,7.07,5.34,0
1345,23.93,-16.76,7.44,0
1346,23.95,6.81,13.32,0
1347,23.96,-9.91,15.99,0
1348,23.97,-9.01,5.05,0
1349,23.99,-4.54,-4.34,0
1350,24.0,-15.06,26.84,0
1351,24.01,-21.85,100.88,0
1352,24.03,-24.27,98.52,0
1353,24.04,35.37,60.01,0
1354,24.05,56.36,50.73,0
1355,24.07,-150.52,128.45,0
1356,24.08,192.97,189.42,0
1357,24.09,149.08,-32.21,0
1358,24.1,-95.81,232.17,1
1359,24.12,63.06,-64.79,1
1360,24.13,200.46,-126.42,1
1361,24.14,80.1,-101.9,1
1362,24.16,-26.94,-44.77,1
1363,24.17,-141.18,-378.52,1
1364,24.18,75.2,15.28,1
1365,24.2,0.59,-120.17,1
1366,24.21,-233.28,-360.8,1
1367,24.22,-124.35,173.75,1
1368,24.24,59.27,-229.66,1
1369,24.25,-10.04,-227.75,1
1370,24.27,-123.69,-58.97,1
1371,24.28,-116.45,67.85,1
1372,24.29,56.38,-64.12,1
1373,24.31,91.61,-436.57,1
1374,24.32,-207.29,-343.03,1
1375,24.33,-416.22,111.52,1
1376,24.35,-60.21,148.26,1
1377,24.36,93.99,135.94,1
1378,24.37,49.84,-207.61,1
1379,24.39,6.31,-127.42,1
1380,24.4,192.8,361.37,1
1381,24.41,17.18,-294.94,1
1382,24.43,37.58,-184.79,1
1383,24.44,-404.06,177.98,1
1384,24.45,-162.24,-254.86,1
1385,24.47,-269.38,341.51,1
1386,24.48,324.32,33.49,1
1387,24.49,-11.72,238.55,1
1388,24.51,-70.24,-249.66,1
1389,24.52,54.22,-52.34,1
1390,24.53,-0.93,97.44,1
1391,24.55,-70.71,433.88,1
1392,24.56,101.15,492.78,1
1393,24.57,-95.94,264.43,1
1394,24.59,70.58,106.7,1
1395,24.6,-84.72,140.77,1
1396,24.61,-48.25,-77.88,1
1397,24.63,353.5,-465.38,1
1398,24.64,150.35,37.19,1
1399,24.65,51.22,418.88,1
1400,24.67,466.75,149.83,1
1401,24.68,133.47,-204.7,1
1402,24.69,17.53,-33.82,1
1403,24.71,-158.7,145.22,1
1404,24.72,69.83,-146.98,1
1405,24.73,-42.61,399.1,1
1406,24.75,-164.93,218.16,1
1407,24.76,49.13,143.26,1
1408,24.77,109.75,-2.61,1
1409,24.78,-43.01,63.35,1
1410,24.8,297.43,298.04,1
1411,24.81,241.95,112.03,1
1412,24.82,-56.46,-37.1,1
1413,24.84,-124.69,-511.98,1
1414,24.85,52.02,-277.96,1
1415,24.86,-46.35,-158.85,1
1416,24.88,54.69,-261.59,1
1417,24.89,22.7,-164.03,1
1418,24.91,62.76,-231.22,0
1419,24.92,65.79,-191.13,0
1420,24.93,52.73,-210.06,0
1421,24.95,44.56,-208.76,0
1422,24.96,4.65,-159.73,0
1423,24.97,12.23,-104.55,0
1424,24.99,-10.37,8.82,0
1425,25.0,-40.07,29.4,0
1426,25.01,-25.44,35.48,0
1427,25.03,-26.15,53.93,0
1428,25.04,-57.66,62.3,0
1429,25.05,-55.25,30.46,0
1430,25.07,-63.51,56.63,0
1431,25.08,-57.73,84.52,0
1432,25.09,-71.16,114.93,0
1433,25.11,-65.87,123.72,0
1434,25.12,-60.71,129.83,0
1435,25.13,-51.29,134.29,0
1436,25.15,-51.34,141.01,0
1437,25.16,-57.88,134.29,0
1438,25.17,-62.2,131.26,0
1439,25.19,-35.76,121.59,0
1440,25.2,-43.68,92.53,0
1441,25.21,-67.1,81.13,0
1442,25.23,-35.59,57.75,0
1443,25.24,-31.51,33.44,0
1444,25.25,-40.87,11.09,0
1445,25.27,-41.8,16.51,0
1446,25.28,-43.11,20.08,0
1447,25.29,-31.06,-4.76,0
1448,25.31,-29.01,-20.07,0
1449,25.32,-22.99,-23.01,0
1450,25.33,-2.92,-26.85,0
1451,25.35,-27.7,-45.49,0
1452,25.36,-24.83,-32.45,0
1453,25.37,-24.94,-40.51,0
1454,25.38,3.42,-67.6,0
1455,25.4,1.46,-66.53,0
1456,25.41,-8.99,-48.71,0
1457,25.42,-3.93,-67.67,0
1458,25.44,11.2,-67.06,0
1459,25.45,-0.09,-56.33,0
1460,25.46,8.61,-53.87,0
1461,25.48,7.98,-62.61,0
1462,25.49,21.04,-49.96,0
1463,25.5,11.03,-41.74,0
1464,25.52,29.93,-36.23,0
1465,25.53,16.97,-47.2,0
1466,25.55,40.66,-40.99,0
1467,25.56,20.67,-51.32,0
1468,25.57,20.74,-29.1,0
1469,25.59,19.94,-25.05,0
1470,25.6,34.09,-36.45,0
1471,25.61,35.88,-30.15,0
1472,25.63,20.82,-23.97,0
1473,25.64,12.6,-35.65,0
1474,25.65,36.78,-10.0,0
1475,25.67,12.27,-19.3,0
1476,25.68,8.35,-4.83,0
1477,25.69,20.81,-10.68,0
1478,25.71,16.75,-1.51,0
1479,25.72,20.77,1.69,0
1480,25.73,17.06,-3.52,0
1481,25.75,25.88,1.77,0
1482,25.76,3.13,0.74,0
1483,25.77,-1.42,37.11,0
1484,25.79,-1.0,2.22,0
1485,25.8,24.45,15.84,0
1486,25.81,13.97,14.48,0
1487,25.83,10.28,4.39,0
1488,25.84,4.09,-0.45,0
1489,25.85,33.05,1.98,0
1490,25.87,-1.32,11.63,0
1491,25.88,-8.64,22.85,0
1492,25.89,2.92,11.71,0
1493,25.91,12.08,17.21,0
1494,25.92,2.67,42.83,0
1495,25.93,6.15,41.32,0
1496,25.95,12.22,29.28,0
1497,25.96,24.12,33.35,0
1498,25.97,5.6,21.15,0
1499,25.99,-1.89,41.34,0
1500,26.0,3.0,34.16,0
1501,26.01,17.23,44.15,0
1502,26.02,3.7,40.75,0
1503,26.04,-5.52,29.84,0
1504,26.05,-72.58,33.11,0
1505,26.06,0.28,19.67,0
1506,26.08,18.37,2.59,0
1507,26.09,-13.2,3.9,0
1508,26.1,25.48,7.76,1
1509,26.12,15.79,22.2,1
1510,26.13,4.09,13.6,1
1511,26.14,7.7,37.13,1
1512,26.16,0.79,48.34,1
1513,26.17,-21.99,243.47,1
1514,26.19,25.43,355.03,1
1515,26.2,123.84,120.21,1
1516,26.21,-182.01,27.5,1
1517,26.23,-45.18,-100.7,1
1518,26.24,-36.95,-181.22,1
1519,26.25,-4.26,31.15,1
1520,26.27,168.93,-41.12,1
1521,26.28,-65.52,94.16,1
1522,26.29,-21.52,-7.32,1
1523,26.31,74.21,-212.39,1
1524,26.32,-132.5,114.87,1
1525,26.33,166.34,-420.1,1
1526,26.35,-71.6,-322.21,1
1527,26.36,-171.96,100.32,1
1528,26.37,147.62,-230.01,1
1529,26.39,-149.17,-141.4,1
1530,26.4,87.98,-269.41,1
1531,26.41,139.22,-233.38,1
1532,26.43,-146.96,167.8,1
1533,26.44,89.55,97.82,1
1534,26.45,-59.48,-281.04,1
1535,26.47,-3.51,-73.94,1
1536,26.48,-72.97,98.5,1
1537,26.49,-10.93,285.87,1
1538,26.51,-101.48,-268.58,1
1539,26.52,-282.18,-525.13,1
1540,26.53,-257.93,-289.34,1
1541,26.55,-56.24,-110.5,1
1542,26.56,221.38,236.83,1
1543,26.57,96.98,340.92,1
1544,26.59,-2.29,406.95,1
1545,26.6,340.38,282.11,1
1546,26.61,117.31,71.94,1
1547,26.63,-115.99,-70.37,1
1548,26.64,-154.64,-249.28,1
1549,26.65,-105.65,174.18,1
1550,26.67,-76.99,288.34,1
1551,26.68,243.58,367.71,1
1552,26.69,-3.01,-69.43,1
1553,26.7,73.72,158.57,1
1554,26.72,-36.73,-8.94,1
1555,26.73,129.6,257.46,1
1556,26.75,69.53,-275.5,1
1557,26.76,-10.67,-37.9,1
1558,26.77,-384.95,-82.27,1
1559,26.78,-268.49,194.94,1
1560,26.8,-79.01,244.58,1
1561,26.81,86.74,12.22,1
1562,26.825,-142.33,444.6,1
1563,26.84,403.36,-58.04,1
1564,26.85,169.25,-350.5,1
1565,26.87,194.58,-53.52,1
1566,26.88,-210.48,166.73,1
1567,26.89,-83.3,177.72,1
1568,26.91,190.92,206.46,0
1569,26.92,154.33,-110.7,0
1570,26.93,80.53,228.94,0
1571,26.95,-14.08,-94.12,0
1572,26.96,-8.44,-183.42,0
1573,26.97,118.09,-190.87,0
1574,26.99,253.9,-117.13,0
1575,27.0,-116.86,-285.16,0
1576,27.01,14.09,-155.88,0
1577,27.03,80.72,-167.85,0
1578,27.04,6.8,-241.22,0
1579,27.05,0.44,-159.41,0
1580,27.07,-50.91,-159.73,0
1581,27.08,-37.45,-100.89,0
1582,27.09,-15.7,-69.26,0
1583,27.11,-31.99,-46.97,0
1584,27.12,-33.15,15.01,0
1585,27.13,-62.72,0.63,0
1586,27.15,-45.77,34.0,0
1587,27.16,-49.08,7.03,0
1588,27.17,-54.45,4.67,0
1589,27.19,-70.78,15.61,0
1590,27.2,-33.21,47.94,0
1591,27.21,-47.19,29.69,0
1592,27.23,-47.69,70.82,0
1593,27.24,-38.51,98.76,0
1594,27.25,-38.18,120.5,0
1595,27.27,-17.87,110.51,0
1596,27.28,3.32,147.66,0
1597,27.29,-1.93,132.2,0
1598,27.3,3.65,127.93,0
1599,27.32,-16.36,117.37,0
1600,27.33,0.85,99.86,0
1601,27.34,23.32,105.0,0
1602,27.36,28.78,71.81,0
1603,27.37,9.78,43.14,0
1604,27.38,-7.98,25.14,0
1605,27.4,-0.12,33.8,0
1606,27.41,2.92,17.42,0
1607,27.42,2.29,-2.04,0
1608,27.44,7.04,-13.42,0
1609,27.45,30.68,-14.28,0
1610,27.46,-1.65,-24.69,0
1611,27.48,25.1,-13.83,0
1612,27.49,7.26,-30.71,0
1613,27.51,18.34,-39.51,0
1614,27.52,-0.01,-34.75,0
1615,27.53,-13.23,-57.0,0
1616,27.55,-2.81,-43.95,0
1617,27.56,22.33,-52.47,0
1618,27.57,14.7,-47.13,0
1619,27.59,-1.03,-40.93,0
1620,27.6,4.73,-57.61,0
1621,27.61,3.42,-50.62,0
1622,27.63,-2.34,-55.56,0
1623,27.64,-10.96,-52.07,0
1624,27.65,1.69,-48.41,0
1625,27.67,0.24,-27.54,0
1626,27.68,-0.61,-27.9,0
1627,27.69,-10.78,-47.55,0
1628,27.71,16.34,-40.38,0
1629,27.72,1.71,-40.78,0
1630,27.73,3.87,-44.04,0
1631,27.75,-26.79,-54.58,0
1632,27.76,11.01,-17.08,0
1633,27.77,-4.79,-15.75,0
1634,27.79,-12.7,-11.99,0
1635,27.8,-2.47,-22.54,0
1636,27.81,20.66,-17.25,0
1637,27.83,10.61,-9.54,0
1638,27.84,1.7,18.76,0
1639,27.85,-26.63,-10.45,0
1640,27.87,10.52,-26.6,0
1641,27.88,-2.46,-0.03,0
1642,27.89,-4.15,3.69,0
1643,27.91,-9.1,15.15,0
1644,27.92,12.61,10.59,0
1645,27.93,-1.99,13.57,0
1646,27.94,-23.26,5.44,0
1647,27.96,7.23,4.3,0
1648,27.97,21.07,20.98,0
1649,27.98,1.99,19.21,0
1650,28.0,-11.16,21.27,0
1651,28.01,2.81,-3.49,0
1652,28.02,-1.91,1.23,0
1653,28.04,2.05,49.46,0
1654,28.05,-48.92,18.6,0
1655,28.06,9.9,36.21,0
1656,28.08,-5.75,24.47,0
1657,28.09,14.79,32.93,0
1658,28.1,28.61,34.67,1
1659,28.12,8.12,12.55,1
1660,28.13,2.7,0.03,1
1661,28.15,19.75,34.57,1
1662,28.16,-31.53,42.81,1
1663,28.17,29.41,70.59,1
1664,28.19,18.14,93.2,1
1665,28.2,-27.86,-114.75,1
1666,28.21,-145.35,217.07,1
1667,28.23,-169.2,186.33,1
1668,28.24,165.54,-87.43,1
1669,28.25,-54.9,-3.64,1
1670,28.27,35.11,337.7,1
1671,28.28,178.65,-51.73,1
1672,28.29,64.51,108.55,1
1673,28.31,267.01,-41.68,1
1674,28.32,10.62,-46.86,1
1675,28.33,219.8,18.32,1
1676,28.35,-127.04,-71.98,1
1677,28.36,213.97,196.06,1
1678,28.37,68.35,-39.69,1
1679,28.39,128.38,-263.33,1
1680,28.4,-139.3,-466.1,1
1681,28.41,-260.55,-468.93,1
1682,28.43,-269.37,73.88,1
1683,28.44,-65.76,95.03,1
1684,28.45,-274.06,107.05,1
1685,28.47,75.3,232.16,1
1686,28.48,-153.71,-173.21,1
1687,28.49,-168.98,-408.71,1
1688,28.51,49.25,404.85,1
1689,28.52,287.66,47.28,1
1690,28.53,-27.56,-165.96,1
1691,28.55,11.37,-505.13,1
1692,28.56,-93.95,-166.22,1
1693,28.57,-155.96,288.91,1
1694,28.58,-10.47,-7.99,1
1695,28.6,-280.18,-309.82,1
1696,28.61,18.3,-18.71,1
1697,28.62,208.3,-81.41,1
1698,28.64,-145.6,237.78,1
1699,28.65,97.3,-204.68,1
1700,28.67,-62.31,173.95,1
1701,28.68,-13.7,-170.13,1
1702,28.69,111.8,68.76,1
1703,28.7,63.72,33.34,1
1704,28.72,213.48,-175.64,1
1705,28.73,128.67,592.15,1
1706,28.75,-143.4,210.57,1
1707,28.76,142.18,130.83,1
1708,28.77,-44.1,-357.18,1
1709,28.79,269.05,62.66,1
1710,28.8,-212.7,53.98,1
1711,28.81,-47.17,-43.97,1
1712,28.83,157.71,-83.77,1
1713,28.84,-164.08,239.93,1
1714,28.85,81.36,106.38,1
1715,28.87,-72.15,-13.79,1
1716,28.88,86.24,-87.23,1
1717,28.89,-189.0,205.66,1
1718,28.91,-19.57,55.68,0
1719,28.92,-16.6,43.83,0
1720,28.93,36.68,-108.85,0
1721,28.95,20.66,53.57,0
1722,28.96,0.11,-10.52,0
1723,28.97,-19.24,67.22,0
1724,28.99,-19.44,-19.82,0
1725,29.0,0.33,15.12,0
1726,29.01,8.01,12.2,0
1727,29.03,13.61,36.61,0
1728,29.04,55.19,21.53,0
1729,29.05,66.41,51.45,0
1730,29.07,62.28,78.96,0
1731,29.08,24.29,87.01,0
1732,29.09,48.04,104.01,0
1733,29.11,52.42,100.79,0
1734,29.12,18.6,136.03,0
1735,29.13,18.82,124.95,0
1736,29.15,22.39,129.46,0
1737,29.16,0.27,126.26,0
1738,29.17,4.79,110.55,0
1739,29.19,-7.58,77.36,0
1740,29.2,2.4,56.08,0
1741,29.21,-8.96,49.88,0
1742,29.22,-4.96,4.72,0
1743,29.24,-13.68,-27.36,0
1744,29.25,23.91,-35.11,0
1745,29.26,14.45,-72.81,0
1746,29.28,1.94,-54.45,0
1747,29.29,-5.04,-63.75,0
1748,29.3,22.08,-62.22,0
1749,29.32,7.14,-99.06,0
1750,29.33,-1.98,-134.18,0
1751,29.34,-20.09,-139.5,0
1752,29.36,-21.5,-115.82,0
1753,29.37,-29.91,-118.96,0
1754,29.38,-28.31,-118.66,0
1755,29.4,-31.26,-127.65,0
1756,29.41,-3.63,-112.16,0
1757,29.42,-30.05,-99.09,0
1758,29.44,-19.73,-76.03,0
1759,29.45,-0.14,-101.1,0
1760,29.47,-1.5,-67.12,0
1761,29.48,-19.14,-81.32,0
1762,29.49,-33.24,-58.54,0
1763,29.51,-23.37,-79.52,0
1764,29.52,-15.47,-76.04,0
1765,29.53,-19.0,-53.22,0
1766,29.55,-41.07,-45.57,0
1767,29.56,-18.25,-30.46,0
1768,29.57,-20.31,-40.52,0
1769,29.59,-26.57,-35.68,0
1770,29.6,-27.23,-0.2,0
1771,29.61,4.12,13.1,0
1772,29.63,5.27,-5.56,0
1773,29.64,-5.39,-0.2,0
1774,29.65,18.62,-0.5,0
1775,29.67,20.9,12.27,0
1776,29.68,16.53,22.17,0
1777,29.69,-7.15,14.52,0
1778,29.71,-7.2,15.7,0
1779,29.72,7.68,19.6,0
1780,29.73,-0.5,16.48,0
1781,29.75,-1.87,30.61,0
1782,29.76,-23.46,38.02,0
1783,29.77,1.01,35.66,0
1784,29.79,-3.89,22.81,0
1785,29.8,-4.38,24.18,0
1786,29.81,1.41,49.36,0
1787,29.83,24.54,41.41,0
1788,29.84,2.56,35.67,0
1789,29.85,7.8,39.27,0
1790,29.86,30.06,63.13,0
1791,29.88,-1.03,53.09,0
1792,29.89,-6.34,36.36,0
1793,29.9,-21.71,28.81,0
1794,29.92,4.09,40.33,0
1795,29.93,-7.48,37.53,0
1796,29.94,11.03,33.09,0
1797,29.96,-7.0,14.66,0
1798,29.97,18.57,28.61,0
1799,29.98,8.62,13.03,0
1800,30.0,3.0,21.18,0
1801,30.01,3.19,10.96,0
1802,30.02,20.99,40.17,0
1803,30.04,-7.02,27.0,0
1804,30.05,-47.95,6.65,0
1805,30.06,0.25,21.2,0
1806,30.08,-13.34,4.27,0
1807,30.09,30.39,20.52,0
1808,30.11,5.91,29.77,1
1809,30.12,-3.18,108.16,1
1810,30.13,91.17,268.44,1
1811,30.15,42.91,370.1,1
1812,30.16,-138.08,212.35,1
1813,30.17,67.74,238.43,1
1814,30.19,5.77,85.25,1
1815,30.2,-120.51,18.1,1
1816,30.21,128.37,-70.15,1
1817,30.23,158.43,-304.65,1
1818,30.24,221.73,-146.73,1
1819,30.25,301.89,-372.91,1
1820,30.27,16.1,-380.92,1
1821,30.28,-28.5,229.0,1
1822,30.29,-116.14,-206.48,1
1823,30.31,-128.68,-179.8,1
1824,30.32,48.43,117.72,1
1825,30.33,-301.4,-241.09,1
1826,30.35,-181.48,-396.25,1
1827,30.36,-196.54,-313.62,1
1828,30.37,-185.08,-261.79,1
1829,30.39,-124.35,-508.49,1
1830,30.4,-53.84,-413.0,1
1831,30.41,-121.14,-87.19,1
1832,30.43,-23.72,294.8,1
1833,30.44,-154.84,359.87,1
1834,30.45,249.72,-124.3,1
1835,30.47,416.87,269.27,1
1836,30.48,81.88,325.91,1
1837,30.49,365.78,-171.89,1
1838,30.5,87.33,-70.22,1
1839,30.52,-163.27,-173.76,1
1840,30.53,11.48,161.21,1
1841,30.54,78.97,205.12,1
1842,30.56,-127.0,522.1,1
1843,30.57,-28.22,56.75,1
1844,30.58,235.67,545.69,1
1845,30.6,-70.16,77.88,1
1846,30.61,-176.78,-184.95,1
1847,30.62,111.72,266.3,1
1848,30.64,288.29,-130.21,1
1849,30.65,128.14,128.36,1
1850,30.67,-111.55,-301.19,1
1851,30.68,0.24,337.49,1
1852,30.69,-193.8,181.16,1
1853,30.7,-247.29,441.06,1
1854,30.72,-45.95,13.26,1
1855,30.73,33.09,-63.42,1
1856,30.75,125.39,-12.39,1
1857,30.76,11.84,-387.86,1
1858,30.77,38.72,-112.19,1
1859,30.79,202.92,164.55,1
1860,30.8,-194.12,-254.42,1
1861,30.81,-140.21,-168.37,1
1862,30.83,-151.78,236.93,1
1863,30.84,-74.37,169.91,1
1864,30.85,-251.56,-479.24,1
1865,30.87,146.72,144.02,1
1866,30.88,-38.53,495.0,1
1867,30.89,-34.99,81.77,1
1868,30.91,-151.72,-70.52,0
1869,30.92,-188.32,40.3,0
1870,30.93,-152.23,-306.85,0
1871,30.95,125.23,-96.89,0
1872,30.96,-15.16,-124.08,0
1873,30.97,-0.93,-142.13,0
1874,30.99,-14.43,-142.0,0
1875,31.0,20.52,-183.88,0
1876,31.01,32.22,-167.73,0
1877,31.03,67.12,-99.05,0
1878,31.04,57.06,-41.56,0
1879,31.05,113.49,18.5,0
1880,31.07,84.6,23.32,0
1881,31.08,78.16,7.54,0
1882,31.09,72.16,19.97,0
1883,31.11,75.46,33.69,0
1884,31.12,79.06,40.61,0
1885,31.13,60.78,43.98,0
1886,31.14,66.06,73.34,0
1887,31.16,55.24,94.08,0
1888,31.17,38.18,115.86,0
1889,31.18,26.48,129.87,0
1890,31.2,1.79,133.58,0
1891,31.21,27.21,118.98,0
1892,31.22,23.26,114.41,0
1893,31.24,10.71,67.3,0
1894,31.25,-1.04,39.81,0
1895,31.26,32.76,21.15,0
1896,31.28,25.23,23.52,0
1897,31.29,11.54,-5.28,0
1898,31.3,4.5,-14.98,0
1899,31.32,0.67,-25.37,0
1900,31.33,-10.97,-22.69,0
1901,31.34,-4.39,-19.22,0
1902,31.36,-2.14,-36.4,0
1903,31.37,-4.36,-40.04,0
1904,31.39,-27.51,-62.95,0
1905,31.4,-20.58,-47.75,0
1906,31.41,6.55,-44.58,0
1907,31.43,-12.94,-45.86,0
1908,31.44,-11.91,-49.24,0
1909,31.45,-36.32,-38.71,0
1910,31.47,-7.58,-36.32,0
1911,31.48,-18.73,-46.22,0
1912,31.49,-18.78,-42.58,0
1913,31.51,-27.56,-37.3,0
1914,31.52,-21.17,-45.79,0
1915,31.53,-25.37,-39.91,0
1916,31.55,-31.64,-45.73,0
1917,31.56,-33.62,-36.73,0
1918,31.57,-13.57,-37.1,0
1919,31.59,-9.79,-29.56,0
1920,31.6,-26.16,-29.92,0
1921,31.61,-20.25,-22.8,0
1922,31.63,6.58,-23.9,0
1923,31.64,-13.92,-22.61,0
1924,31.65,-25.92,-16.21,0
1925,31.67,-21.82,-16.59,0
1926,31.68,-11.57,-11.21,0
1927,31.69,-16.29,-8.4,0
1928,31.71,-3.74,8.6,0
1929,31.72,-10.08,-8.22,0
1930,31.73,-9.88,-3.11,0
1931,31.75,-6.55,0.91,0
1932,31.76,-14.57,5.93,0
1933,31.77,-4.39,-2.2,0
1934,31.78,-21.72,-3.11,0
1935,31.8,-14.8,9.51,0
1936,31.81,-10.04,21.28,0
1937,31.82,34.32,30.92,0
1938,31.84,3.92,15.82,0
1939,31.85,-5.3,11.73,0
1940,31.86,-9.52,35.04,0
1941,31.88,8.99,28.0,0
1942,31.89,3.72,45.91,0
1943,31.9,-5.15,19.75,0
1944,31.92,0.2,15.37,0
1945,31.93,18.9,9.69,0
1946,31.94,11.47,21.14,0
1947,31.96,22.0,2.97,0
1948,31.97,7.18,27.3,0
1949,31.98,21.19,16.66,0
1950,32.0,-0.42,24.61,0
1951,32.01,9.82,8.34,0
1952,32.03,7.98,17.94,0
1953,32.04,14.24,23.56,0
1954,32.05,-33.15,21.62,0
1955,32.07,-29.48,27.27,0
1956,32.08,-9.53,19.17,0
1957,32.09,45.81,22.85,0
1958,32.11,-4.63,23.6,1
1959,32.12,10.55,57.33,1
1960,32.13,36.97,155.45,1
1961,32.15,17.65,169.43,1
1962,32.16,-26.88,259.36,1
1963,32.17,-109.19,-150.81,1
1964,32.19,137.01,158.5,1
1965,32.2,-181.84,284.23,1
1966,32.21,42.64,176.78,1
1967,32.23,17.64,48.94,1
1968,32.24,15.91,-327.26,1
1969,32.25,336.5,-301.07,1
1970,32.27,309.59,92.97,1
1971,32.28,30.52,-263.55,1
1972,32.29,118.3,-292.55,1
1973,32.31,143.53,-270.8,1
1974,32.32,51.0,-362.79,1
1975,32.33,-142.67,-279.76,1
1976,32.35,21.67,201.24,1
1977,32.36,-167.08,-2.24,1
1978,32.37,-93.52,148.4,1
1979,32.39,-39.58,-86.12,1
1980,32.4,-121.31,-187.54,1
1981,32.41,57.54,94.4,1
1982,32.43,-391.93,142.59,1
1983,32.44,-238.71,179.15,1
1984,32.45,27.01,-226.56,1
1985,32.47,212.43,-140.64,1
1986,32.48,-129.86,-209.07,1
1987,32.49,-49.6,-344.3,1
1988,32.51,-116.22,-19.9,1
1989,32.52,-159.67,315.55,1
1990,32.53,-117.94,-98.64,1
1991,32.54,164.0,56.92,1
1992,32.56,-182.89,-336.15,1
1993,32.57,-122.16,104.73,1
1994,32.59,126.64,208.89,1
1995,32.6,-142.5,74.49,1
1996,32.61,105.54,56.26,1
1997,32.63,380.74,-19.98,1
1998,32.64,232.55,311.71,1
1999,32.65,277.89,440.18,1
2000,32.67,0.65,259.68,1
2001,32.68,-1.64,194.61,1
2002,32.69,-136.13,-77.61,1
2003,32.71,-71.16,49.27,1
2004,32.72,-111.15,-97.37,1
2005,32.73,130.88,75.4,1
2006,32.75,-45.39,315.53,1
2007,32.76,-154.83,600.74,1
2008,32.77,-262.33,164.73,1
2009,32.79,-170.8,-31.7,1
2010,32.8,-114.37,-20.05,1
2011,32.81,-88.88,-251.77,1
2012,32.83,-224.14,-227.85,1
2013,32.84,248.17,-298.05,1
2014,32.85,-149.41,53.51,1
2015,32.87,510.24,7.61,1
2016,32.88,-108.96,-233.92,1
2017,32.89,218.74,116.29,1
2018,32.91,201.05,48.87,0
2019,32.92,74.45,-121.87,0
2020,32.93,124.22,-48.8,0
2021,32.95,9.88,-59.15,0
2022,32.96,81.81,-106.62,0
2023,32.97,31.23,-59.49,0
2024,32.99,27.45,-82.91,0
2025,33.0,0.19,-68.3,0
2026,33.01,56.16,-98.94,0
2027,33.03,31.34,-75.12,0
2028,33.04,17.93,-52.69,0
2029,33.05,13.59,-22.27,0
2030,33.06,34.64,-7.34,0
2031,33.08,3.4,8.87,0
2032,33.09,-29.45,25.15,0
2033,33.11,-26.68,65.0,0
2034,33.12,-4.75,69.54,0
2035,33.13,-11.96,94.32,0
2036,33.15,-35.68,103.97,0
2037,33.16,-36.0,71.2,0
2038,33.17,-13.61,75.94,0
2039,33.19,-14.85,68.75,0
2040,33.2,-9.87,30.89,0
2041,33.21,-8.23,23.56,0
2042,33.22,2.73,-1.82,0
2043,33.24,-10.1,2.56,0
2044,33.25,-2.41,-7.25,0
2045,33.27,13.19,-10.12,0
2046,33.28,-24.03,-3.36,0
2047,33.29,-29.8,-27.8,0
2048,33.31,-26.35,-25.56,0
2049,33.32,6.51,-54.98,0
2050,33.33,-16.04,-45.35,0
2051,33.35,-16.83,-42.87,0
2052,33.36,-27.55,-55.8,0
2053,33.37,-12.8,-44.05,0
2054,33.39,-15.77,-58.7,0
2055,33.4,-20.97,-70.3,0
2056,33.41,-36.08,-47.12,0
2057,33.43,-1.42,-30.35,0
2058,33.44,-3.28,-40.56,0
2059,33.45,-24.87,-29.09,0
2060,33.47,-25.1,-33.8,0
2061,33.48,-1.32,-41.91,0
2062,33.49,-23.49,-23.33,0
2063,33.51,-31.07,-18.81,0
2064,33.52,-9.38,-39.22,0
2065,33.53,2.29,-22.63,0
2066,33.55,-21.52,-17.23,0
2067,33.56,-12.17,-3.4,0
2068,33.57,-14.59,-13.44,0
2069,33.59,-4.01,-8.12,0
2070,33.6,-5.57,-13.74,0
2071,33.61,3.5,-13.5,0
2072,33.63,9.59,10.0,0
2073,33.64,-8.43,6.05,0
2074,33.65,-5.07,14.17,0
2075,33.67,-3.6,17.94,0
2076,33.68,13.71,17.04,0
2077,33.69,-3.63,10.26,0
2078,33.71,-4.83,25.79,0
2079,33.72,1.19,24.33,0
2080,33.73,11.05,4.05,0
2081,33.75,11.33,24.65,0
2082,33.76,-11.64,33.09,0
2083,33.77,-6.06,13.27,0
2084,33.79,16.52,27.31,0
2085,33.8,8.62,20.13,0
2086,33.81,12.82,27.45,0
2087,33.83,-3.14,25.38,0
2088,33.84,13.32,-1.54,0
2089,33.85,2.85,18.47,0
2090,33.87,5.38,17.49,0
2091,33.88,9.81,21.26,0
2092,33.89,12.49,23.17,0
2093,33.9,8.42,22.13,0
2094,33.92,-1.94,5.92,0
2095,33.93,11.52,41.18,0
2096,33.95,19.48,35.99,0
2097,33.96,6.4,26.37,0
2098,33.97,9.01,15.22,0
2099,33.99,15.37,13.97,0
2100,34.0,15.4,-2.95,0
2101,34.01,8.38,14.84,0
2102,34.03,-8.27,-1.68,0
2103,34.04,1.87,10.29,0
2104,34.05,-45.86,11.75,0
2105,34.07,-23.48,-2.23,0
2106,34.08,-10.07,10.93,0
2107,34.09,19.7,-7.03,0
2108,34.11,0.86,-1.63,1
2109,34.12,14.14,42.69,1
2110,34.13,6.44,81.4,1
2111,34.15,26.75,43.57,1
2112,34.16,14.5,27.71,1
2113,34.17,40.43,163.82,1
2114,34.19,287.44,366.81,1
2115,34.2,266.31,-34.35,1
2116,34.21,-57.09,-318.05,1
2117,34.23,-73.25,-213.65,1
2118,34.24,-226.08,-53.26,1
2119,34.25,-36.74,251.54,1
2120,34.27,218.77,13.76,1
2121,34.28,-172.38,-1.85,1
2122,34.29,-55.65,-406.41,1
2123,34.31,-79.28,-128.07,1
2124,34.32,68.74,-171.95,1
2125,34.33,-200.28,-237.46,1
2126,34.35,-0.35,218.3,1
2127,34.36,-14.6,10.51,1
2128,34.37,-172.76,280.25,1
2129,34.38,-107.53,-390.07,1
2130,34.4,19.73,-80.45,1
2131,34.41,-55.13,332.93,1
2132,34.43,-53.92,48.44,1
2133,34.44,-135.44,42.95,1
2134,34.45,-63.01,-63.28,1
2135,34.47,-112.49,-91.67,1
2136,34.48,14.58,58.16,1
2137,34.49,18.03,-485.58,1
2138,34.51,49.5,-138.28,1
2139,34.52,245.04,-85.11,1
2140,34.53,-13.76,129.0,1
2141,34.54,46.86,344.32,1
2142,34.56,-77.59,299.54,1
2143,34.57,-23.34,164.93,1
2144,34.59,65.57,275.96,1
2145,34.6,242.34,-151.68,1
2146,34.61,199.89,-79.13,1
2147,34.63,303.36,-7.23,1
2148,34.64,307.22,-493.81,1
2149,34.65,225.31,-186.75,1
2150,34.67,-246.1,-185.51,1
2151,34.68,-268.1,39.78,1
2152,34.69,48.39,142.51,1
2153,34.71,-202.95,144.94,1
2154,34.72,-56.33,-99.63,1
2155,34.73,-33.88,377.6,1
2156,34.75,-213.41,258.79,1
2157,34.76,-125.47,319.24,1
2158,34.77,-86.76,26.55,1
2159,34.79,91.4,-316.04,1
2160,34.8,-58.09,-265.87,1
2161,34.81,258.24,-194.03,1
2162,34.83,35.21,203.12,1
2163,34.84,-32.8,-38.02,1
2164,34.85,-54.21,-245.04,1
2165,34.87,3.88,11.04,1
2166,34.88,-14.9,91.54,1
2167,34.89,-109.28,-333.67,1
2168,34.91,-121.32,-21.99,0
2169,34.92,98.75,470.06,0
2170,34.93,-9.77,328.89,0
2171,34.95,386.4,231.58,0
2172,34.96,-26.03,-99.95,0
2173,34.97,232.65,-15.76,0
2174,34.99,-113.79,-259.73,0
2175,35.0,88.07,-90.51,0
2176,35.01,-173.21,303.03,0
2177,35.03,32.27,-109.3,0
2178,35.04,11.45,-12.44,0
2179,35.05,-225.14,-107.09,0
2180,35.06,-207.19,-120.68,0
2181,35.08,118.61,-167.62,0
2182,35.09,44.69,-126.82,0
2183,35.11,76.1,-36.26,0
2184,35.12,66.57,-9.03,0
2185,35.13,84.66,43.27,0
2186,35.15,55.41,73.98,0
2187,35.16,45.4,91.1,0
2188,35.17,23.09,80.89,0
2189,35.19,-7.19,89.74,0
2190,35.2,-18.09,88.29,0
2191,35.21,-30.02,59.54,0
2192,35.22,-17.44,42.56,0
2193,35.24,-40.95,52.79,0
2194,35.25,-67.32,48.54,0
2195,35.27,-67.96,50.95,0
2196,35.28,-45.99,71.59,0
2197,35.29,-37.06,67.91,0
2198,35.31,-48.81,69.87,0
2199,35.32,-56.66,73.66,0
2200,35.33,-26.63,45.7,0
2201,35.35,-23.64,32.92,0
2202,35.36,-19.16,22.27,0
2203,35.37,-6.72,-7.21,0
2204,35.39,0.37,-23.82,0
2205,35.4,-9.2,-35.37,0
2206,35.41,-12.45,-18.7,0
2207,35.43,-7.44,-39.26,0
2208,35.44,6.12,-26.59,0
2209,35.45,-7.55,-40.31,0
2210,35.47,-5.34,-40.43,0
2211,35.48,16.61,-26.26,0
2212,35.49,16.39,-52.75,0
2213,35.51,15.76,-66.4,0
2214,35.52,9.76,-76.6,0
2215,35.53,19.48,-84.82,0
2216,35.55,1.9,-70.13,0
2217,35.56,9.93,-42.61,0
2218,35.57,10.52,-51.88,0
2219,35.59,26.44,-52.07,0
2220,35.6,1.74,-49.14,0
2221,35.61,-6.31,-61.96,0
2222,35.63,11.9,-58.52,0
2223,35.64,14.01,-36.4,0
2224,35.65,5.6,-29.2,0
2225,35.67,-13.84,-44.51,0
2226,35.68,-5.52,-41.5,0
2227,35.69,18.32,-26.96,0
2228,35.71,15.29,-31.64,0
2229,35.72,-13.66,1.15,0
2230,35.73,7.32,7.35,0
2231,35.75,23.02,-7.25,0
2232,35.76,7.64,1.08,0
2233,35.77,6.21,-1.07,0
2234,35.79,2.96,-8.36,0
2235,35.8,3.12,-4.39,0
2236,35.81,-1.07,-1.02,0
2237,35.83,5.65,10.35,0
2238,35.84,3.31,14.62,0
2239,35.85,12.49,9.32,0
2240,35.87,-5.81,25.32,0
2241,35.88,2.27,21.18,0
2242,35.89,24.71,32.76,0
2243,35.9,18.18,17.94,0
2244,35.92,-2.97,5.76,0
2245,35.93,-4.29,30.43,0
2246,35.95,14.93,20.11,0
2247,35.96,18.15,11.59,0
2248,35.97,-7.1,19.3,0
2249,35.99,-3.13,25.35,0
2250,36.0,8.9,25.17,0
2251,36.01,-12.8,24.53,0
2252,36.03,-12.25,29.84,0
2253,36.04,-16.97,29.91,0
2254,36.05,-27.23,21.09,0
2255,36.07,-32.38,16.75,0
2256,36.08,10.15,22.76,0
2257,36.09,-9.69,14.43,0
2258,36.11,18.62,37.71,1
2259,36.12,30.02,24.78,1
2260,36.13,2.67,31.18,1
2261,36.15,0.39,75.23,1
2262,36.16,21.57,18.23,1
2263,36.17,26.45,-97.21,1
2264,36.19,159.55,15.76,1
2265,36.2,-155.28,-20.8,1
2266,36.21,-86.57,474.03,1
2267,36.23,-0.13,184.61,1
2268,36.24,-20.75,60.1,1
2269,36.25,-136.33,246.58,1
2270,36.27,-4.25,-271.4,1
2271,36.28,89.91,-354.31,1
2272,36.29,-118.73,-13.94,1
2273,36.31,203.51,227.13,1
2274,36.32,144.25,23.3,1
2275,36.33,153.33,130.87,1
2276,36.35,108.96,5.28,1
2277,36.36,270.25,-88.94,1
2278,36.37,-96.52,-512.52,1
2279,36.38,4.78,-135.1,1
2280,36.4,-83.0,-350.2,1
2281,36.41,-61.19,-205.79,1
2282,36.43,-268.76,-139.25,1
2283,36.44,12.67,-197.26,1
2284,36.45,-28.77,-286.29,1
2285,36.47,34.17,-221.65,1
2286,36.48,-126.95,178.09,1
2287,36.49,-147.53,215.0,1
2288,36.51,-19.44,99.25,1
2289,36.52,-97.68,174.78,1
2290,36.53,-121.17,133.14,1
2291,36.54,-28.79,204.9,1
2292,36.56,-211.23,-51.32,1
2293,36.57,-265.24,-10.17,1
2294,36.59,-28.6,219.61,1
2295,36.6,0.99,424.58,1
2296,36.61,-167.83,-86.64,1
2297,36.63,-184.19,-301.49,1
2298,36.64,82.48,312.04,1
2299,36.65,183.22,88.88,1
2300,36.67,-20.41,86.7,1
2301,36.68,-44.24,68.04,1
2302,36.69,259.18,242.46,1
2303,36.71,188.41,-245.27,1
2304,36.72,210.26,-286.6,1
2305,36.73,-6.72,-178.35,1
2306,36.75,229.29,-457.4,1
2307,36.76,88.45,-47.04,1
2308,36.77,258.53,-56.14,1
2309,36.79,48.09,131.32,1
2310,36.8,336.76,428.76,1
2311,36.81,45.88,50.64,1
2312,36.83,99.76,321.49,1
2313,36.84,-79.96,-1.88,1
2314,36.85,-202.03,-300.81,1
2315,36.87,-231.24,196.89,1
2316,36.88,159.32,-197.93,1
2317,36.89,-110.85,-344.19,1
2318,36.9,40.71,-90.06,1
2319,36.92,-22.59,226.72,0
2320,36.93,188.8,53.98,0
2321,36.95,177.64,-8.21,0
2322,36.96,171.15,446.65,0
2323,36.97,-68.21,-34.27,0
2324,36.99,25.76,-76.45,0
2325,37.0,145.9,119.63,0
2326,37.01,-386.23,95.13,0
2327,37.03,-37.12,49.44,0
2328,37.04,-167.58,-184.46,0
2329,37.05,-215.49,-109.29,0
2330,37.06,-23.52,-151.83,0
2331,37.08,-50.54,-91.11,0
2332,37.09,-11.4,-151.46,0
2333,37.11,-59.22,-85.77,0
2334,37.12,-48.51,-90.21,0
2335,37.13,-9.65,45.49,0
2336,37.15,19.7,40.31,0
2337,37.16,0.46,80.08,0
2338,37.17,19.7,48.54,0
2339,37.19,35.2,62.58,0
2340,37.2,24.28,62.65,0
2341,37.21,16.23,61.7,0
2342,37.22,-4.95,74.26,0
2343,37.24,10.35,89.71,0
2344,37.25,27.22,97.83,0
2345,37.27,0.22,100.23,0
2346,37.28,-14.97,121.63,0
2347,37.29,-6.14,85.51,0
2348,37.31,-27.57,73.32,0
2349,37.32,-19.03,45.79,0
2350,37.33,5.09,46.21,0
2351,37.35,-12.24,29.21,0
2352,37.36,-9.24,10.78,0
2353,37.37,-35.72,4.45,0
2354,37.39,-9.69,-13.4,0
2355,37.4,-19.27,-35.63,0
2356,37.41,-32.31,-48.39,0
2357,37.43,-18.32,-47.77,0
2358,37.44,-23.47,-52.62,0
2359,37.45,-15.77,-39.24,0
2360,37.47,-24.27,-58.95,0
2361,37.48,-26.47,-55.16,0
2362,37.49,-10.46,-66.83,0
2363,37.51,-21.94,-62.22,0
2364,37.52,-22.17,-60.63,0
2365,37.53,-17.5,-68.79,0
2366,37.54,5.76,-75.82,0
2367,37.56,-15.27,-44.17,0
2368,37.57,-10.34,-70.02,0
2369,37.59,-0.93,-56.04,0
2370,37.6,25.88,-38.55,0
2371,37.61,4.39,-47.96,0
2372,37.63,-6.27,-37.92,0
2373,37.64,-11.54,-45.32,0
2374,37.65,24.93,-48.58,0
2375,37.67,15.56,-14.67,0
2376,37.68,15.45,-10.69,0
2377,37.69,-0.08,-8.13,0
2378,37.71,18.04,-34.03,0
2379,37.72,14.83,-25.27,0
2380,37.73,-5.18,-2.5,0
2381,37.75,17.55,-20.42,0
2382,37.76,5.0,-7.22,0
2383,37.77,3.07,-5.74,0
2384,37.79,16.33,4.73,0
2385,37.8,46.14,13.0,0
2386,37.81,28.46,4.82,0
2387,37.83,4.53,21.8,0
2388,37.84,3.14,16.42,0
2389,37.85,24.58,7.87,0
2390,37.87,23.73,0.99,0
2391,37.88,28.82,5.87,0
2392,37.89,10.87,10.95,0
2393,37.91,31.83,33.87,0
2394,37.92,10.14,16.44,0
2395,37.93,-2.67,13.52,0
2396,37.95,8.05,23.46,0
2397,37.96,27.21,34.8,0
2398,37.97,6.96,22.62,0
2399,37.99,11.44,22.95,0
2400,38.0,13.4,32.85,0
2401,38.01,29.6,28.61,0
2402,38.03,-7.08,29.92,0
2403,38.04,-5.19,15.22,0
2404,38.05,-14.75,6.63,0
2405,38.07,-9.24,32.34,0
2406,38.08,-8.33,14.74,0
2407,38.09,-19.33,42.0,0
2408,38.11,28.49,50.6,1
2409,38.12,-0.15,52.12,1
2410,38.13,7.68,113.92,1
2411,38.15,16.89,330.61,1
2412,38.16,55.65,201.88,1
2413,38.17,322.15,317.61,1
2414,38.19,71.16,183.17,1
2415,38.2,0.97,118.11,1
2416,38.21,-154.36,0.19,1
2417,38.22,80.76,-101.62,1
2418,38.24,-226.75,-307.15,1
2419,38.25,113.6,-550.96,1
2420,38.27,154.66,-547.44,1
2421,38.28,132.7,-101.27,1
2422,38.29,-130.83,-30.73,1
2423,38.31,-103.02,-129.29,1
2424,38.32,-335.42,238.97,1
2425,38.33,-110.21,-1.66,1
2426,38.35,-271.99,57.46,1
2427,38.36,-111.49,-276.51,1
2428,38.37,-179.78,55.96,1
2429,38.38,-94.47,-120.34,1
2430,38.4,41.59,118.86,1
2431,38.41,-265.63,-136.46,1
2432,38.43,46.41,-521.55,1
2433,38.44,41.81,-152.25,1
2434,38.45,-82.79,29.18,1
2435,38.47,96.51,-127.61,1
2436,38.48,5.04,-221.79,1
2437,38.49,146.52,270.27,1
2438,38.51,-150.34,75.57,1
2439,38.52,276.46,87.19,1
2440,38.53,-203.37,62.52,1
2441,38.55,256.28,270.25,1
2442,38.56,32.05,48.32,1
2443,38.57,301.99,120.76,1
2444,38.59,95.7,45.05,1
2445,38.6,205.77,79.56,1
2446,38.61,217.18,290.06,1
2447,38.63,-355.08,151.37,1
2448,38.64,-23.68,23.0,1
2449,38.65,106.96,90.55,1
2450,38.67,298.75,-18.51,1
2451,38.68,-94.54,112.0,1
2452,38.69,-40.61,-252.9,1
2453,38.71,8.03,-0.34,1
2454,38.72,-46.65,311.77,1
2455,38.73,117.94,348.37,1
2456,38.75,-56.21,401.32,1
2457,38.76,2.94,194.83,1
2458,38.77,-14.28,-49.95,1
2459,38.79,167.37,-140.33,1
2460,38.8,152.89,-1.09,1
2461,38.81,-156.79,-252.9,1
2462,38.83,-152.24,-88.24,1
2463,38.84,-24.42,-250.1,1
2464,38.85,-38.28,-137.06,1
2465,38.87,-98.99,-142.7,1
2466,38.88,-42.87,-110.95,1
2467,38.89,-81.41,-152.72,1
2468,38.9,-90.77,-149.56,1
2469,38.92,-91.47,-143.52,0
2470,38.93,-73.42,-109.77,0
2471,38.95,-61.83,-64.5,0
2472,38.96,-48.54,-29.71,0
2473,38.97,-44.84,-48.58,0
2474,38.99,-23.04,-20.49,0
2475,39.0,-18.34,-28.59,0
2476,39.01,36.69,8.16,0
2477,39.03,25.68,39.08,0
2478,39.04,42.53,54.34,0
2479,39.05,44.65,70.59,0
2480,39.06,31.47,64.68,0
2481,39.08,51.59,123.21,0
2482,39.09,19.71,146.32,0
2483,39.11,6.41,159.12,0
2484,39.12,24.94,153.95,0
2485,39.13,43.75,156.32,0
2486,39.15,79.09,123.84,0
2487,39.16,75.77,120.36,0
2488,39.17,54.02,122.35,0
2489,39.19,64.74,90.3,0
2490,39.2,63.42,66.91,0
2491,39.21,54.03,39.34,0
2492,39.23,22.74,28.81,0
2493,39.24,45.96,16.6,0
2494,39.25,11.99,-11.25,0
2495,39.27,-6.24,-31.0,0
2496,39.28,-5.98,-29.95,0
2497,39.29,-10.37,-30.08,0
2498,39.31,22.67,-52.02,0
2499,39.32,1.07,-57.25,0
2500,39.33,-10.85,-65.18,0
2501,39.35,-12.01,-84.94,0
2502,39.36,-20.29,-67.59,0
2503,39.37,-34.77,-75.66,0
2504,39.39,-52.51,-77.94,0
2505,39.4,-46.83,-76.9,0
2506,39.41,-35.96,-72.82,0
2507,39.43,-33.71,-57.82,0
2508,39.44,-27.29,-51.18,0
2509,39.45,-36.32,-64.84,0
2510,39.47,-48.93,-65.23,0
2511,39.48,-49.13,-78.09,0
2512,39.49,-51.14,-58.27,0
2513,39.51,-16.94,-49.94,0
2514,39.52,-22.23,-50.97,0
2515,39.53,-24.43,-38.09,0
2516,39.54,-29.67,-26.73,0
2517,39.56,-7.7,-33.92,0
2518,39.57,-20.84,-27.11,0
2519,39.59,-24.42,-17.54,0
2520,39.6,-2.13,-28.02,0
2521,39.61,-2.95,-51.22,0
2522,39.63,5.17,-15.2,0
2523,39.64,-9.7,-3.07,0
2524,39.65,8.18,6.08,0
2525,39.67,-1.85,9.83,0
2526,39.68,-5.81,7.66,0
2527,39.69,-0.93,13.83,0
2528,39.71,14.11,14.34,0
2529,39.72,9.49,8.25,0
2530,39.73,-0.96,14.54,0
2531,39.75,1.34,10.75,0
2532,39.76,27.8,15.74,0
2533,39.77,5.11,28.96,0
2534,39.79,-9.01,37.58,0
2535,39.8,-3.99,30.82,0
2536,39.81,27.42,38.39,0
2537,39.83,18.69,13.85,0
2538,39.84,13.28,20.41,0
2539,39.85,-4.02,17.1,0
2540,39.87,21.9,5.83,0
2541,39.88,-1.9,19.84,0
2542,39.89,17.28,41.65,0
2543,39.91,11.03,20.37,0
2544,39.92,14.67,23.94,0
2545,39.93,11.95,24.58,0
2546,39.95,16.7,25.38,0
2547,39.96,17.92,7.75,0
2548,39.97,19.99,22.84,0
2549,39.99,7.57,17.69,0
2550,40.0,-10.2,4.34,0
2551,40.01,5.23,4.75,0
2552,40.03,3.58,-3.01,0
2553,40.04,8.71,25.71,0
2554,40.05,10.61,21.26,0
2555,40.07,-7.45,30.97,0
2556,40.08,-18.08,11.12,0
2557,40.09,-12.71,17.78,0
2558,40.11,19.05,31.02,1
2559,40.12,12.7,14.96,1
2560,40.13,0.46,32.98,1
2561,40.15,11.27,68.48,1
2562,40.16,7.62,143.45,1
2563,40.17,27.44,149.74,1
2564,40.19,49.08,65.93,1
2565,40.2,-48.27,357.88,1
2566,40.21,-281.47,186.84,1
2567,40.22,174.18,-6.81,1
2568,40.24,43.14,-64.18,1
2569,40.25,-79.36,-138.24,1
2570,40.27,351.08,-358.32,1
2571,40.28,257.11,13.73,1
2572,40.29,-14.21,19.37,1
2573,40.31,-132.36,-218.21,1
2574,40.32,216.63,158.01,1
2575,40.33,46.8,-77.24,1
2576,40.35,-132.34,-314.82,1
2577,40.36,-70.9,-90.27,1
2578,40.37,-294.6,-304.22,1
2579,40.38,159.68,-412.9,1
2580,40.4,-219.35,-158.73,1
2581,40.41,-178.48,-315.31,1
2582,40.43,48.74,-55.65,1
2583,40.44,23.34,-182.71,1
2584,40.45,-32.9,195.96,1
2585,40.47,37.04,304.15,1
2586,40.48,-43.64,136.14,1
2587,40.49,-112.0,218.02,1
2588,40.51,21.66,-275.42,1
2589,40.52,-12.17,40.19,1
2590,40.53,22.85,20.66,1
2591,40.55,-134.41,141.65,1
2592,40.56,61.19,-62.87,1
2593,40.57,-163.05,10.66,1
2594,40.59,-116.03,-200.82,1
2595,40.6,-117.45,85.29,1
2596,40.61,-73.75,332.2,1
2597,40.63,-3.15,409.52,1
2598,40.64,103.24,198.04,1
2599,40.65,299.28,194.63,1
2600,40.67,77.91,-244.76,1
2601,40.68,228.03,54.41,1
2602,40.69,-39.67,-262.63,1
2603,40.71,-90.91,97.24,1
2604,40.72,-328.67,146.58,1
2605,40.73,53.11,-204.54,1
2606,40.75,18.61,-6.67,1
2607,40.76,1.52,91.26,1
2608,40.77,-155.02,118.77,1
2609,40.79,76.07,-191.38,1
2610,40.8,48.6,-9.15,1
2611,40.81,209.29,58.93,1
2612,40.83,-11.09,53.14,1
2613,40.84,-0.6,165.02,1
2614,40.85,-27.79,-26.58,1
2615,40.87,343.89,9.6,1
2616,40.88,-109.05,199.13,1
2617,40.89,-9.69,-79.83,1
2618,40.9,161.71,-19.65,1
2619,40.92,-68.84,-52.71,0
2620,40.93,119.54,-0.93,0
2621,40.95,52.98,-17.65,0
2622,40.96,96.61,-98.32,0
2623,40.97,70.64,-168.84,0
2624,40.99,31.95,-136.03,0
2625,41.0,29.73,-78.07,0
2626,41.01,-5.89,-25.04,0
2627,41.03,-12.95,17.69,0
2628,41.04,-30.02,8.81,0
2629,41.05,-18.35,18.87,0
2630,41.06,-54.97,21.4,0
2631,41.08,-40.09,19.05,0
2632,41.09,-20.27,33.22,0
2633,41.11,-1.72,59.56,0
2634,41.12,-4.77,70.95,0
2635,41.13,-7.76,51.87,0
2636,41.15,-14.32,118.23,0
2637,41.16,-11.33,148.28,0
2638,41.17,-25.94,152.71,0
2639,41.19,-22.8,130.34,0
2640,41.2,-3.89,128.4,0
2641,41.21,-15.11,104.59,0
2642,41.23,-20.41,70.75,0
2643,41.24,-38.91,33.51,0
2644,41.25,-6.95,21.0,0
2645,41.27,-21.24,17.89,0
2646,41.28,-28.32,-21.7,0
2647,41.29,-38.06,-51.52,0
2648,41.31,-9.8,-51.32,0
2649,41.32,-19.4,-35.54,0
2650,41.33,-33.03,-61.62,0
2651,41.35,-17.07,-79.09,0
2652,41.36,-11.17,-69.59,0
2653,41.37,-27.07,-62.5,0
2654,41.38,-17.61,-80.05,0
2655,41.4,-14.65,-78.61,0
2656,41.41,-0.37,-63.75,0
2657,41.43,-25.38,-94.9,0
2658,41.44,-37.76,-95.8,0
2659,41.45,-17.43,-81.53,0
2660,41.47,-1.2,-105.29,0
2661,41.48,-15.07,-97.59,0
2662,41.49,-22.79,-117.63,0
2663,41.51,-6.7,-80.64,0
2664,41.52,-1.65,-57.3,0
2665,41.53,-7.36,-33.2,0
2666,41.54,-6.35,-55.05,0
2667,41.56,7.0,-41.23,0
2668,41.57,5.67,-35.92,0
2669,41.59,-14.01,-27.28,0
2670,41.6,2.39,-26.0,0
2671,41.61,16.61,-20.28,0
2672,41.63,0.69,-16.11,0
2673,41.64,-6.65,-0.38,0
2674,41.65,-10.78,-9.71,0
2675,41.67,33.86,9.81,0
2676,41.68,17.28,27.85,0
2677,41.69,10.82,14.15,0
2678,41.71,-7.01,19.0,0
2679,41.72,28.87,33.13,0
2680,41.73,13.44,18.9,0
2681,41.75,13.35,26.65,0
2682,41.76,5.36,35.0,0
2683,41.77,19.11,30.67,0
2684,41.79,12.04,25.58,0
2685,41.8,17.82,32.43,0
2686,41.81,10.16,31.79,0
2687,41.83,11.04,29.26,0
2688,41.84,5.06,27.13,0
2689,41.85,10.24,36.56,0
2690,41.87,18.49,29.41,0
2691,41.88,15.1,31.17,0
2692,41.89,-0.93,32.16,0
2693,41.91,0.87,31.19,0
2694,41.92,32.79,43.98,0
2695,41.93,3.7,23.99,0
2696,41.95,-6.54,33.46,0
2697,41.96,-5.45,55.78,0
2698,41.97,17.12,74.49,0
2699,41.99,-4.09,120.59,0
2700,42.0,11.27,207.03,0
2701,42.01,11.95,235.71,0
2702,42.03,11.52,148.78,0
2703,42.04,-30.43,140.26,0
2704,42.05,-7.57,64.03,0
2705,42.06,-11.14,-102.59,0
2706,42.08,-22.71,-154.19,0
2707,42.09,8.87,-73.5,0
2708,42.11,67.15,90.16,1
2709,42.12,-204.42,47.71,1
2710,42.13,280.76,11.58,1
2711,42.15,120.76,40.27,1
2712,42.16,7.86,-252.22,1
2713,42.17,126.53,-128.98,1
2714,42.19,-0.05,11.58,1
2715,42.2,15.82,35.13,1
2716,42.21,-270.59,-118.57,1
2717,42.22,93.64,-1.21,1
2718,42.24,-63.02,-136.13,1
2719,42.25,-79.25,-251.41,1
2720,42.27,92.89,-42.52,1
2721,42.28,48.79,-374.42,1
2722,42.29,70.98,-91.54,1
2723,42.31,-38.38,-448.2,1
2724,42.32,-2.71,-429.36,1
2725,42.33,-151.42,-180.51,1
2726,42.35,117.71,-8.39,1
2727,42.36,-95.44,79.58,1
2728,42.37,86.69,82.08,1
2729,42.38,-10.71,244.43,1
2730,42.4,203.96,231.03,1
2731,42.41,-31.71,-254.76,1
2732,42.43,-234.41,-83.92,1
2733,42.44,28.19,-192.44,1
2734,42.45,-117.43,-12.19,1
2735,42.47,116.12,474.59,1
2736,42.48,46.26,-117.17,1
2737,42.49,-229.26,-136.38,1
2738,42.51,59.93,167.37,1
2739,42.52,-274.88,-101.82,1
2740,42.53,-96.42,210.77,1
2741,42.55,-270.37,11.22,1
2742,42.56,-17.04,106.11,1
2743,42.57,-215.21,571.11,1
2744,42.59,-191.61,89.22,1
2745,42.6,5.05,133.11,1
2746,42.61,-91.34,663.67,1
2747,42.63,130.64,330.33,1
2748,42.64,61.08,424.8,1
2749,42.65,10.87,-21.12,1
2750,42.67,154.33,145.58,1
2751,42.68,-4.45,-275.33,1
2752,42.69,28.38,-159.8,1
2753,42.71,73.26,162.36,1
2754,42.72,299.6,-427.0,1
2755,42.73,-165.35,-22.51,1
2756,42.75,239.37,-188.0,1
2757,42.76,58.23,257.82,1
2758,42.77,-2.51,-177.84,1
2759,42.79,241.0,5.01,1
2760,42.8,-128.27,53.1,1
2761,42.81,62.63,-106.98,1
2762,42.83,-129.9,108.48,1
2763,42.84,52.56,22.05,1
2764,42.85,137.15,40.16,1
2765,42.87,-63.99,-91.28,1
2766,42.88,103.49,0.54,1
2767,42.89,92.87,-51.89,1
2768,42.9,62.41,-58.87,1
2769,42.92,31.43,-115.59,0
2770,42.93,-0.12,-87.36,0
2771,42.95,9.53,-189.72,0
2772,42.96,28.07,-160.37,0
2773,42.97,30.94,-62.81,0
2774,42.99,37.45,-41.64,0
2775,43.0,32.58,-30.19,0
2776,43.01,29.81,32.92,0
2777,43.03,5.38,31.49,0
2778,43.04,-10.7,44.46,0
2779,43.05,-7.58,50.4,0
2780,43.06,-32.05,54.54,0
2781,43.08,-37.41,63.7,0
2782,43.09,-38.26,76.69,0
2783,43.11,-2.86,49.22,0
2784,43.12,-22.03,15.92,0
2785,43.13,-14.75,24.31,0
2786,43.15,-17.18,10.67,0
2787,43.16,-1.58,-16.0,0
2788,43.17,-9.53,-21.55,0
2789,43.19,-17.22,-18.69,0
2790,43.2,-19.51,-22.64,0
2791,43.21,8.84,-22.19,0
2792,43.23,3.57,-60.14,0
2793,43.24,-10.54,-45.02,0
2794,43.25,-18.31,-33.01,0
2795,43.27,-8.7,-60.93,0
2796,43.28,-10.79,-62.87,0
2797,43.29,-11.59,-58.54,0
2798,43.31,-65.75,-46.82,0
2799,43.32,-34.31,-48.28,0
2800,43.33,-23.52,-27.02,0
2801,43.35,-1.08,-40.47,0
2802,43.36,8.0,-37.31,0
2803,43.37,6.14,-30.71,0
2804,43.38,-3.59,-35.15,0
2805,43.4,13.55,-8.04,0
2806,43.41,13.42,-33.8,0
2807,43.43,10.04,-13.95,0
2808,43.44,-13.19,-31.35,0
2809,43.45,-24.84,-10.31,0
2810,43.47,-5.05,-8.67,0
2811,43.48,-8.54,-3.07,0
2812,43.49,-15.45,26.97,0
2813,43.51,-10.41,21.8,0
2814,43.52,1.59,23.11,0
2815,43.53,-10.02,-11.13,0
2816,43.54,-24.18,-1.3,0
2817,43.56,-12.28,24.1,0
2818,43.57,8.57,-0.05,0
2819,43.59,-36.09,15.25,0
2820,43.6,-14.35,30.32,0
2821,43.61,-31.63,12.49,0
2822,43.63,16.17,13.9,0
2823,43.64,-6.36,12.18,0
2824,43.65,-19.66,8.33,0
2825,43.67,-16.22,24.73,0
2826,43.68,-1.17,15.85,0
2827,43.69,15.6,19.3,0
2828,43.71,-5.37,12.88,0
2829,43.72,-0.4,18.01,0
2830,43.73,16.32,26.49,0
2831,43.75,-11.55,25.77,0
2832,43.76,3.8,26.16,0
2833,43.77,3.58,10.51,0
2834,43.79,-11.36,-1.78,0
2835,43.8,-2.07,23.91,0
2836,43.81,-21.8,22.56,0
2837,43.83,17.46,1.28,0
2838,43.84,-19.5,16.81,0
2839,43.85,-11.48,37.14,0
2840,43.87,0.42,20.31,0
2841,43.88,37.55,32.58,0
2842,43.89,12.76,7.26,0
2843,43.91,25.43,20.81,0
2844,43.92,8.79,25.37,0
2845,43.93,25.05,7.83,0
2846,43.95,2.54,27.68,0
2847,43.96,0.55,7.23,0
2848,43.97,8.27,11.0,0
2849,43.99,3.32,12.78,0
2850,44.0,-5.57,3.15,0
2851,44.01,-1.44,-4.69,0
2852,44.03,7.82,3.64,0
2853,44.04,24.47,-5.34,0
2854,44.05,6.57,-19.58,0
2855,44.06,-65.4,-6.6,0
2856,44.08,-33.6,-17.52,0
2857,44.09,40.31,-14.68,0
2858,44.11,-1.74,7.92,1
2859,44.12,21.42,4.96,1
2860,44.13,35.74,37.77,1
2861,44.15,33.88,35.61,1
2862,44.16,34.83,130.82,1
2863,44.17,-2.11,264.35,1
2864,44.19,-13.51,331.29,1
2865,44.2,73.48,229.38,1
2866,44.21,-9.85,32.09,1
2867,44.22,-299.15,-140.5,1
2868,44.24,7.95,200.92,1
2869,44.25,-93.91,-5.53,1
2870,44.27,75.73,-31.2,1
2871,44.28,52.01,-300.69,1
2872,44.29,151.5,-424.75,1
2873,44.31,12.53,52.75,1
2874,44.32,170.05,-301.7,1
2875,44.33,-20.63,-74.04,1
2876,44.35,-26.39,-131.5,1
2877,44.36,51.69,-26.78,1
2878,44.37,-176.85,-365.89,1
2879,44.38,20.51,-194.0,1
2880,44.4,-212.57,-220.55,1
2881,44.41,180.19,-377.85,1
2882,44.43,-57.18,-356.31,1
2883,44.44,-150.26,22.21,1
2884,44.45,44.12,12.54,1
2885,44.47,59.33,103.15,1
2886,44.48,34.83,-215.62,1
2887,44.49,96.98,-53.23,1
2888,44.51,301.84,-241.33,1
2889,44.52,97.44,65.95,1
2890,44.53,93.69,231.94,1
2891,44.55,222.94,123.76,1
2892,44.56,-118.15,161.64,1
2893,44.57,73.63,84.51,1
2894,44.59,-161.12,222.43,1
2895,44.6,-86.35,89.91,1
2896,44.61,-269.6,-6.28,1
2897,44.63,-160.76,-27.88,1
2898,44.64,-107.85,318.62,1
2899,44.65,86.46,545.1,1
2900,44.67,268.15,139.43,1
2901,44.68,-33.2,212.75,1
2902,44.69,-9.0,69.56,1
2903,44.71,-55.67,44.9,1
2904,44.72,-37.99,502.24,1
2905,44.73,172.58,-150.16,1
2906,44.75,-85.46,-261.59,1
2907,44.76,-142.85,99.39,1
2908,44.77,91.53,-101.1,1
2909,44.79,11.29,-282.01,1
2910,44.8,37.11,119.31,1
2911,44.81,208.66,32.09,1
2912,44.83,-81.64,158.25,1
2913,44.84,-76.97,78.44,1
2914,44.85,71.07,177.65,1
2915,44.87,-215.03,-422.15,1
2916,44.88,-155.79,-54.17,1
2917,44.89,16.29,-136.24,1
2918,44.9,40.73,123.73,1
2919,44.92,33.19,-51.63,0
2920,44.93,-112.07,57.53,0
2921,44.95,41.05,-12.82,0
2922,44.96,-17.46,286.63,0
2923,44.97,-224.14,73.13,0
2924,44.99,-175.02,265.91,0
2925,45.0,-20.33,-36.06,0
2926,45.01,-8.23,271.88,0
2927,45.03,-231.53,49.68,0
2928,45.04,-26.37,7.64,0
2929,45.05,-257.98,-84.34,0
2930,45.07,-46.37,-153.7,0
2931,45.08,51.5,-98.05,0
2932,45.09,6.74,-115.03,0
2933,45.11,-40.87,-101.11,0
2934,45.12,31.79,-178.81,0
2935,45.13,-68.38,-179.95,0
2936,45.15,-197.82,-188.09,0
2937,45.16,-208.81,-113.18,0
2938,45.17,-117.53,-90.16,0
2939,45.19,12.95,-47.03,0
2940,45.2,121.96,-17.1,0
2941,45.21,181.17,-15.7,0
2942,45.22,233.37,-17.05,0
2943,45.24,254.55,22.06,0
2944,45.25,228.7,12.61,0
2945,45.27,232.43,26.49,0
2946,45.28,147.93,42.75,0
2947,45.29,91.54,46.93,0
2948,45.31,141.43,53.69,0
2949,45.32,207.38,48.36,0
2950,45.33,194.21,55.96,0
2951,45.35,191.1,35.26,0
2952,45.36,164.03,15.88,0
2953,45.37,141.69,4.51,0
2954,45.38,123.65,-7.7,0
2955,45.4,99.7,-18.15,0
2956,45.41,65.6,-13.05,0
2957,45.43,49.13,-24.94,0
2958,45.44,36.15,-16.49,0
2959,45.45,3.56,-35.05,0
2960,45.47,-0.67,-45.14,0
2961,45.48,-8.8,-34.97,0
2962,45.49,-43.68,-38.1,0
2963,45.51,-56.95,-22.87,0
2964,45.52,-57.5,-26.05,0
2965,45.53,-43.75,-40.65,0
2966,45.54,-74.33,-29.84,0
2967,45.56,-88.99,-27.6,0
2968,45.57,-102.7,-23.18,0
2969,45.59,-75.05,-22.61,0
2970,45.6,-98.11,-34.88,0
2971,45.61,-106.24,-41.48,0
2972,45.63,-97.19,-10.71,0
2973,45.64,-99.47,-31.71,0
2974,45.65,-91.62,3.59,0
2975,45.67,-85.1,11.26,0
2976,45.68,-63.0,-10.52,0
2977,45.69,-77.54,-8.22,0
2978,45.71,-103.37,-12.06,0
2979,45.72,-87.81,15.36,0
2980,45.73,-62.22,-4.95,0
2981,45.75,-58.06,11.65,0
2982,45.76,-56.76,5.65,0
2983,45.77,-57.57,11.48,0
2984,45.79,-43.21,4.42,0
2985,45.8,-29.37,23.16,0
2986,45.81,-24.61,13.37,0
2987,45.83,-39.73,14.19,0
2988,45.84,-23.84,19.92,0
2989,45.85,-34.95,20.35,0
2990,45.87,-9.74,24.16,0
2991,45.88,-5.99,29.92,0
2992,45.89,10.99,26.95,0
2993,45.9,-6.76,23.12,0
2994,45.92,-19.91,22.73,0
2995,45.93,1.7,25.17,0
2996,45.95,22.49,30.9,0
2997,45.96,6.78,23.82,0
2998,45.97,13.64,18.75,0
2999,45.99,5.7,6.4,0
3000,46.0,37.51,28.2,0
3001,46.01,9.25,31.93,0
3002,46.03,9.17,29.0,0
3003,46.04,41.19,25.62,0
3004,46.05,16.46,22.14,0
3005,46.06,-54.7,25.29,0
3006,46.08,51.29,-11.57,0
3007,46.09,5.36,-7.62,0
3008,46.11,22.38,3.9,1
3009,46.12,71.82,2.56,1
3010,46.13,34.4,-4.65,1
3011,46.15,73.12,-14.14,1
3012,46.16,74.0,-3.43,1
3013,46.17,26.28,145.5,1
3014,46.19,59.92,340.73,1
3015,46.2,91.16,59.83,1
3016,46.21,150.22,212.45,1
3017,46.22,75.98,93.42,1
3018,46.24,288.52,262.43,1
3019,46.25,71.7,-136.82,1
3020,46.27,237.87,-421.98,1
3021,46.28,-246.29,79.41,1
3022,46.29,203.19,-81.12,1
3023,46.31,-76.25,158.39,1
3024,46.32,220.96,-83.69,1
3025,46.33,42.23,-64.48,1
3026,46.35,-55.13,-227.14,1
3027,46.36,-139.0,-45.88,1
3028,46.37,-407.34,-402.52,1
3029,46.39,139.25,-372.5,1
3030,46.4,-105.7,83.76,1
3031,46.41,-75.49,185.32,1
3032,46.43,-241.27,-67.03,1
3033,46.44,-51.28,-462.23,1
3034,46.45,-569.44,-136.9,1
3035,46.47,-290.88,25.43,1
3036,46.48,-213.89,-270.58,1
3037,46.49,-133.18,209.19,1
3038,46.51,245.22,-246.08,1
3039,46.52,-41.83,116.5,1
3040,46.53,235.24,205.93,1
3041,46.54,277.06,-157.18,1
3042,46.56,-49.06,258.73,1
3043,46.57,-232.04,164.76,1
3044,46.59,-48.21,-157.06,1
3045,46.6,-120.87,-150.87,1
3046,46.61,21.15,-177.72,1
3047,46.63,-122.15,-127.19,1
3048,46.64,5.08,43.64,1
3049,46.65,-29.63,422.16,1
3050,46.67,65.76,-41.82,1
3051,46.68,311.18,330.43,1
3052,46.69,232.06,189.06,1
3053,46.71,272.73,80.03,1
3054,46.72,208.77,-35.64,1
3055,46.73,19.73,23.7,1
3056,46.75,-101.56,213.11,1
3057,46.76,155.26,96.44,1
3058,46.77,-74.24,-2.18,1
3059,46.79,-88.46,142.47,1
3060,46.8,121.8,-241.8,1
3061,46.81,205.9,-217.46,1
3062,46.83,376.95,140.38,1
3063,46.84,228.85,-136.34,1
3064,46.85,45.76,16.43,1
3065,46.87,69.13,8.18,1
3066,46.88,-183.36,154.46,1
3067,46.89,204.06,-21.19,1
3068,46.9,-103.71,120.81,1
3069,46.92,51.85,215.62,0
3070,46.93,-107.5,187.83,0
3071,46.95,-199.04,18.87,0
3072,46.96,127.17,162.89,0
3073,46.97,-253.37,-450.3,0
3074,46.99,-4.58,148.45,0
3075,47.0,-272.78,-136.57,0
3076,47.01,-74.25,-91.16,0
3077,47.03,-140.67,-146.94,0
3078,47.04,-121.33,-124.28,0
3079,47.05,-152.67,-143.41,0
3080,47.07,-158.96,-108.8,0
3081,47.08,-87.51,-37.27,0
3082,47.09,-89.26,11.22,0
3083,47.11,-51.77,54.55,0
3084,47.12,-0.31,72.52,0
3085,47.13,7.63,42.55,0
3086,47.15,15.06,77.8,0
3087,47.16,26.5,79.47,0
3088,47.17,55.13,49.56,0
3089,47.19,31.78,35.94,0
3090,47.2,30.34,44.34,0
3091,47.21,31.73,68.11,0
3092,47.22,53.92,75.13,0
3093,47.24,57.42,99.12,0
3094,47.25,43.85,109.05,0
3095,47.27,33.56,92.21,0
3096,47.28,65.87,104.41,0
3097,47.29,46.89,94.29,0
3098,47.31,43.95,59.49,0
3099,47.32,28.94,52.8,0
3100,47.33,52.01,2.43,0
3101,47.35,34.91,-19.35,0
3102,47.36,14.37,-33.48,0
3103,47.37,31.39,-4.96,0
3104,47.38,29.04,-40.24,0
3105,47.4,14.01,-42.22,0
3106,47.41,0.57,-88.61,0
3107,47.43,6.96,-80.41,0
3108,47.44,18.18,-79.92,0
3109,47.45,9.65,-78.13,0
3110,47.47,-38.86,-66.72,0
3111,47.48,-28.01,-71.52,0
3112,47.49,11.26,-63.45,0
3113,47.51,-15.77,-55.89,0
3114,47.52,-12.1,-62.1,0
3115,47.53,14.32,-46.5,0
3116,47.54,-4.35,-47.22,0
3117,47.56,6.3,-54.78,0
3118,47.57,-15.37,-53.83,0
3119,47.59,4.15,-63.6,0
3120,47.6,4.43,-55.76,0
3121,47.61,-11.2,-49.62,0
3122,47.63,-12.82,-60.96,0
3123,47.64,-5.76,-43.44,0
3124,47.65,-25.96,-40.44,0
3125,47.67,-19.9,-26.19,0
3126,47.68,-26.45,-26.87,0
3127,47.69,17.88,-28.32,0
3128,47.71,-6.86,-11.64,0
3129,47.72,-12.71,-20.45,0
3130,47.73,-24.87,-10.54,0
3131,47.75,-16.01,-12.33,0
3132,47.76,-12.66,-12.77,0
3133,47.77,-21.36,0.81,0
3134,47.79,-28.25,-0.95,0
3135,47.8,-0.18,24.67,0
3136,47.81,-23.53,-9.42,0
3137,47.83,-7.69,7.36,0
3138,47.84,-7.06,28.25,0
3139,47.85,7.96,24.73,0
3140,47.87,-7.47,15.14,0
3141,47.88,-11.91,11.86,0
3142,47.89,6.89,32.46,0
3143,47.9,4.7,26.25,0
3144,47.92,-10.41,17.29,0
3145,47.93,-13.64,30.06,0
3146,47.95,-3.65,21.63,0
3147,47.96,-3.87,8.54,0
3148,47.97,-12.61,27.02,0
3149,47.99,-6.18,33.88,0
3150,48.0,19.13,29.46,0
3151,48.01,-1.72,49.54,0
3152,48.03,-7.86,31.29,0
3153,48.04,4.01,43.94,0
3154,48.05,21.65,32.96,0
3155,48.06,-59.71,26.76,0
3156,48.08,-14.05,0.65,0
3157,48.09,-42.07,24.35,0
3158,48.11,42.94,18.02,1
3159,48.12,12.86,15.0,1
3160,48.13,-21.04,36.64,1
3161,48.15,65.87,25.01,1
3162,48.16,28.43,115.68,1
3163,48.17,14.19,277.56,1
3164,48.19,34.89,374.36,1
3165,48.2,-64.17,259.63,1
3166,48.21,-108.68,141.97,1
3167,48.22,47.22,-2.8,1
3168,48.24,-245.27,-22.84,1
3169,48.25,290.18,-143.87,1
3170,48.27,378.95,39.78,1
3171,48.28,292.66,-295.44,1
3172,48.29,314.54,-128.42,1
3173,48.31,174.55,105.79,1
3174,48.32,129.95,-18.18,1
3175,48.33,-159.27,-130.64,1
3176,48.35,-49.56,-267.03,1
3177,48.36,-14.19,-99.76,1
3178,48.37,33.24,-599.46,1
3179,48.39,-313.51,-281.86,1
3180,48.4,-402.61,248.66,1
3181,48.41,-231.02,-159.32,1
3182,48.43,-98.82,-344.4,1
3183,48.44,-341.0,-209.88,1
3184,48.45,-307.55,-487.66,1
3185,48.47,185.19,116.16,1
3186,48.48,-216.5,10.87,1
3187,48.49,122.35,240.24,1
3188,48.51,6.09,-136.03,1
3189,48.52,269.96,412.38,1
3190,48.53,207.86,-165.69,1
3191,48.54,-143.63,-282.81,1
3192,48.56,-157.01,-154.48,1
3193,48.57,-131.1,83.26,1
3194,48.59,278.16,488.9,1
3195,48.6,-246.61,-50.86,1
3196,48.61,-71.16,193.98,1
3197,48.63,-49.56,125.83,1
3198,48.64,-44.36,-346.33,1
3199,48.65,398.13,67.95,1
3200,48.67,77.73,119.61,1
3201,48.68,-64.82,330.02,1
3202,48.69,301.38,172.45,1
3203,48.71,-269.18,7.91,1
3204,48.72,-159.52,198.46,1
3205,48.73,-93.59,192.03,1
3206,48.75,147.23,-86.94,1
3207,48.76,-37.98,81.41,1
3208,48.77,-148.36,-60.26,1
3209,48.79,12.59,574.96,1
3210,48.8,255.18,120.19,1
3211,48.81,258.14,312.62,1
3212,48.83,209.34,156.08,1
3213,48.84,-1.31,-90.65,1
3214,48.85,-94.15,253.89,1
3215,48.87,-34.16,-272.87,1
3216,48.88,-14.6,-27.96,1
3217,48.89,49.22,124.35,1
3218,48.9,-100.71,132.84,1
3219,48.92,0.61,-383.46,0
3220,48.93,153.61,218.56,0
3221,48.95,-55.29,-251.33,0
3222,48.96,12.77,-59.85,0
3223,48.97,74.02,-214.71,0
3224,48.99,53.96,-95.58,0
3225,49.0,-13.69,-167.77,0
3226,49.01,32.53,-132.82,0
3227,49.03,16.15,-61.79,0
3228,49.04,1.03,-53.69,0
3229,49.05,38.2,-23.64,0
3230,49.06,53.21,68.74,0
3231,49.08,64.57,38.13,0
3232,49.09,68.07,8.78,0
3233,49.11,32.24,-13.42,0
3234,49.12,29.18,-28.76,0
3235,49.13,24.75,-46.78,0
3236,49.15,6.98,-29.94,0
3237,49.16,1.42,-35.8,0
3238,49.17,-0.88,-18.85,0
3239,49.19,-9.94,-9.54,0
3240,49.2,-22.56,20.18,0
3241,49.21,-46.43,5.75,0
3242,49.22,-41.44,15.63,0
3243,49.24,-27.06,56.9,0
3244,49.25,-45.68,49.98,0
3245,49.27,-34.2,34.34,0
3246,49.28,-38.11,21.34,0
3247,49.29,-36.16,12.1,0
3248,49.31,-45.71,11.81,0
3249,49.32,-31.16,-7.03,0
3250,49.33,-36.34,-2.4,0
3251,49.35,-15.38,-11.88,0
3252,49.36,-48.0,-35.5,0
3253,49.37,-36.09,-19.69,0
3254,49.38,-41.6,-3.23,0
3255,49.4,-44.39,-31.95,0
3256,49.41,-34.46,-37.6,0
3257,49.43,-32.02,-42.58,0
3258,49.44,-11.34,-40.02,0
3259,49.45,-33.53,-37.51,0
3260,49.47,-37.26,-41.76,0
3261,49.48,-37.38,-32.43,0
3262,49.49,-28.29,-28.58,0
3263,49.51,-34.05,-29.2,0
3264,49.52,-14.38,-23.76,0
3265,49.53,-15.83,-24.12,0
3266,49.54,7.48,-31.88,0
3267,49.56,-20.32,-26.45,0
3268,49.57,-12.17,-12.14,0
3269,49.59,-10.93,-5.3,0
3270,49.6,14.43,-38.97,0
3271,49.61,-0.92,13.62,0
3272,49.63,-2.78,-7.43,0
3273,49.64,-0.12,-4.48,0
3274,49.65,11.07,-7.61,0
3275,49.67,15.83,11.3,0
3276,49.68,16.82,6.13,0
3277,49.69,10.5,4.29,0
3278,49.71,25.93,-8.07,0
3279,49.72,15.56,-3.65,0
3280,49.73,23.12,-8.18,0
3281,49.75,30.12,-4.61,0
3282,49.76,24.85,6.03,0
3283,49.77,1.62,5.09,0
3284,49.79,-6.55,40.82,0
3285,49.8,36.7,26.96,0
3286,49.81,16.37,8.18,0
3287,49.83,14.74,-2.58,0
3288,49.84,1.38,20.9,0
3289,49.85,14.64,12.63,0
3290,49.87,13.45,-14.37,0
3291,49.88,2.23,17.38,0
3292,49.89,8.5,36.44,0
3293,49.9,28.98,16.45,0
3294,49.92,12.7,42.57,0
3295,49.93,0.14,38.71,0
3296,49.95,7.42,15.68,0
3297,49.96,7.4,7.59,0
3298,49.97,12.63,17.7,0
3299,49.99,17.05,12.25,0
3300,50.0,8.93,29.34,0
3301,50.01,16.48,31.6,0
3302,50.03,11.87,28.25,0
3303,50.04,0.24,18.57,0
3304,50.05,-7.46,21.69,0
3305,50.06,4.63,14.69,0
3306,50.08,-34.98,3.94,0
3307,50.09,-24.04,20.63,0
3308,50.11,39.45,1.33,1
3309,50.12,-6.83,-15.02,1
3310,50.13,8.83,3.76,1
3311,50.15,42.02,16.49,1
3312,50.16,3.8,-6.9,1
3313,50.17,6.05,62.86,1
3314,50.19,-4.99,205.28,1
3315,50.2,-15.08,279.51,1
3316,50.21,9.97,174.2,1
3317,50.22,-30.3,-27.05,1
3318,50.24,-258.63,71.21,1
3319,50.25,151.92,-408.62,1
3320,50.27,43.87,-222.88,1
3321,50.28,381.33,-264.13,1
3322,50.29,-9.17,-133.02,1
3323,50.31,73.9,-161.78,1
3324,50.32,37.2,123.91,1
3325,50.33,-0.6,42.81,1
3326,50.35,-30.56,397.15,1
3327,50.36,221.28,11.16,1
3328,50.37,-210.38,-162.06,1
3329,50.38,28.44,-25.36,1
3330,50.4,-159.89,-367.59,1
3331,50.41,-116.59,-75.89,1
3332,50.43,-243.3,-245.57,1
3333,50.44,-253.8,-110.09,1
3334,50.45,-249.36,-288.0,1
3335,50.47,-180.39,-175.73,1
3336,50.48,90.5,-119.19,1
3337,50.49,67.3,281.96,1
3338,50.51,71.62,517.32,1
3339,50.52,9.95,132.71,1
3340,50.53,138.41,300.5,1
3341,50.54,-54.51,271.74,1
3342,50.56,-112.2,-128.54,1
3343,50.57,254.82,-166.96,1
3344,50.59,228.63,-305.44,1
3345,50.6,59.48,-26.43,1
3346,50.61,-39.71,184.27,1
3347,50.63,-133.11,288.42,1
3348,50.64,41.9,-60.83,1
3349,50.65,-144.0,83.19,1
3350,50.67,200.27,166.38,1
3351,50.68,-84.54,191.89,1
3352,50.69,19.26,207.0,1
3353,50.71,-90.55,-326.6,1
3354,50.72,85.41,-239.25,1
3355,50.73,150.79,189.87,1
3356,50.75,-253.45,3.37,1
3357,50.76,85.17,17.81,1
3358,50.77,-101.8,186.45,1
3359,50.79,-53.03,-58.3,1
3360,50.8,138.88,-204.15,1
3361,50.81,238.83,-113.7,1
3362,50.83,-9.63,198.46,1
3363,50.84,66.89,129.28,1
3364,50.85,162.46,241.72,1
3365,50.87,338.38,-19.59,1
3366,50.88,-0.25,-35.72,1
3367,50.89,74.76,-701.16,1
3368,50.91,0.72,-194.42,0
3369,50.92,-51.97,28.43,0
3370,50.93,-298.42,-124.57,0
3371,50.95,56.62,163.62,0
3372,50.96,72.62,-136.79,0
3373,50.97,-43.75,-266.06,0
3374,50.99,-49.94,19.71,0
3375,51.0,-117.11,117.55,0
3376,51.01,-202.81,217.27,0
3377,51.03,-130.88,-7.44,0
3378,51.04,-6.89,-43.99,0
3379,51.05,-269.89,-54.62,0
3380,51.06,-3.04,-4.23,0
3381,51.08,24.52,35.9,0
3382,51.09,57.02,-5.34,0
3383,51.11,20.42,8.5,0
3384,51.12,13.17,-17.33,0
3385,51.13,-25.68,-40.61,0
3386,51.15,-16.38,-39.14,0
3387,51.16,-15.65,13.54,0
3388,51.17,-29.8,91.73,0
3389,51.19,-8.96,97.54,0
3390,51.2,19.04,117.89,0
3391,51.21,3.53,66.59,0
3392,51.22,6.29,39.06,0
3393,51.24,-4.42,12.56,0
3394,51.25,14.97,16.79,0
3395,51.27,-7.99,16.16,0
3396,51.28,8.56,23.57,0
3397,51.29,27.64,55.86,0
3398,51.31,16.6,69.5,0
3399,51.32,18.75,86.51,0
3400,51.33,23.72,109.73,0
3401,51.35,29.55,86.46,0
3402,51.36,37.05,86.31,0
3403,51.37,23.62,77.27,0
3404,51.38,24.8,65.4,0
3405,51.4,40.4,33.64,0
3406,51.41,35.73,28.09,0
3407,51.43,44.52,7.99,0
3408,51.44,21.22,4.57,0
3409,51.45,32.38,-16.02,0
3410,51.47,-0.74,-25.45,0
3411,51.48,-13.09,-31.03,0
3412,51.49,10.27,-54.92,0
3413,51.51,17.65,-95.76,0
3414,51.52,-14.1,-84.03,0
3415,51.53,-9.24,-73.24,0
3416,51.55,-36.57,-68.77,0
3417,51.56,12.16,-53.3,0
3418,51.57,7.47,-66.21,0
3419,51.59,1.21,-65.68,0
3420,51.6,2.3,-57.05,0
3421,51.61,28.43,-55.45,0
3422,51.63,-0.53,-37.61,0
3423,51.64,3.01,-37.12,0
3424,51.65,11.05,-49.87,0
3425,51.67,7.73,-46.47,0
3426,51.68,3.01,-58.71,0
3427,51.69,3.33,-46.49,0
3428,51.71,19.44,-30.44,0
3429,51.72,-8.84,-28.12,0
3430,51.73,-22.36,-22.62,0
3431,51.75,-25.09,-28.62,0
3432,51.76,1.82,-27.27,0
3433,51.77,-4.69,-0.72,0
3434,51.79,-23.81,-21.89,0
3435,51.8,-38.49,-17.05,0
3436,51.81,-23.49,-15.63,0
3437,51.83,-26.78,-23.01,0
3438,51.84,-23.59,-13.52,0
3439,51.85,-7.47,4.53,0
3440,51.87,7.02,11.79,0
3441,51.88,-22.77,13.3,0
3442,51.89,-8.88,0.61,0
3443,51.9,-18.38,27.16,0
3444,51.92,6.66,22.54,0
3445,51.93,-4.74,10.54,0
3446,51.95,-12.69,8.32,0
3447,51.96,-4.96,13.78,0
3448,51.97,8.5,38.3,0
3449,51.99,3.96,22.35,0
3450,52.0,-7.84,37.34,0
3451,52.01,0.97,25.8,0
3452,52.03,7.27,26.36,0
3453,52.04,2.36,37.96,0
3454,52.05,8.54,25.13,0
3455,52.06,-0.41,17.37,0
3456,52.08,-57.1,8.0,0
3457,52.09,-27.96,3.71,0
3458,52.11,8.17,-0.38,1
3459,52.12,16.14,5.51,1
3460,52.13,16.21,17.03,1
3461,52.15,11.16,18.77,1
3462,52.16,1.49,49.4,1
3463,52.17,29.6,105.87,1
3464,52.19,3.18,101.82,1
3465,52.2,-2.19,229.43,1
3466,52.21,39.1,371.79,1
3467,52.23,3.46,64.99,1
3468,52.24,-49.87,48.09,1
3469,52.25,48.37,274.45,1
3470,52.27,79.67,3.15,1
3471,52.28,130.03,-175.31,1
3472,52.29,69.66,-31.52,1
3473,52.31,79.6,-130.37,1
3474,52.32,-179.17,113.4,1
3475,52.33,-201.86,-394.07,1
3476,52.35,-12.89,-478.11,1
3477,52.36,34.08,94.28,1
3478,52.37,248.81,-397.22,1
3479,52.38,-13.98,-57.02,1
3480,52.4,119.05,-184.43,1
3481,52.41,-57.0,55.91,1
3482,52.43,-81.68,-255.9,1
3483,52.44,8.92,-268.41,1
3484,52.45,-228.55,-320.54,1
3485,52.47,-203.36,-246.88,1
3486,52.48,-134.42,173.87,1
3487,52.49,-345.74,-140.99,1
3488,52.51,-81.51,124.52,1
3489,52.52,211.14,493.37,1
3490,52.53,154.48,60.58,1
3491,52.54,38.52,75.76,1
3492,52.56,-50.66,-89.0,1
3493,52.57,138.97,466.99,1
3494,52.59,199.23,370.98,1
3495,52.6,-113.45,288.14,1
3496,52.61,69.87,-67.34,1
3497,52.63,228.97,-320.46,1
3498,52.64,40.03,-227.51,1
3499,52.65,236.29,-256.97,1
3500,52.67,-150.36,-233.82,1
3501,52.68,-51.16,72.84,1
3502,52.69,34.43,30.02,1
3503,52.71,-95.51,-145.17,1
3504,52.72,-31.3,125.98,1
3505,52.73,-122.17,395.71,1
3506,52.75,-54.9,203.07,1
3507,52.76,-51.54,421.3,1
3508,52.77,156.73,104.18,1
3509,52.79,-24.03,142.98,1
3510,52.8,216.94,195.7,1
3511,52.81,-6.27,26.36,1
3512,52.83,-1.02,-166.02,1
3513,52.84,321.46,-84.83,1
3514,52.85,-185.61,4.1,1
3515,52.87,208.02,-278.69,1
3516,52.88,-326.13,103.18,1
3517,52.89,-10.68,113.47,1
3518,52.9,-45.05,218.27,1
3519,52.92,51.42,62.88,0
3520,52.93,232.03,-124.25,0
3521,52.95,-123.84,-141.48,0
3522,52.96,181.06,12.82,0
3523,52.97,-0.36,348.29,0
3524,52.99,2.2,-50.4,0
3525,53.0,-266.99,-222.03,0
3526,53.01,291.63,-19.64,0
3527,53.03,-203.7,-138.35,0
3528,53.04,-15.69,-75.45,0
3529,53.05,-76.45,-162.4,0
3530,53.06,-72.64,-140.39,0
3531,53.08,-52.45,-143.55,0
3532,53.09,-56.5,-75.98,0
3533,53.11,-30.85,-25.76,0
3534,53.12,-76.68,8.07,0
3535,53.13,-98.87,-1.07,0
3536,53.15,-165.9,1.37,0
3537,53.16,-206.22,12.32,0
3538,53.17,-214.81,-20.11,0
3539,53.19,-195.5,1.55,0
3540,53.2,-130.55,2.61,0
3541,53.21,-31.37,11.15,0
3542,53.22,56.07,0.35,0
3543,53.24,83.78,20.25,0
3544,53.25,126.32,45.3,0
3545,53.27,141.21,65.91,0
3546,53.28,154.4,70.83,0
3547,53.29,149.12,72.51,0
3548,53.31,151.31,73.47,0
3549,53.32,146.86,68.4,0
3550,53.33,125.65,39.42,0
3551,53.35,97.91,38.48,0
3552,53.36,94.69,25.64,0
3553,53.37,62.59,-2.16,0
3554,53.38,53.43,-13.61,0
3555,53.4,49.56,-23.6,0
3556,53.41,47.82,-7.17,0
3557,53.43,16.57,-22.77,0
3558,53.44,-4.63,-13.15,0
3559,53.45,-8.48,-26.05,0
3560,53.47,9.2,-29.17,0
3561,53.48,11.49,-30.26,0
3562,53.49,-3.87,-39.62,0
3563,53.51,21.92,-12.43,0
3564,53.52,-5.66,-4.46,0
3565,53.53,-14.34,-50.62,0
3566,53.54,-32.71,-32.34,0
3567,53.56,-38.28,-52.66,0
3568,53.57,-50.86,-65.79,0
3569,53.59,-32.21,-43.26,0
3570,53.6,-8.21,-35.42,0
3571,53.61,-21.22,-15.37,0
3572,53.63,-28.64,-19.17,0
3573,53.64,-36.37,-39.38,0
3574,53.65,-43.97,9.67,0
3575,53.67,-28.62,1.54,0
3576,53.68,-40.01,-20.46,0
3577,53.69,-48.41,-5.93,0
3578,53.71,-54.8,-5.05,0
3579,53.72,-22.34,4.13,0
3580,53.73,-26.36,13.67,0
3581,53.75,-42.82,-10.01,0
3582,53.76,-35.94,7.53,0
3583,53.77,-2.28,11.73,0
3584,53.79,-19.15,-12.02,0
3585,53.8,-1.11,-8.16,0
3586,53.81,-10.07,8.94,0
3587,53.83,-14.03,4.98,0
3588,53.84,-13.32,1.06,0
3589,53.85,-18.3,-9.24,0
3590,53.87,19.5,1.14,0
3591,53.88,-1.88,5.74,0
3592,53.89,-5.06,-1.46,0
3593,53.9,-9.26,5.45,0
3594,53.92,1.77,6.05,0
3595,53.93,7.81,-15.49,0
3596,53.95,12.99,2.63,0
3597,53.96,-13.0,25.72,0
3598,53.97,10.05,17.64,0
3599,53.99,3.33,28.18,0
3600,54.0,15.51,24.99,0
3601,54.01,3.03,18.6,0
3602,54.03,23.32,22.8,0
3603,54.04,6.07,-4.09,0
3604,54.05,2.43,26.59,0
3605,54.06,-2.69,18.41,0
3606,54.08,-13.41,41.45,0
3607,54.09,30.69,-12.68,0
3608,54.11,1.89,-1.34,1
3609,54.12,24.7,16.65,1
3610,54.13,67.22,32.26,1
3611,54.15,23.05,18.1,1
3612,54.16,16.56,8.18,1
3613,54.17,18.2,51.11,1
3614,54.19,15.04,150.4,1
3615,54.2,21.83,336.22,1
3616,54.21,29.72,334.36,1
3617,54.22,14.97,130.4,1
3618,54.24,55.13,-24.76,1
3619,54.25,37.83,116.3,1
3620,54.27,-43.36,-255.08,1
3621,54.28,54.91,-90.53,1
3622,54.29,128.34,-198.39,1
3623,54.31,-210.05,-155.99,1
3624,54.32,-76.5,78.8,1
3625,54.33,79.68,129.06,1
3626,54.35,-98.92,-121.14,1
3627,54.36,-26.98,-297.6,1
3628,54.37,16.74,40.39,1
3629,54.38,-30.07,-182.95,1
3630,54.4,56.2,-155.43,1
3631,54.41,322.57,-371.61,1
3632,54.43,134.42,-223.04,1
3633,54.44,262.97,61.07,1
3634,54.45,10.26,150.43,1
3635,54.47,-95.12,-30.76,1
3636,54.48,150.0,-85.9,1
3637,54.49,-275.58,-32.89,1
3638,54.51,-275.5,-110.48,1
3639,54.52,-300.12,25.26,1
3640,54.53,-177.33,57.68,1
3641,54.54,59.27,-35.94,1
3642,54.56,16.24,-516.28,1
3643,54.57,104.07,31.93,1
3644,54.59,-54.36,-336.13,1
3645,54.6,44.92,-123.91,1
3646,54.61,-62.95,262.36,1
3647,54.63,26.0,53.22,1
3648,54.64,-112.87,72.07,1
3649,54.65,-45.07,-50.22,1
3650,54.67,-167.1,88.12,1
3651,54.68,-260.26,131.55,1
3652,54.69,-55.07,-44.45,1
3653,54.71,-7.5,487.66,1
3654,54.72,62.42,451.41,1
3655,54.73,217.82,120.77,1
3656,54.75,266.58,92.92,1
3657,54.76,-28.4,-204.66,1
3658,54.77,162.57,180.21,1
3659,54.79,-116.99,-217.66,1
3660,54.8,11.02,317.11,1
3661,54.81,-46.63,121.08,1
3662,54.83,-379.92,221.46,1
3663,54.84,-242.58,37.41,1
3664,54.85,46.66,52.03,1
3665,54.87,46.83,-91.3,1
3666,54.88,-141.49,-65.81,1
3667,54.89,128.15,-132.05,1
3668,54.9,75.09,3.47,1
3669,54.92,85.28,-29.64,0
3670,54.93,88.12,17.89,0
3671,54.95,37.79,37.23,0
3672,54.96,92.37,67.04,0
3673,54.97,82.81,47.52,0
3674,54.99,98.8,63.04,0
3675,55.0,110.6,82.58,0
3676,55.01,102.35,90.22,0
3677,55.03,104.62,90.74,0
3678,55.04,99.32,63.97,0
3679,55.05,87.32,71.27,0
3680,55.06,69.95,86.75,0
3681,55.08,63.66,104.61,0
3682,55.09,55.4,69.35,0
3683,55.11,68.58,39.61,0
3684,55.12,18.2,28.51,0
3685,55.13,28.53,15.09,0
3686,55.15,18.59,1.67,0
3687,55.16,22.49,-23.85,0
3688,55.17,14.98,-37.57,0
3689,55.19,-21.33,-63.19,0
3690,55.2,-21.61,-63.78,0
3691,55.21,10.33,-81.27,0
3692,55.22,-12.97,-111.34,0
3693,55.24,-24.25,-97.28,0
3694,55.25,-40.73,-86.36,0
3695,55.27,-22.05,-115.32,0
3696,55.28,-45.8,-124.91,0
3697,55.29,-47.46,-100.67,0
3698,55.31,-47.89,-93.66,0
3699,55.32,-45.46,-95.11,0
3700,55.33,-51.49,-75.85,0
3701,55.35,-48.6,-85.65,0
3702,55.36,-45.08,-78.81,0
3703,55.37,-23.09,-87.29,0
3704,55.38,-53.43,-89.02,0
3705,55.4,-50.13,-70.71,0
3706,55.41,-35.54,-67.29,0
3707,55.43,-23.31,-62.57,0
3708,55.44,-24.1,-51.36,0
3709,55.45,-38.43,-51.32,0
3710,55.47,-20.09,-47.16,0
3711,55.48,-22.0,-59.06,0
3712,55.49,-36.37,-16.57,0
3713,55.51,-53.38,-23.64,0
3714,55.52,-24.95,-12.08,0
3715,55.53,-16.07,-7.71,0
3716,55.54,-19.38,4.44,0
3717,55.56,-28.63,-4.84,0
3718,55.57,-7.02,-17.0,0
3719,55.59,-27.27,9.2,0
3720,55.6,-29.42,9.92,0
3721,55.61,-18.51,8.9,0
3722,55.63,3.0,17.27,0
3723,55.64,15.7,24.98,0
3724,55.65,-6.43,39.65,0
3725,55.67,-9.78,56.35,0
3726,55.68,12.28,22.37,0
3727,55.69,16.88,56.85,0
3728,55.71,4.01,23.77,0
3729,55.72,3.56,38.13,0
3730,55.73,13.12,42.53,0
3731,55.75,11.54,28.1,0
3732,55.76,10.27,32.15,0
3733,55.77,23.51,49.2,0
3734,55.79,18.49,44.81,0
3735,55.8,6.53,40.65,0
3736,55.81,7.44,45.94,0
3737,55.83,29.76,46.49,0
3738,55.84,28.92,41.04,0
3739,55.85,5.97,46.55,0
3740,55.87,-0.31,35.53,0
3741,55.88,12.01,25.38,0
3742,55.89,8.33,31.69,0
3743,55.9,-3.17,43.81,0
3744,55.92,16.49,39.43,0
3745,55.93,37.19,18.38,0
3746,55.95,30.3,43.73,0
3747,55.96,35.24,4.04,0
3748,55.97,23.4,12.95,0
3749,55.99,16.39,-20.84,0
3750,56.0,-1.85,13.98,0
3751,56.01,8.11,5.73,0
3752,56.03,-17.06,11.58,0
3753,56.04,42.15,2.05,0
3754,56.05,6.91,16.83,0
3755,56.06,-4.55,19.74,0
3756,56.08,-61.33,11.41,0
3757,56.09,17.79,-18.19,0
3758,56.11,-6.55,130.75,1
3759,56.12,20.97,410.32,1
3760,56.13,-34.85,154.25,1
3761,56.15,-74.93,250.26,1
3762,56.16,-203.88,180.56,1
3763,56.17,136.3,22.72,1
3764,56.19,221.51,-245.2,1
3765,56.2,-58.13,-210.48,1
3766,56.21,34.96,-257.67,1
3767,56.22,122.92,-414.62,1
3768,56.24,-157.06,136.41,1
3769,56.25,229.81,-57.65,1
3770,56.27,14.99,-433.56,1
3771,56.28,173.68,-243.43,1
3772,56.29,137.4,-256.58,1
3773,56.31,-57.53,-110.57,1
3774,56.32,-17.86,-51.45,1
3775,56.33,-68.88,-160.67,1
3776,56.35,-56.51,1.56,1
3777,56.36,12.25,135.61,1
3778,56.37,200.54,228.08,1
3779,56.38,-94.23,110.27,1
3780,56.4,-9.87,-153.32,1
3781,56.41,-272.46,-222.41,1
3782,56.43,-37.21,-67.48,1
3783,56.44,-224.0,76.72,1
3784,56.45,-186.58,99.51,1
3785,56.47,132.57,64.38,1
3786,56.48,-115.7,160.1,1
3787,56.49,58.07,433.26,1
3788,56.51,-100.07,126.44,1
3789,56.52,-296.58,78.87,1
3790,56.53,-173.76,-391.01,1
3791,56.54,66.19,89.58,1
3792,56.56,162.25,-285.56,1
3793,56.57,93.45,605.11,1
3794,56.59,-32.97,121.7,1
3795,56.6,284.32,-34.29,1
3796,56.61,-252.59,-100.77,1
3797,56.63,115.29,-133.44,1
3798,56.64,-46.88,25.92,1
3799,56.65,-75.3,-5.36,1
3800,56.67,-71.74,-124.86,1
3801,56.68,-24.72,-341.77,1
3802,56.69,-218.73,-127.07,1
3803,56.71,-23.19,-1.38,1
3804,56.72,42.46,248.13,1
3805,56.73,312.7,174.01,1
3806,56.75,-237.92,-264.61,1
3807,56.76,51.82,-174.02,1
3808,56.77,86.48,115.21,1
3809,56.79,-97.6,140.34,1
3810,56.8,280.76,55.96,1
3811,56.81,45.98,76.61,1
3812,56.83,44.32,146.75,1
3813,56.84,19.63,88.24,1
3814,56.85,182.95,13.54,1
3815,56.87,82.03,45.3,1
3816,56.88,114.49,45.23,1
3817,56.89,88.45,68.33,1
3818,56.9,45.46,8.13,1
3819,56.92,44.69,-53.43,0
3820,56.93,22.08,-5.31,0
3821,56.95,8.79,38.24,0
3822,56.96,0.46,15.04,0
3823,56.97,-8.57,7.24,0
3824,56.99,2.3,3.13,0
3825,57.0,-18.96,10.66,0
3826,57.01,16.34,-66.18,0
3827,57.03,9.09,11.56,0
3828,57.04,9.25,114.13,0
3829,57.05,15.6,12.45,0
3830,57.06,25.5,41.59,0
3831,57.08,16.04,52.74,0
3832,57.09,21.24,51.64,0
3833,57.11,10.3,74.77,0
3834,57.12,20.29,61.46,0
3835,57.13,-9.13,54.4,0
3836,57.15,-9.75,36.58,0
3837,57.16,-28.11,40.81,0
3838,57.17,-9.09,16.97,0
3839,57.19,-19.89,-0.69,0
3840,57.2,-18.98,-12.53,0
3841,57.21,-32.55,-36.54,0
3842,57.22,-7.83,-18.91,0
3843,57.24,-36.28,-50.53,0
3844,57.25,-41.82,-66.63,0
3845,57.27,-30.42,-92.56,0
3846,57.28,-39.26,-67.65,0
3847,57.29,-44.32,-36.88,0
3848,57.31,-56.9,-92.4,0
3849,57.32,-47.1,-87.83,0
3850,57.33,-53.53,-97.43,0
3851,57.35,-44.28,-85.97,0
3852,57.36,-32.46,-58.5,0
3853,57.37,5.95,-69.89,0
3854,57.38,-33.88,-46.73,0
3855,57.4,-44.08,-53.32,0
3856,57.41,-60.96,-39.52,0
3857,57.43,-15.91,-16.63,0
3858,57.44,-38.23,-27.15,0
3859,57.45,-30.76,-27.79,0
3860,57.47,-43.29,-24.99,0
3861,57.48,-4.48,-25.88,0
3862,57.49,-17.32,-24.67,0
3863,57.51,-14.29,-30.33,0
3864,57.52,-13.43,-2.01,0
3865,57.53,-1.22,6.49,0
3866,57.54,-12.98,1.04,0
3867,57.56,-5.9,-7.62,0
3868,57.57,9.55,-13.56,0
3869,57.59,25.66,-33.26,0
3870,57.6,0.58,-20.45,0
3871,57.61,3.62,-7.43,0
3872,57.63,-3.16,14.82,0
3873,57.64,24.08,17.89,0
3874,57.65,13.0,25.1,0
3875,57.67,25.98,10.54,0
3876,57.68,30.05,6.06,0
3877,57.69,3.48,20.61,0
3878,57.71,21.08,39.77,0
3879,57.72,11.62,18.01,0
3880,57.73,27.07,13.02,0
3881,57.75,21.83,9.48,0
3882,57.76,-2.2,24.08,0
3883,57.77,16.14,49.52,0
3884,57.79,25.66,30.99,0
3885,57.8,10.06,31.8,0
3886,57.81,9.1,30.42,0
3887,57.83,27.14,20.01,0
3888,57.84,26.26,24.25,0
3889,57.85,13.96,17.41,0
3890,57.87,9.74,18.92,0
3891,57.88,11.36,31.79,0
3892,57.89,16.26,20.55,0
3893,57.9,15.41,27.57,0
3894,57.92,4.22,17.14,0
3895,57.93,13.62,24.99,0
3896,57.95,29.91,13.78,0
3897,57.96,0.54,16.54,0
3898,57.97,9.71,21.08,0
3899,57.99,13.41,22.5,0
3900,58.0,18.29,4.26,0
3901,58.01,7.24,2.78,0
3902,58.03,-0.76,9.0,0
3903,58.04,18.93,24.85,0
3904,58.05,-0.68,10.23,0
3905,58.06,-2.42,2.65,0
3906,58.08,-38.29,-10.08,0
3907,58.09,-20.79,-14.24,0
3908,58.11,-10.99,18.14,1
3909,58.12,29.46,-4.79,1
3910,58.13,-27.37,-6.79,1
3911,58.15,24.63,44.57,1
3912,58.16,18.12,183.78,1
3913,58.17,7.81,232.77,1
3914,58.19,27.4,287.2,1
3915,58.2,-16.37,11.15,1
3916,58.21,20.72,46.44,1
3917,58.22,86.31,73.26,1
3918,58.24,-121.89,31.0,1
3919,58.25,53.91,-44.81,1
3920,58.27,121.69,-325.04,1
3921,58.28,82.63,-477.44,1
3922,58.29,93.53,-16.27,1
3923,58.31,-110.17,-136.58,1
3924,58.32,269.5,-157.1,1
3925,58.33,-64.28,-235.69,1
3926,58.35,123.1,-216.5,1
3927,58.36,-68.85,-344.52,1
3928,58.37,38.92,-252.24,1
3929,58.38,7.95,367.41,1
3930,58.4,-47.45,-1.29,1
3931,58.41,-145.54,-188.95,1
3932,58.43,-232.47,88.07,1
3933,58.44,-2.91,-388.02,1
3934,58.45,-47.71,130.19,1
3935,58.47,61.12,180.45,1
3936,58.48,-338.35,244.83,1
3937,58.49,-27.41,335.48,1
3938,58.51,-270.98,26.14,1
3939,58.52,-76.89,375.53,1
3940,58.53,-239.63,-68.64,1
3941,58.54,-26.16,374.04,1
3942,58.56,-88.09,-220.91,1
3943,58.57,-164.22,-43.91,1
3944,58.59,-100.69,346.81,1
3945,58.6,-121.39,-226.88,1
3946,58.61,212.89,8.61,1
3947,58.63,108.52,287.89,1
3948,58.64,-22.88,-120.46,1
3949,58.65,250.57,4.09,1
3950,58.66,-133.24,-32.76,1
3951,58.68,-184.09,-75.58,1
3952,58.69,-230.3,-69.62,1
3953,58.71,-24.3,-173.7,1
3954,58.72,182.17,-203.73,1
3955,58.73,0.66,401.82,1
3956,58.75,400.41,-86.76,1
3957,58.76,130.22,-460.08,1
3958,58.77,23.64,-247.6,1
3959,58.79,9.89,-170.73,1
3960,58.8,155.89,-42.87,1
3961,58.81,360.46,-47.21,1
3962,58.83,370.27,276.63,1
3963,58.84,-100.45,158.27,1
3964,58.85,107.67,-139.48,1
3965,58.87,309.89,469.84,1
3966,58.88,-238.02,168.3,1
3967,58.89,20.56,193.49,1
3968,58.9,180.29,-9.11,1
3969,58.92,-90.3,178.4,0
3970,58.93,121.39,20.53,0
3971,58.95,12.86,-129.36,0
3972,58.96,-150.51,-18.04,0
3973,58.97,-43.3,-92.01,0
3974,58.99,-225.0,-69.21,0
3975,59.0,-18.72,-168.28,0
3976,59.01,-55.52,-106.89,0
3977,59.03,33.23,-179.34,0
3978,59.04,38.18,-106.87,0
3979,59.05,72.02,-25.44,0
3980,59.06,54.5,50.52,0
3981,59.08,54.24,109.32,0
3982,59.09,22.72,91.48,0
3983,59.11,42.53,115.79,0
3984,59.12,11.15,81.22,0
3985,59.13,25.7,88.9,0
3986,59.15,-1.46,74.96,0
3987,59.16,-16.16,57.52,0
3988,59.17,-1.66,33.34,0
3989,59.19,-27.13,66.45,0
3990,59.2,-30.52,47.12,0
3991,59.21,-39.6,53.54,0
3992,59.22,-42.71,73.19,0
3993,59.24,-46.56,53.06,0
3994,59.25,-37.58,54.28,0
3995,59.27,-50.7,24.93,0
3996,59.28,-40.29,21.31,0
3997,59.29,-46.91,11.35,0
3998,59.3,-40.72,8.38,0
3999,59.32,-49.77,1.25,0
4000,59.33,-33.2,-2.35,0
4001,59.35,-40.76,-43.43,0
4002,59.36,-37.47,-48.02,0
4003,59.37,-65.88,-32.7,0
4004,59.38,-20.43,-50.27,0
4005,59.4,-24.41,-56.79,0
4006,59.41,-45.79,-50.79,0
4007,59.43,-29.26,-77.41,0
4008,59.44,-15.88,-49.57,0
4009,59.45,-22.03,-53.76,0
4010,59.47,-31.16,-60.63,0
4011,59.48,-33.02,-55.69,0
4012,59.49,-7.32,-71.36,0
4013,59.51,-16.93,-65.69,0
4014,59.52,-20.42,-43.82,0
4015,59.53,0.5,-34.44,0
4016,59.54,9.19,-51.88,0
4017,59.56,6.58,-36.12,0
4018,59.57,-19.61,-67.77,0
4019,59.59,11.08,-42.94,0
4020,59.6,-2.21,-26.68,0
4021,59.61,-5.64,-22.24,0
4022,59.63,0.25,-15.9,0
4023,59.64,18.55,-16.43,0
4024,59.65,-1.56,-17.97,0
4025,59.67,4.31,-10.27,0
4026,59.68,-0.6,-7.89,0
4027,59.69,16.12,6.21,0
4028,59.71,25.98,2.65,0
4029,59.72,23.88,12.08,0
4030,59.73,16.36,-1.31,0
4031,59.75,25.22,-24.14,0
4032,59.76,11.71,5.43,0
4033,59.77,9.77,19.32,0
4034,59.79,7.44,12.33,0
4035,59.8,29.14,16.14,0
4036,59.81,-4.31,5.49,0
4037,59.83,-9.34,-10.0,0
4038,59.84,-7.08,10.32,0
4039,59.85,34.24,12.96,0
4040,59.87,31.24,21.8,0
4041,59.88,28.18,37.21,0
4042,59.89,30.0,30.8,0
4043,59.9,23.86,14.11,0
4044,59.92,19.63,26.4,0
4045,59.93,-1.25,12.56,0
4046,59.94,25.08,12.63,0
4047,59.96,30.88,19.29,0
4048,59.97,2.43,23.75,0
4049,59.985,6.48,14.72,0
4050,60.0,22.4,41.24,0
