,Timestamp,Data1,Data2,Label
0,6.0,-5.59,1.76,0
1,6.01,0.54,4.28,0
2,6.03,-46.13,-1.95,0
3,6.04,-6.55,7.29,0
4,6.05,-23.04,0.26,0
5,6.07,38.38,3.99,0
6,6.08,-2.74,10.02,0
7,6.09,9.44,7.93,0
8,6.11,53.87,-9.95,1
9,6.12,-0.77,-11.63,1
10,6.13,8.69,23.52,1
11,6.15,21.87,28.17,1
12,6.16,14.83,45.17,1
13,6.17,2.5,144.69,1
14,6.19,8.16,284.38,1
15,6.2,-110.26,157.4,1
16,6.21,48.45,98.32,1
17,6.23,-34.95,254.17,1
18,6.24,-228.38,90.94,1
19,6.25,-181.76,-188.66,1
20,6.27,271.19,-529.14,1
21,6.28,98.85,-65.7,1
22,6.29,140.94,-169.91,1
23,6.31,101.43,313.03,1
24,6.32,32.41,88.15,1
25,6.33,173.08,129.22,1
26,6.35,-2.94,43.35,1
27,6.36,-32.44,-9.0,1
28,6.37,9.89,-67.96,1
29,6.39,102.01,-21.02,1
30,6.4,-171.94,-69.78,1
31,6.41,-114.63,-109.87,1
32,6.43,198.76,-151.86,1
33,6.44,25.03,-240.96,1
34,6.45,31.04,-440.54,1
35,6.47,79.36,-124.82,1
36,6.48,57.06,-378.4,1
37,6.49,-134.33,-303.39,1
38,6.51,-195.81,71.03,1
39,6.52,-251.48,-57.72,1
40,6.53,87.24,-428.45,1
41,6.55,-96.6,-394.74,1
42,6.56,-17.33,-69.58,1
43,6.57,8.01,-75.72,1
44,6.59,-168.33,-8.28,1
45,6.6,49.5,102.89,1
46,6.61,-165.65,236.37,1
47,6.63,-52.65,-58.47,1
48,6.64,-185.57,190.96,1
49,6.65,82.04,100.33,1
50,6.67,-81.92,365.39,1
51,6.68,-104.57,313.56,1
52,6.69,108.58,-228.89,1
53,6.71,22.09,359.03,1
54,6.72,-8.69,519.82,1
55,6.73,-102.35,244.45,1
56,6.75,251.77,-96.49,1
57,6.76,40.23,-153.62,1
58,6.77,-46.61,87.08,1
59,6.79,-0.92,134.41,1
60,6.8,202.6,319.77,1
61,6.81,63.12,-104.75,1
62,6.83,-22.92,-9.32,1
63,6.84,89.29,50.14,1
64,6.85,-89.04,106.1,1
65,6.87,5.29,-70.92,1
66,6.88,11.79,-37.36,1
67,6.89,-10.9,-212.59,1
68,6.91,-60.38,-89.89,0
69,6.92,-78.33,-102.74,0
70,6.93,-35.28,-28.05,0
71,6.95,-55.9,-7.9,0
72,6.96,-24.01,37.04,0
73,6.97,29.09,130.01,0
74,6.99,86.03,147.43,0
75,7.0,65.5,115.44,0
76,7.01,81.13,185.55,0
77,7.03,69.33,137.16,0
78,7.04,102.8,189.11,0
79,7.05,84.88,197.5,0
80,7.07,76.13,182.86,0
81,7.08,70.83,179.0,0
82,7.09,79.7,161.63,0
83,7.11,64.52,173.06,0
84,7.12,40.79,155.0,0
85,7.13,37.7,118.25,0
86,7.15,38.53,91.08,0
87,7.16,29.04,55.24,0
88,7.17,29.79,21.56,0
89,7.19,7.73,-28.66,0
90,7.2,19.29,-60.49,0
91,7.21,2.84,-90.25,0
92,7.23,-9.53,-106.32,0
93,7.24,1.02,-118.03,0
94,7.25,-6.86,-127.12,0
95,7.27,-29.8,-141.56,0
96,7.28,-37.37,-155.68,0
97,7.29,-17.53,-127.79,0
98,7.31,-23.68,-187.52,0
99,7.32,-42.8,-194.68,0
100,7.33,-53.17,-140.43,0
101,7.35,-20.37,-138.51,0
102,7.36,-44.86,-149.09,0
103,7.37,-62.52,-163.91,0
104,7.39,-56.38,-148.31,0
105,7.4,-14.71,-154.04,0
106,7.41,-43.21,-130.23,0
107,7.43,-39.03,-144.11,0
108,7.44,-53.1,-109.21,0
109,7.45,-22.52,-99.02,0
110,7.47,-22.76,-93.34,0
111,7.48,-47.46,-85.35,0
112,7.49,-43.43,-86.26,0
113,7.51,-18.03,-80.24,0
114,7.52,-31.54,-77.47,0
115,7.53,-26.89,-59.07,0
116,7.55,-33.11,-51.91,0
117,7.56,-20.96,-9.61,0
118,7.57,-13.78,-12.32,0
119,7.59,-14.45,-13.86,0
120,7.6,-0.65,-8.54,0
121,7.61,-28.31,11.32,0
122,7.63,-22.03,16.82,0
123,7.64,-7.06,29.49,0
124,7.65,14.58,47.91,0
125,7.67,9.55,55.07,0
126,7.68,-18.03,29.11,0
127,7.69,-8.33,66.91,0
128,7.71,23.83,57.55,0
129,7.72,7.88,58.06,0
130,7.73,13.29,57.76,0
131,7.75,-5.14,66.81,0
132,7.76,7.58,63.94,0
133,7.77,14.15,55.99,0
134,7.79,7.63,62.3,0
135,7.8,3.06,65.49,0
136,7.81,25.29,46.26,0
137,7.83,16.18,57.31,0
138,7.84,15.6,71.45,0
139,7.85,11.72,73.59,0
140,7.87,36.78,46.41,0
141,7.88,19.14,55.97,0
142,7.89,5.48,48.83,0
143,7.91,-3.8,52.49,0
144,7.92,24.57,50.86,0
145,7.93,14.07,49.23,0
146,7.95,11.84,39.11,0
147,7.96,21.7,42.29,0
148,7.97,15.75,25.66,0
149,7.99,23.82,30.45,0
150,8.0,-5.17,55.59,0
151,8.01,-47.14,21.29,0
152,8.03,-40.54,30.45,0
153,8.04,26.43,37.47,0
154,8.05,4.56,10.93,0
155,8.07,27.47,14.69,0
156,8.08,45.38,6.03,0
157,8.09,-0.33,-6.51,0
158,8.11,20.96,-11.96,1
159,8.12,68.69,19.75,1
160,8.13,4.89,21.24,1
161,8.15,34.89,2.8,1
162,8.16,54.57,40.86,1
163,8.17,18.25,123.96,1
164,8.19,-115.87,66.62,1
165,8.2,-164.76,315.25,1
166,8.21,-264.72,292.06,1
167,8.23,52.9,102.51,1
168,8.24,228.91,-165.51,1
169,8.25,15.84,-107.28,1
170,8.27,327.71,-172.25,1
171,8.28,283.13,190.16,1
172,8.29,1.1,60.72,1
173,8.31,281.26,60.25,1
174,8.32,-269.18,-5.58,1
175,8.33,181.74,-35.87,1
176,8.35,-413.29,-115.08,1
177,8.36,-78.66,-189.52,1
178,8.37,-149.54,-69.89,1
179,8.39,-81.51,-269.82,1
180,8.4,-50.35,-536.2,1
181,8.41,275.02,-355.06,1
182,8.43,-164.07,-492.12,1
183,8.44,20.65,-396.09,1
184,8.45,-282.59,4.22,1
185,8.47,-64.15,37.13,1
186,8.48,214.36,-252.63,1
187,8.49,-86.05,-440.68,1
188,8.51,-77.27,41.67,1
189,8.52,-10.24,-151.21,1
190,8.53,-11.34,-2.6,1
191,8.55,234.44,-174.43,1
192,8.56,-66.4,-172.94,1
193,8.57,276.1,117.55,1
194,8.59,-90.4,449.86,1
195,8.6,-258.62,540.91,1
196,8.61,-290.9,416.13,1
197,8.63,39.3,317.73,1
198,8.64,-2.5,-78.27,1
199,8.65,90.19,0.35,1
200,8.67,-134.8,-102.61,1
201,8.68,-91.56,-31.05,1
202,8.69,-14.59,-181.12,1
203,8.71,171.16,-39.02,1
204,8.72,148.99,55.07,1
205,8.73,-117.0,223.28,1
206,8.75,243.7,668.91,1
207,8.76,99.77,8.64,1
208,8.77,215.88,93.16,1
209,8.79,-29.54,470.02,1
210,8.8,-192.02,14.75,1
211,8.81,-115.58,514.39,1
212,8.83,-261.33,97.16,1
213,8.84,166.63,100.18,1
214,8.85,109.81,-223.43,1
215,8.87,-127.09,-126.62,1
216,8.88,-0.97,-328.33,1
217,8.89,-37.92,-149.63,1
218,8.91,-35.97,-147.87,0
219,8.92,-70.83,-57.97,0
220,8.93,-45.46,54.78,0
221,8.95,-108.26,-89.58,0
222,8.96,-114.82,-82.35,0
223,8.97,-60.42,-18.35,0
224,8.99,-27.09,-52.14,0
225,9.0,82.65,-56.75,0
226,9.01,94.75,-16.96,0
227,9.03,112.99,-25.37,0
228,9.04,94.14,66.67,0
229,9.05,133.83,78.99,0
230,9.07,116.15,126.11,0
231,9.08,101.84,149.12,0
232,9.09,101.17,186.23,0
233,9.11,92.33,184.31,0
234,9.12,89.44,163.55,0
235,9.13,92.99,160.23,0
236,9.15,92.87,102.75,0
237,9.16,63.94,87.1,0
238,9.17,29.53,55.78,0
239,9.19,27.15,22.1,0
240,9.2,32.46,-8.94,0
241,9.21,6.99,-29.73,0
242,9.23,20.6,-35.28,0
243,9.24,-17.74,-39.63,0
244,9.25,-11.25,-87.39,0
245,9.27,-15.84,-101.37,0
246,9.28,-38.51,-106.83,0
247,9.29,-45.22,-112.52,0
248,9.31,-47.82,-115.13,0
249,9.32,-49.16,-129.79,0
250,9.33,-54.87,-121.15,0
251,9.35,-49.21,-119.68,0
252,9.36,-40.07,-137.82,0
253,9.37,-48.57,-145.75,0
254,9.39,-54.6,-103.48,0
255,9.4,-51.99,-107.97,0
256,9.41,-35.13,-91.82,0
257,9.43,-17.23,-81.07,0
258,9.44,-51.86,-77.8,0
259,9.45,-25.62,-70.02,0
260,9.47,-43.46,-33.42,0
261,9.48,-41.88,-41.38,0
262,9.49,-48.39,-48.75,0
263,9.51,-33.7,-46.23,0
264,9.52,-39.58,-49.2,0
265,9.53,-36.15,-33.3,0
266,9.55,-38.43,-24.45,0
267,9.56,-9.32,-9.71,0
268,9.57,-36.04,12.07,0
269,9.59,-10.37,-6.07,0
270,9.6,-2.33,0.47,0
271,9.61,-1.66,2.71,0
272,9.63,-0.91,4.93,0
273,9.64,-23.56,-9.76,0
274,9.65,-10.2,-4.76,0
275,9.67,1.24,12.9,0
276,9.68,-2.32,16.38,0
277,9.69,10.52,14.23,0
278,9.71,0.25,21.01,0
279,9.72,13.25,36.59,0
280,9.73,7.15,32.49,0
281,9.75,9.4,23.41,0
282,9.76,8.04,44.28,0
283,9.77,16.79,43.74,0
284,9.79,11.68,48.36,0
285,9.8,11.81,37.76,0
286,9.81,-7.02,36.1,0
287,9.83,58.16,32.12,0
288,9.84,29.13,40.46,0
289,9.85,20.99,31.77,0
290,9.87,27.47,59.52,0
291,9.88,35.26,28.77,0
292,9.89,16.34,49.83,0
293,9.91,5.64,57.76,0
294,9.92,4.59,45.21,0
295,9.93,27.74,48.54,0
296,9.95,30.82,32.51,0
297,9.96,4.7,35.81,0
298,9.97,20.69,31.59,0
299,9.99,10.34,28.51,0
300,10.0,7.42,31.25,0
301,10.01,-41.18,11.7,0
302,10.03,-36.25,8.88,0
303,10.04,24.32,23.95,0
304,10.05,-19.38,24.83,0
305,10.07,-7.59,22.32,0
306,10.08,57.59,14.0,0
307,10.09,-21.22,13.64,0
308,10.11,13.69,-0.45,1
309,10.12,15.62,41.02,1
310,10.13,30.53,64.9,1
311,10.15,92.81,142.52,1
312,10.16,45.17,379.37,1
313,10.17,-129.72,287.09,1
314,10.19,179.3,233.09,1
315,10.2,206.65,72.87,1
316,10.21,110.34,-143.07,1
317,10.23,-29.05,33.58,1
318,10.24,97.64,40.76,1
319,10.25,-108.18,-3.21,1
320,10.27,216.06,-40.79,1
321,10.28,33.75,-76.09,1
322,10.29,19.26,-106.68,1
323,10.31,-163.67,-130.95,1
324,10.32,-294.38,-151.13,1
325,10.33,-102.11,-164.04,1
326,10.35,-355.82,-400.07,1
327,10.36,-256.29,-660.8,1
328,10.37,-403.08,-279.33,1
329,10.39,56.34,-313.45,1
330,10.4,-123.89,-436.68,1
331,10.41,240.85,-122.04,1
332,10.43,2.27,-354.41,1
333,10.44,-168.82,-44.86,1
334,10.45,173.03,39.23,1
335,10.47,14.69,145.77,1
336,10.48,-4.36,64.59,1
337,10.49,-116.12,-10.96,1
338,10.51,241.4,-175.2,1
339,10.52,126.92,50.33,1
340,10.53,60.69,229.98,1
341,10.55,174.03,126.27,1
342,10.56,-50.76,-94.19,1
343,10.57,137.84,-218.06,1
344,10.59,-215.74,-90.13,1
345,10.6,71.94,273.78,1
346,10.61,-95.29,115.29,1
347,10.63,147.94,462.34,1
348,10.64,-61.42,193.25,1
349,10.65,22.11,142.87,1
350,10.67,210.69,178.28,1
351,10.68,328.52,265.09,1
352,10.69,-55.75,317.19,1
353,10.71,263.76,258.75,1
354,10.72,-152.96,-51.18,1
355,10.73,-69.37,14.08,1
356,10.75,-189.7,245.49,1
357,10.76,-231.07,-249.71,1
358,10.77,-103.73,107.3,1
359,10.79,-228.09,-18.9,1
360,10.8,112.73,-25.46,1
361,10.81,39.72,211.45,1
362,10.83,146.97,-85.46,1
363,10.84,45.98,-49.91,1
364,10.85,252.65,-37.26,1
365,10.87,182.15,488.55,1
366,10.88,-51.0,-119.46,1
367,10.89,83.82,-224.45,1
368,10.91,32.98,-145.75,0
369,10.92,-53.25,-34.45,0
370,10.93,-13.36,-179.52,0
371,10.95,-62.96,-100.48,0
372,10.96,1.22,-114.07,0
373,10.97,-16.19,-30.25,0
374,10.99,-86.31,46.3,0
375,11.0,-73.51,21.4,0
376,11.01,-43.88,-3.44,0
377,11.03,-76.39,-51.3,0
378,11.04,-57.46,-83.88,0
379,11.05,-47.56,-36.74,0
380,11.07,-34.88,-59.49,0
381,11.08,-33.54,-29.02,0
382,11.09,-12.08,45.28,0
383,11.11,-10.33,82.22,0
384,11.12,-3.82,145.47,0
385,11.13,2.84,162.05,0
386,11.15,17.31,169.63,0
387,11.16,52.59,194.81,0
388,11.17,27.46,144.58,0
389,11.19,17.54,142.39,0
390,11.2,8.1,141.06,0
391,11.21,18.63,85.76,0
392,11.23,25.99,57.49,0
393,11.24,0.62,11.09,0
394,11.25,8.1,52.57,0
395,11.27,27.97,15.34,0
396,11.28,5.38,-31.92,0
397,11.29,11.82,-53.35,0
398,11.31,-13.33,-68.23,0
399,11.32,3.54,-64.84,0
400,11.33,-13.39,-51.41,0
401,11.35,-7.76,-83.03,0
402,11.36,-1.38,-85.36,0
403,11.37,8.26,-113.92,0
404,11.39,-26.83,-127.09,0
405,11.4,-21.85,-134.85,0
406,11.41,-11.01,-120.6,0
407,11.43,-5.67,-122.91,0
408,11.44,-12.09,-123.42,0
409,11.45,-21.58,-89.2,0
410,11.47,7.97,-85.42,0
411,11.48,1.97,-95.66,0
412,11.49,15.22,-101.8,0
413,11.51,-15.15,-86.82,0
414,11.52,2.2,-78.9,0
415,11.53,-9.41,-80.73,0
416,11.55,-13.21,-87.71,0
417,11.56,-17.18,-77.07,0
418,11.57,5.19,-60.1,0
419,11.59,11.77,-57.46,0
420,11.6,-15.92,-39.73,0
421,11.61,-27.0,-8.88,0
422,11.63,17.24,-29.34,0
423,11.64,6.02,-19.78,0
424,11.65,14.1,-25.38,0
425,11.67,-9.09,-1.55,0
426,11.68,10.01,8.65,0
427,11.69,-5.34,22.31,0
428,11.71,0.82,44.49,0
429,11.72,3.4,32.32,0
430,11.73,3.05,20.08,0
431,11.75,4.1,31.89,0
432,11.76,1.74,35.77,0
433,11.77,15.86,29.85,0
434,11.79,6.79,26.98,0
435,11.8,-8.88,57.35,0
436,11.81,-16.95,84.42,0
437,11.83,2.03,44.81,0
438,11.84,-3.99,75.21,0
439,11.85,5.95,57.9,0
440,11.87,-6.65,59.71,0
441,11.88,19.03,50.52,0
442,11.89,-4.68,23.86,0
443,11.91,13.34,30.14,0
444,11.92,-21.37,24.51,0
445,11.93,18.99,40.43,0
446,11.95,-12.58,20.1,0
447,11.96,-12.9,23.18,0
448,11.97,-0.64,50.1,0
449,11.99,31.38,29.52,0
450,12.0,11.58,32.61,0
451,12.01,-10.03,45.67,0
452,12.03,-59.22,30.42,0
453,12.04,25.54,6.65,0
454,12.05,-30.3,41.58,0
455,12.07,-4.55,24.9,0
456,12.08,21.97,32.68,0
457,12.09,-6.59,22.64,0
458,12.11,52.07,20.76,1
459,12.12,2.93,37.33,1
460,12.13,14.58,15.55,1
461,12.15,33.76,6.38,1
462,12.16,-8.49,104.16,1
463,12.17,35.08,236.38,1
464,12.19,91.41,184.42,1
465,12.2,50.9,182.73,1
466,12.21,-72.8,202.23,1
467,12.23,61.68,2.69,1
468,12.24,267.91,242.87,1
469,12.25,-192.38,71.31,1
470,12.27,183.98,66.27,1
471,12.28,217.01,-9.52,1
472,12.29,139.36,-45.55,1
473,12.31,-24.32,-87.61,1
474,12.32,148.8,-117.21,1
475,12.33,-199.9,-143.35,1
476,12.35,-165.85,-162.84,1
477,12.36,66.08,-177.68,1
478,12.37,81.15,-187.69,1
479,12.39,5.56,-203.04,1
480,12.4,-53.13,-300.91,1
481,12.41,-322.38,-320.41,1
482,12.43,-125.05,-160.84,1
483,12.44,-200.52,-314.9,1
484,12.45,-146.66,-96.07,1
485,12.47,-203.47,-307.86,1
486,12.48,-256.78,-372.74,1
487,12.49,-24.15,63.15,1
488,12.51,-293.84,-296.23,1
489,12.52,0.75,-237.2,1
490,12.53,-171.45,229.84,1
491,12.55,119.71,13.24,1
492,12.56,155.04,-117.72,1
493,12.57,74.17,-313.86,1
494,12.59,-241.76,71.67,1
495,12.6,-199.99,11.07,1
496,12.61,166.3,263.99,1
497,12.63,36.73,-51.7,1
498,12.64,-94.13,-99.53,1
499,12.65,85.21,155.23,1
500,12.67,-42.41,-78.35,1
501,12.68,290.11,153.15,1
502,12.69,301.16,287.68,1
503,12.71,-90.96,-40.32,1
504,12.72,-92.57,364.9,1
505,12.73,54.48,43.17,1
506,12.75,81.69,572.84,1
507,12.76,220.48,256.36,1
508,12.77,77.87,29.02,1
509,12.79,103.93,33.47,1
510,12.8,247.5,227.93,1
511,12.81,170.25,120.08,1
512,12.83,-163.07,-293.02,1
513,12.84,-6.09,-50.57,1
514,12.85,-63.03,202.02,1
515,12.87,231.29,119.59,1
516,12.88,164.23,173.73,1
517,12.89,-33.08,95.2,1
518,12.91,81.27,249.03,0
519,12.92,-387.61,-329.26,0
520,12.93,-207.06,-40.07,0
521,12.95,19.03,26.25,0
522,12.96,-3.3,-117.73,0
523,12.97,33.94,-22.46,0
524,12.99,40.37,106.13,0
525,13.0,73.83,68.12,0
526,13.01,75.67,-3.55,0
527,13.03,77.75,-80.23,0
528,13.04,59.22,-157.3,0
529,13.05,30.04,-102.9,0
530,13.07,49.51,-70.97,0
531,13.08,42.05,-10.48,0
532,13.09,42.63,32.47,0
533,13.11,60.54,80.05,0
534,13.12,47.74,131.56,0
535,13.13,38.98,170.94,0
536,13.15,44.63,196.31,0
537,13.16,5.97,213.74,0
538,13.17,32.65,194.64,0
539,13.19,9.5,195.08,0
540,13.2,4.62,159.8,0
541,13.21,16.5,134.79,0
542,13.23,-10.62,96.37,0
543,13.24,-23.48,93.32,0
544,13.25,-31.49,32.22,0
545,13.27,-21.7,10.17,0
546,13.28,-38.93,-3.38,0
547,13.29,-66.28,-48.98,0
548,13.31,-61.31,-44.99,0
549,13.32,-36.11,-77.5,0
550,13.33,-61.06,-85.61,0
551,13.35,-58.7,-101.03,0
552,13.36,-85.72,-125.09,0
553,13.37,-47.0,-129.06,0
554,13.39,-63.08,-125.7,0
555,13.4,-68.55,-130.88,0
556,13.41,-70.03,-129.74,0
557,13.43,-42.32,-145.77,0
558,13.44,-63.41,-147.23,0
559,13.45,-69.44,-164.15,0
560,13.47,-68.16,-134.92,0
561,13.48,-55.91,-129.61,0
562,13.49,-56.84,-140.37,0
563,13.51,-31.73,-128.41,0
564,13.52,-33.32,-106.4,0
565,13.53,-23.63,-111.8,0
566,13.55,-12.47,-94.42,0
567,13.56,-13.32,-92.24,0
568,13.57,4.29,-68.69,0
569,13.59,-24.98,-77.92,0
570,13.6,-10.12,-61.45,0
571,13.61,14.13,-43.06,0
572,13.63,22.22,-27.73,0
573,13.64,-3.39,-37.74,0
574,13.65,4.24,-40.27,0
575,13.67,1.94,-28.45,0
576,13.68,36.26,-32.81,0
577,13.69,18.54,-9.35,0
578,13.71,10.85,-14.57,0
579,13.72,14.38,10.32,0
580,13.73,35.07,16.29,0
581,13.75,19.24,24.33,0
582,13.76,12.78,21.44,0
583,13.77,14.42,29.54,0
584,13.79,41.2,43.74,0
585,13.8,22.66,38.72,0
586,13.81,21.08,37.1,0
587,13.83,13.02,61.92,0
588,13.84,30.05,52.28,0
589,13.85,-3.84,41.82,0
590,13.87,10.02,61.74,0
591,13.88,19.34,58.64,0
592,13.89,62.97,59.39,0
593,13.91,21.5,52.45,0
594,13.92,21.62,45.36,0
595,13.93,-4.96,72.88,0
596,13.95,23.31,47.15,0
597,13.96,6.24,55.99,0
598,13.97,15.58,69.02,0
599,13.99,46.09,67.34,0
600,14.0,18.23,45.2,0
601,14.01,13.88,56.46,0
602,14.03,-26.38,69.68,0
603,14.04,-3.12,47.58,0
604,14.05,-11.05,30.66,0
605,14.07,34.49,14.44,0
606,14.08,-8.13,35.92,0
607,14.09,31.16,44.12,0
608,14.11,34.29,47.07,1
609,14.12,-11.77,-26.71,1
610,14.13,-79.92,-24.6,1
611,14.15,-174.37,49.75,1
612,14.16,-124.56,242.68,1
613,14.17,197.98,461.75,1
614,14.19,2.46,293.97,1
615,14.2,54.96,69.92,1
616,14.21,212.17,-177.05,1
617,14.23,-14.48,289.95,1
618,14.24,-150.8,7.14,1
619,14.25,278.25,122.65,1
620,14.27,263.17,-2.53,1
621,14.28,-49.81,-30.17,1
622,14.29,312.98,-113.14,1
623,14.31,-113.27,-214.94,1
624,14.32,-160.86,-337.11,1
625,14.33,209.79,-104.21,1
626,14.35,-233.08,-288.77,1
627,14.36,11.5,-65.91,1
628,14.37,-147.19,-365.95,1
629,14.39,-86.23,-626.1,1
630,14.4,-291.92,-157.58,1
631,14.41,-44.02,-222.23,1
632,14.43,182.58,-175.69,1
633,14.44,100.51,-66.42,1
634,14.45,-113.26,-33.66,1
635,14.47,-313.68,-234.54,1
636,14.48,204.77,180.17,1
637,14.49,148.36,-235.84,1
638,14.51,-79.27,-488.09,1
639,14.52,-185.57,32.29,1
640,14.53,-76.59,323.46,1
641,14.55,-201.01,-22.99,1
642,14.56,61.94,37.71,1
643,14.57,-74.11,-50.33,1
644,14.59,-34.1,368.1,1
645,14.6,143.09,-32.71,1
646,14.61,-129.94,227.52,1
647,14.63,49.59,-125.93,1
648,14.64,19.6,1.68,1
649,14.65,-305.19,162.96,1
650,14.67,-239.38,63.91,1
651,14.68,-128.89,23.06,1
652,14.69,-138.65,120.96,1
653,14.71,321.02,-10.04,1
654,14.72,-88.74,365.22,1
655,14.73,123.48,202.72,1
656,14.75,22.09,133.6,1
657,14.76,343.36,145.93,1
658,14.77,-50.3,316.27,1
659,14.79,-76.83,251.11,1
660,14.8,-228.46,106.48,1
661,14.81,-106.0,375.1,1
662,14.83,191.42,-106.4,1
663,14.84,-101.87,202.18,1
664,14.85,404.81,237.49,1
665,14.87,48.79,-21.54,1
666,14.88,171.21,-160.5,1
667,14.89,155.84,-36.05,1
668,14.91,24.21,-157.82,0
669,14.92,81.52,-198.38,0
670,14.93,69.16,-242.45,0
671,14.95,28.17,-162.4,0
672,14.96,-9.34,-102.51,0
673,14.97,10.32,-51.13,0
674,14.99,-0.23,21.98,0
675,15.0,24.54,0.81,0
676,15.01,52.8,-0.15,0
677,15.03,72.76,-15.18,0
678,15.04,67.58,-0.23,0
679,15.05,45.36,32.44,0
680,15.07,54.66,53.84,0
681,15.08,73.64,61.83,0
682,15.09,69.23,65.16,0
683,15.11,48.32,104.51,0
684,15.12,33.86,109.51,0
685,15.13,-4.59,94.65,0
686,15.15,-3.81,110.3,0
687,15.16,-10.02,94.03,0
688,15.17,15.98,61.27,0
689,15.19,-31.54,38.3,0
690,15.2,-33.98,30.04,0
691,15.21,-47.65,14.27,0
692,15.23,-1.58,-21.74,0
693,15.24,-42.62,-59.51,0
694,15.25,-42.34,-46.54,0
695,15.27,-63.98,-67.67,0
696,15.28,-52.62,-97.21,0
697,15.29,-47.29,-76.87,0
698,15.31,-61.08,-76.47,0
699,15.32,-66.24,-91.92,0
700,15.33,-55.64,-114.18,0
701,15.35,-57.89,-95.33,0
702,15.36,-57.96,-97.6,0
703,15.37,-73.29,-102.79,0
704,15.39,-32.76,-97.08,0
705,15.4,-45.88,-109.39,0
706,15.41,-55.03,-72.56,0
707,15.43,-46.66,-82.8,0
708,15.44,-29.46,-83.08,0
709,15.45,-39.7,-66.02,0
710,15.47,-39.79,-81.51,0
711,15.48,-19.81,-63.84,0
712,15.49,-40.08,-54.22,0
713,15.51,-19.55,-66.77,0
714,15.52,-32.41,-45.89,0
715,15.53,-5.14,-61.63,0
716,15.55,-14.21,-18.78,0
717,15.56,-6.45,-20.1,0
718,15.57,-6.75,-12.88,0
719,15.59,17.97,-6.44,0
720,15.6,-21.14,-2.92,0
721,15.61,-3.61,-5.52,0
722,15.63,2.35,3.51,0
723,15.64,28.02,14.26,0
724,15.65,6.51,20.91,0
725,15.67,7.76,15.46,0
726,15.68,4.5,30.25,0
727,15.69,33.49,20.98,0
728,15.71,27.54,22.7,0
729,15.72,19.35,25.98,0
730,15.73,-1.31,44.45,0
731,15.75,26.72,10.62,0
732,15.76,24.37,53.09,0
733,15.77,16.56,56.52,0
734,15.79,19.09,29.05,0
735,15.8,13.5,29.33,0
736,15.81,6.5,51.64,0
737,15.83,18.75,48.77,0
738,15.84,41.42,35.23,0
739,15.85,30.08,51.21,0
740,15.87,13.66,49.81,0
741,15.88,26.42,40.01,0
742,15.89,40.88,28.8,0
743,15.91,30.51,27.64,0
744,15.92,2.83,34.42,0
745,15.93,-4.22,44.1,0
746,15.95,30.47,12.71,0
747,15.96,12.59,34.47,0
748,15.97,5.96,35.24,0
749,15.99,-1.79,23.02,0
750,16.0,22.12,16.28,0
751,16.01,-4.58,9.53,0
752,16.03,-45.55,38.08,0
753,16.04,-16.17,30.42,0
754,16.05,17.85,21.71,0
755,16.07,28.1,1.6,0
756,16.08,13.21,8.94,0
757,16.09,23.17,28.34,0
758,16.11,25.22,29.83,1
759,16.12,13.5,90.81,1
760,16.13,58.72,121.04,1
761,16.15,-97.1,181.34,1
762,16.16,25.48,85.95,1
763,16.17,16.84,77.38,1
764,16.19,-218.81,314.02,1
765,16.2,-52.76,127.1,1
766,16.21,305.29,48.18,1
767,16.23,-136.83,141.84,1
768,16.24,199.22,34.32,1
769,16.25,73.48,9.85,1
770,16.27,54.2,-51.69,1
771,16.28,-20.08,-190.85,1
772,16.29,-331.28,-462.46,1
773,16.31,228.81,-489.1,1
774,16.32,-107.66,-25.85,1
775,16.33,149.28,-225.72,1
776,16.35,-109.85,-331.42,1
777,16.36,122.92,-10.34,1
778,16.37,-240.24,-387.96,1
779,16.39,7.69,-154.22,1
780,16.4,14.61,-156.27,1
781,16.41,-24.69,-8.99,1
782,16.425,-300.2,-199.21,1
783,16.44,71.54,-118.2,1
784,16.45,-33.44,-77.16,1
785,16.47,235.12,-71.63,1
786,16.48,123.25,49.42,1
787,16.49,50.49,-228.37,1
788,16.51,-306.49,-327.52,1
789,16.52,115.56,223.24,1
790,16.53,-343.27,305.72,1
791,16.55,-80.2,269.12,1
792,16.56,49.41,1.03,1
793,16.57,201.15,313.9,1
794,16.59,-119.26,-45.27,1
795,16.6,207.74,380.22,1
796,16.61,5.01,8.82,1
797,16.63,-103.3,-70.46,1
798,16.64,-73.52,-116.11,1
799,16.65,-96.94,-38.95,1
800,16.67,-16.09,423.43,1
801,16.68,20.01,48.21,1
802,16.69,175.88,-106.93,1
803,16.71,71.64,-181.58,1
804,16.72,271.12,427.55,1
805,16.73,24.04,138.2,1
806,16.75,-95.93,79.93,1
807,16.76,-110.02,15.43,1
808,16.77,-47.62,-2.86,1
809,16.79,-13.08,-115.25,1
810,16.8,-47.71,-27.41,1
811,16.81,-8.91,-81.99,1
812,16.83,21.0,-143.31,1
813,16.84,14.01,-103.95,1
814,16.85,0.13,-134.62,1
815,16.87,-23.38,-67.55,1
816,16.88,28.49,-12.52,1
817,16.89,26.54,51.95,1
818,16.91,6.53,108.72,0
819,16.92,17.57,140.61,0
820,16.93,25.88,189.77,0
821,16.95,4.45,234.82,0
822,16.96,4.95,245.95,0
823,16.97,23.7,259.12,0
824,16.99,33.62,266.71,0
825,17.0,5.43,227.18,0
826,17.01,5.71,197.98,0
827,17.03,22.28,182.41,0
828,17.04,8.41,137.87,0
829,17.05,27.16,118.69,0
830,17.06,-14.7,93.77,0
831,17.08,25.56,65.4,0
832,17.09,20.47,19.61,0
833,17.11,-3.62,-23.14,0
834,17.12,6.25,-50.94,0
835,17.13,16.14,-67.39,0
836,17.15,-15.83,-88.77,0
837,17.16,-12.15,-94.55,0
838,17.17,-17.54,-113.93,0
839,17.19,13.09,-104.11,0
840,17.2,-1.1,-118.16,0
841,17.21,-13.69,-138.88,0
842,17.23,-27.1,-150.04,0
843,17.24,-11.89,-156.21,0
844,17.25,-25.91,-152.21,0
845,17.27,-11.27,-138.77,0
846,17.28,-11.12,-158.1,0
847,17.29,-1.33,-139.62,0
848,17.31,-5.68,-136.1,0
849,17.32,-17.75,-137.79,0
850,17.33,-11.04,-123.55,0
851,17.35,17.03,-127.94,0
852,17.36,-40.23,-114.41,0
853,17.37,-28.77,-113.75,0
854,17.39,-2.63,-85.57,0
855,17.4,-4.11,-91.41,0
856,17.41,-12.02,-91.29,0
857,17.43,-15.04,-70.82,0
858,17.44,3.89,-68.7,0
859,17.45,-10.39,-57.36,0
860,17.47,-11.87,-38.31,0
861,17.48,-26.5,-18.6,0
862,17.49,-0.44,-18.75,0
863,17.51,-1.46,-24.22,0
864,17.52,1.43,-9.64,0
865,17.53,4.67,-8.55,0
866,17.55,13.83,14.15,0
867,17.56,-14.06,22.83,0
868,17.57,4.95,9.71,0
869,17.59,1.01,28.3,0
870,17.6,-4.31,31.7,0
871,17.61,-11.76,34.03,0
872,17.63,-23.81,24.02,0
873,17.64,1.77,42.15,0
874,17.65,6.07,28.48,0
875,17.67,13.93,46.91,0
876,17.68,19.51,61.05,0
877,17.69,11.68,56.69,0
878,17.7,1.58,60.13,0
879,17.72,-2.83,69.2,0
880,17.73,18.86,43.57,0
881,17.75,34.41,64.26,0
882,17.76,1.69,58.3,0
883,17.77,6.76,48.03,0
884,17.79,8.62,34.09,0
885,17.8,17.09,71.22,0
886,17.81,-4.89,56.12,0
887,17.83,-15.36,37.49,0
888,17.84,-16.25,41.47,0
889,17.85,9.9,61.93,0
890,17.87,8.01,52.04,0
891,17.88,7.93,42.47,0
892,17.89,16.86,46.83,0
893,17.91,3.87,45.53,0
894,17.92,10.04,55.32,0
895,17.93,-4.65,42.27,0
896,17.95,-8.5,6.82,0
897,17.96,10.68,23.2,0
898,17.97,-0.24,15.81,0
899,17.99,-7.94,3.02,0
900,18.0,-21.15,8.43,0
901,18.01,10.11,-13.33,0
902,18.03,-2.1,-0.75,0
903,18.04,-54.63,-11.2,0
904,18.05,-13.61,11.44,0
905,18.07,-5.78,-5.11,0
906,18.08,9.87,6.68,0
907,18.09,36.21,-4.25,0
908,18.11,8.74,-36.42,1
909,18.12,7.83,70.29,1
910,18.13,39.8,171.58,1
911,18.15,72.07,215.8,1
912,18.16,136.69,200.62,1
913,18.17,-155.57,-134.47,1
914,18.19,-175.92,-130.63,1
915,18.2,3.62,167.57,1
916,18.21,200.33,193.78,1
917,18.23,210.56,178.49,1
918,18.24,-50.91,103.06,1
919,18.25,-13.71,53.22,1
920,18.27,-189.41,-1.07,1
921,18.28,-110.1,-42.55,1
922,18.29,-56.91,-286.82,1
923,18.31,-2.41,-747.84,1
924,18.32,-149.55,-611.57,1
925,18.33,357.46,-434.26,1
926,18.34,237.73,-409.11,1
927,18.36,-16.81,-268.43,1
928,18.37,-172.32,289.63,1
929,18.39,-67.34,-264.3,1
930,18.4,57.19,59.67,1
931,18.41,-50.33,-33.67,1
932,18.43,-14.45,-209.01,1
933,18.44,128.07,254.27,1
934,18.45,98.74,-273.08,1
935,18.47,-400.35,405.22,1
936,18.48,-82.14,-5.59,1
937,18.49,-137.77,-1.75,1
938,18.51,-80.27,154.54,1
939,18.52,10.09,256.2,1
940,18.53,98.15,508.59,1
941,18.55,-95.82,370.39,1
942,18.56,277.66,-33.02,1
943,18.57,87.97,-247.77,1
944,18.59,-19.96,178.73,1
945,18.6,-116.86,122.75,1
946,18.61,-258.9,-302.48,1
947,18.63,109.06,-86.74,1
948,18.64,-60.38,93.84,1
949,18.65,37.95,186.75,1
950,18.67,9.2,236.36,1
951,18.68,-214.52,331.06,1
952,18.69,133.24,-149.47,1
953,18.71,-135.65,-71.35,1
954,18.72,259.44,77.57,1
955,18.73,-20.0,-118.94,1
956,18.75,459.8,362.18,1
957,18.76,-156.13,103.72,1
958,18.77,18.17,-200.72,1
959,18.79,102.53,-187.76,1
960,18.8,-26.33,-239.49,1
961,18.81,-22.76,-18.92,1
962,18.83,55.18,-64.53,1
963,18.84,145.73,-139.43,1
964,18.85,26.32,30.86,1
965,18.87,12.97,14.99,1
966,18.88,30.21,-15.37,1
967,18.89,-5.13,-26.87,1
968,18.91,-9.51,-53.86,0
969,18.92,-39.78,-121.2,0
970,18.93,-22.06,-165.27,0
971,18.95,-6.87,-143.79,0
972,18.96,-25.05,-125.84,0
973,18.97,5.18,-56.85,0
974,18.98,20.85,-31.8,0
975,19.0,30.54,51.17,0
976,19.01,4.71,100.95,0
977,19.02,20.02,140.19,0
978,19.04,18.35,186.39,0
979,19.05,2.68,218.05,0
980,19.07,-7.57,214.86,0
981,19.08,-3.33,191.3,0
982,19.09,8.13,188.57,0
983,19.11,-8.11,176.43,0
984,19.12,-36.63,128.11,0
985,19.13,-29.12,107.58,0
986,19.15,-1.92,88.4,0
987,19.16,-12.63,55.7,0
988,19.17,-43.53,54.99,0
989,19.19,-46.26,25.61,0
990,19.2,-21.98,2.67,0
991,19.21,-58.59,-9.83,0
992,19.23,-28.79,-32.93,0
993,19.24,-43.8,-47.26,0
994,19.25,-37.72,-45.49,0
995,19.27,-32.16,-68.21,0
996,19.28,-71.3,-95.17,0
997,19.29,-25.76,-97.05,0
998,19.31,-25.72,-83.12,0
999,19.32,-31.11,-86.46,0
1000,19.33,-16.64,-77.73,0
1001,19.35,2.13,-81.09,0
1002,19.36,6.2,-72.32,0
1003,19.37,-19.21,-70.83,0
1004,19.39,-12.94,-58.65,0
1005,19.4,-10.94,-72.8,0
1006,19.41,-13.74,-74.05,0
1007,19.43,-12.46,-82.2,0
1008,19.44,-6.15,-70.7,0
1009,19.45,9.08,-73.18,0
1010,19.47,8.9,-47.18,0
1011,19.48,10.78,-46.27,0
1012,19.49,28.61,-48.35,0
1013,19.51,28.97,-57.82,0
1014,19.52,0.2,-59.31,0
1015,19.53,0.43,-37.62,0
1016,19.55,-11.19,-43.02,0
1017,19.56,21.81,-33.12,0
1018,19.57,6.91,-20.49,0
1019,19.59,14.61,-15.74,0
1020,19.6,7.89,-4.95,0
1021,19.61,8.75,-12.64,0
1022,19.62,21.77,-11.82,0
1023,19.64,4.45,-17.28,0
1024,19.65,22.8,1.52,0
1025,19.67,7.6,3.43,0
1026,19.68,-1.32,0.72,0
1027,19.69,-0.13,6.75,0
1028,19.71,22.59,19.48,0
1029,19.72,33.18,8.21,0
1030,19.73,8.57,21.08,0
1031,19.75,0.53,28.59,0
1032,19.76,11.81,23.66,0
1033,19.77,12.27,21.44,0
1034,19.79,-11.83,38.35,0
1035,19.8,7.19,24.44,0
1036,19.81,29.39,31.19,0
1037,19.83,25.23,32.53,0
1038,19.84,14.57,29.14,0
1039,19.85,17.46,15.46,0
1040,19.87,14.78,25.47,0
1041,19.88,-0.11,42.78,0
1042,19.89,-16.37,20.86,0
1043,19.91,2.23,68.19,0
1044,19.92,24.93,87.88,0
1045,19.93,6.19,89.68,0
1046,19.95,-8.49,61.42,0
1047,19.96,4.58,197.71,0
1048,19.97,-9.82,201.54,0
1049,19.99,20.4,152.82,0
1050,20.0,-18.6,181.48,0
1051,20.01,32.39,230.35,0
1052,20.03,-52.21,51.35,0
1053,20.04,133.87,168.08,0
1054,20.05,27.57,89.76,0
1055,20.07,-32.36,56.98,0
1056,20.08,155.5,-1.31,0
1057,20.09,-165.26,-130.71,0
1058,20.11,187.29,-200.35,1
1059,20.12,178.59,-21.65,1
1060,20.13,-196.18,-211.05,1
1061,20.15,6.5,-279.93,1
1062,20.16,131.41,-100.18,1
1063,20.17,-57.1,-312.01,1
1064,20.19,-168.62,32.69,1
1065,20.2,32.88,-306.45,1
1066,20.21,-1.73,-393.76,1
1067,20.23,120.86,-311.22,1
1068,20.24,61.28,-814.7,1
1069,20.25,-252.26,-515.73,1
1070,20.26,-20.09,-137.7,1
1071,20.28,-152.35,367.8,1
1072,20.29,-240.23,-83.66,1
1073,20.3,-40.8,-50.58,1
1074,20.32,-127.75,-228.01,1
1075,20.33,-60.2,-194.6,1
1076,20.35,-172.74,-73.46,1
1077,20.36,-78.96,130.01,1
1078,20.37,40.71,573.09,1
1079,20.39,58.55,277.23,1
1080,20.4,13.72,664.3,1
1081,20.41,-328.25,223.19,1
1082,20.43,-49.7,193.32,1
1083,20.44,157.63,-32.38,1
1084,20.45,154.08,86.64,1
1085,20.47,134.96,127.78,1
1086,20.48,289.89,311.26,1
1087,20.49,56.51,69.55,1
1088,20.51,-24.67,54.66,1
1089,20.52,-11.06,226.48,1
1090,20.53,67.16,399.62,1
1091,20.55,-51.67,96.93,1
1092,20.56,173.13,-137.29,1
1093,20.57,93.97,-143.52,1
1094,20.59,-28.33,4.55,1
1095,20.6,231.49,333.3,1
1096,20.61,-402.72,-251.39,1
1097,20.63,-71.55,143.3,1
1098,20.64,107.45,166.39,1
1099,20.65,195.63,256.5,1
1100,20.67,-149.25,421.62,1
1101,20.68,20.89,-14.02,1
1102,20.69,39.26,173.7,1
1103,20.71,-191.95,28.51,1
1104,20.72,-9.46,-20.67,1
1105,20.73,-86.67,152.48,1
1106,20.75,-10.01,-258.0,1
1107,20.76,-37.01,-34.94,1
1108,20.77,6.4,28.4,1
1109,20.79,27.51,-410.29,1
1110,20.8,72.47,-214.52,1
1111,20.81,21.55,-326.0,1
1112,20.83,102.2,-205.18,1
1113,20.84,61.2,-322.71,1
1114,20.85,76.95,-325.28,1
1115,20.87,67.5,-286.76,1
1116,20.88,17.45,-261.39,1
1117,20.89,5.38,-254.9,1
1118,20.9,-45.04,-156.89,1
1119,20.92,13.25,-109.27,0
1120,20.93,10.48,-57.18,0
1121,20.94,40.27,-27.45,0
1122,20.96,13.88,-9.33,0
1123,20.97,27.9,27.37,0
1124,20.99,34.81,68.87,0
1125,21.0,45.37,121.87,0
1126,21.01,37.11,128.39,0
1127,21.03,27.67,175.85,0
1128,21.04,21.73,171.91,0
1129,21.05,31.56,158.98,0
1130,21.07,35.97,162.26,0
1131,21.08,23.61,171.46,0
1132,21.09,8.15,164.16,0
1133,21.11,-3.13,143.01,0
1134,21.12,6.54,127.14,0
1135,21.13,-12.96,85.67,0
1136,21.15,5.18,63.46,0
1137,21.16,-25.76,49.71,0
1138,21.17,-14.83,32.92,0
1139,21.19,-38.84,-5.21,0
1140,21.2,-22.07,-14.55,0
1141,21.21,-9.97,-19.16,0
1142,21.23,-37.52,-6.57,0
1143,21.24,-50.32,-13.64,0
1144,21.25,-28.28,-12.25,0
1145,21.27,-37.72,-20.17,0
1146,21.28,-51.0,-23.94,0
1147,21.29,-55.2,-20.7,0
1148,21.31,-43.35,-24.12,0
1149,21.32,-60.93,-41.77,0
1150,21.33,-48.04,-46.26,0
1151,21.35,-52.19,-63.5,0
1152,21.36,-23.51,-49.93,0
1153,21.37,-40.43,-43.37,0
1154,21.39,-48.05,-59.41,0
1155,21.4,-30.52,-51.52,0
1156,21.41,-12.09,-63.8,0
1157,21.43,-30.67,-50.96,0
1158,21.44,-22.22,-41.92,0
1159,21.45,-14.69,-36.0,0
1160,21.47,0.05,-50.67,0
1161,21.48,-3.83,-37.28,0
1162,21.49,-24.86,-47.39,0
1163,21.51,10.2,-12.51,0
1164,21.52,-10.58,-30.96,0
1165,21.53,10.36,-21.5,0
1166,21.54,-6.97,-13.89,0
1167,21.56,12.09,-19.62,0
1168,21.57,4.85,-8.69,0
1169,21.58,7.41,-3.35,0
1170,21.6,7.18,-17.77,0
1171,21.61,27.68,-12.07,0
1172,21.62,2.38,-11.53,0
1173,21.64,4.97,-6.17,0
1174,21.65,3.65,12.42,0
1175,21.67,34.17,-0.63,0
1176,21.68,11.26,7.72,0
1177,21.69,14.46,-4.42,0
1178,21.71,-9.63,7.18,0
1179,21.72,29.88,18.11,0
1180,21.73,22.09,0.21,0
1181,21.75,14.43,17.78,0
1182,21.76,24.0,24.53,0
1183,21.77,17.98,17.59,0
1184,21.79,-3.54,10.01,0
1185,21.8,12.15,53.74,0
1186,21.81,8.24,19.87,0
1187,21.83,31.86,26.32,0
1188,21.84,15.81,18.42,0
1189,21.85,6.59,22.08,0
1190,21.87,33.62,29.06,0
1191,21.88,15.21,11.95,0
1192,21.89,7.62,27.44,0
1193,21.91,-5.67,20.87,0
1194,21.92,25.73,22.79,0
1195,21.93,24.42,32.93,0
1196,21.95,1.9,19.3,0
1197,21.96,2.65,17.09,0
1198,21.97,-5.7,5.19,0
1199,21.99,-1.94,3.41,0
1200,22.0,0.75,12.25,0
1201,22.01,6.7,6.28,0
1202,22.03,14.32,10.54,0
1203,22.04,-44.06,13.33,0
1204,22.05,0.39,8.25,0
1205,22.07,-28.27,15.09,0
1206,22.08,29.43,18.51,0
1207,22.09,23.41,59.27,0
1208,22.11,-56.06,54.73,1
1209,22.12,-26.74,42.56,1
1210,22.13,146.13,190.74,1
1211,22.15,152.74,269.93,1
1212,22.16,119.82,119.38,1
1213,22.17,-106.85,271.3,1
1214,22.18,2.65,152.15,1
1215,22.2,-151.51,143.3,1
1216,22.21,-42.87,57.08,1
1217,22.22,113.3,20.09,1
1218,22.24,187.22,-146.28,1
1219,22.25,-93.0,-337.87,1
1220,22.26,-189.98,-223.38,1
1221,22.28,-266.88,-381.76,1
1222,22.29,-7.63,-69.54,1
1223,22.31,91.81,-333.78,1
1224,22.32,263.56,-281.92,1
1225,22.33,-189.77,-32.29,1
1226,22.35,33.18,-76.23,1
1227,22.36,-283.67,-348.63,1
1228,22.37,-88.84,-103.76,1
1229,22.39,-32.32,-645.49,1
1230,22.4,-80.09,-121.98,1
1231,22.41,-43.07,-120.07,1
1232,22.43,399.5,80.15,1
1233,22.44,254.52,109.61,1
1234,22.45,-34.68,132.27,1
1235,22.47,-14.75,53.73,1
1236,22.48,-173.2,-230.27,1
1237,22.49,-7.72,80.04,1
1238,22.51,-7.81,227.12,1
1239,22.52,308.92,143.96,1
1240,22.53,-247.15,546.57,1
1241,22.55,-270.44,134.39,1
1242,22.56,-203.34,12.59,1
1243,22.57,-71.5,-9.75,1
1244,22.59,-139.57,22.79,1
1245,22.6,199.1,31.02,1
1246,22.61,-115.54,47.8,1
1247,22.63,189.3,136.79,1
1248,22.64,25.68,234.05,1
1249,22.65,22.58,291.97,1
1250,22.67,39.85,116.95,1
1251,22.68,338.84,-38.68,1
1252,22.69,-77.58,-150.07,1
1253,22.71,170.76,69.55,1
1254,22.72,171.75,-293.58,1
1255,22.73,27.31,288.3,1
1256,22.75,96.66,-60.94,1
1257,22.76,61.82,-271.83,1
1258,22.77,47.81,42.46,1
1259,22.79,72.02,155.24,1
1260,22.8,259.06,-6.67,1
1261,22.81,-203.51,316.59,1
1262,22.82,217.04,177.47,1
1263,22.84,154.48,112.42,1
1264,22.85,-144.53,203.72,1
1265,22.86,-352.4,-208.56,1
1266,22.88,-346.87,-200.51,1
1267,22.89,37.65,-190.3,1
1268,22.9,-40.37,-106.74,1
1269,22.92,-38.71,-93.56,0
1270,22.93,-7.35,-117.99,0
1271,22.95,11.11,-139.3,0
1272,22.96,2.87,-154.96,0
1273,22.97,-15.64,-104.74,0
1274,22.99,-23.17,-102.02,0
1275,23.0,-44.46,-23.08,0
1276,23.01,-79.92,4.1,0
1277,23.03,-90.9,-5.81,0
1278,23.04,-100.95,27.04,0
1279,23.05,-65.86,22.79,0
1280,23.07,-59.53,68.61,0
1281,23.08,-76.85,92.85,0
1282,23.09,-50.39,104.51,0
1283,23.11,-21.37,122.51,0
1284,23.12,-1.82,163.4,0
1285,23.13,-8.24,158.99,0
1286,23.15,-12.31,158.67,0
1287,23.16,41.85,172.02,0
1288,23.17,10.09,127.84,0
1289,23.19,29.35,128.47,0
1290,23.2,10.25,129.88,0
1291,23.21,51.68,85.71,0
1292,23.23,54.68,61.91,0
1293,23.24,35.97,28.97,0
1294,23.25,33.04,7.8,0
1295,23.27,49.36,-15.16,0
1296,23.28,13.63,-55.02,0
1297,23.29,36.12,-53.92,0
1298,23.31,33.93,-70.75,0
1299,23.32,39.21,-68.78,0
1300,23.33,20.0,-91.95,0
1301,23.35,16.62,-88.61,0
1302,23.36,52.01,-73.95,0
1303,23.37,28.4,-77.08,0
1304,23.39,15.82,-95.11,0
1305,23.4,-5.64,-99.79,0
1306,23.41,37.28,-90.44,0
1307,23.43,15.78,-86.5,0
1308,23.44,20.26,-101.38,0
1309,23.45,15.21,-102.12,0
1310,23.46,13.09,-85.59,0
1311,23.48,5.69,-91.74,0
1312,23.49,6.03,-88.14,0
1313,23.5,12.29,-56.77,0
1314,23.52,10.06,-84.65,0
1315,23.53,0.91,-61.99,0
1316,23.54,-5.0,-60.1,0
1317,23.56,-15.72,-26.67,0
1318,23.57,28.85,-21.8,0
1319,23.59,-15.26,-19.34,0
1320,23.6,-4.12,-33.6,0
1321,23.61,-20.85,-33.62,0
1322,23.63,7.06,-27.29,0
1323,23.64,-4.64,-25.88,0
1324,23.65,-9.53,-3.29,0
1325,23.67,-33.02,-9.47,0
1326,23.68,-1.94,2.22,0
1327,23.69,-25.58,-5.6,0
1328,23.71,0.08,-9.29,0
1329,23.72,2.01,-0.17,0
1330,23.73,-16.03,2.98,0
1331,23.75,-23.19,15.74,0
1332,23.76,-20.87,28.42,0
1333,23.77,-0.39,26.08,0
1334,23.79,-12.16,32.46,0
1335,23.8,-8.75,41.93,0
1336,23.81,-16.75,38.48,0
1337,23.83,-1.33,49.97,0
1338,23.84,14.0,58.42,0
1339,23.85,2.33,42.73,0
1340,23.87,-6.71,54.26,0
1341,23.88,18.59,41.74,0
1342,23.89,-11.1,55.25,0
1343,23.91,-5.94,34.78,0
1344,23.92,-7.97,40.39,0
1345,23.93,-8.11,23.07,0
1346,23.95,-8.0,31.81,0
1347,23.96,-29.61,13.48,0
1348,23.97,-12.06,24.63,0
1349,23.99,15.38,24.25,0
1350,24.0,-4.0,38.0,0
1351,24.01,-7.69,32.63,0
1352,24.03,-28.09,28.19,0
1353,24.04,21.03,25.12,0
1354,24.05,-33.75,30.46,0
1355,24.07,-17.46,25.1,0
1356,24.08,14.05,2.51,0
1357,24.09,7.24,23.05,0
1358,24.1,1.14,13.89,1
1359,24.12,12.16,31.15,1
1360,24.13,25.96,91.9,1
1361,24.14,42.2,279.84,1
1362,24.16,49.39,299.02,1
1363,24.17,29.44,125.25,1
1364,24.18,124.73,239.19,1
1365,24.2,-84.03,21.11,1
1366,24.21,6.24,-76.43,1
1367,24.22,58.79,-207.39,1
1368,24.24,-23.52,206.11,1
1369,24.25,-181.68,-87.29,1
1370,24.27,-24.01,-311.95,1
1371,24.28,57.3,-596.07,1
1372,24.29,-48.85,-208.19,1
1373,24.31,-87.25,-407.27,1
1374,24.32,-13.29,2.72,1
1375,24.33,27.65,-20.59,1
1376,24.35,-136.41,-58.6,1
1377,24.36,89.12,-115.71,1
1378,24.37,-97.27,220.22,1
1379,24.39,80.21,-346.61,1
1380,24.4,45.28,-147.87,1
1381,24.41,27.11,-58.63,1
1382,24.43,-231.89,133.46,1
1383,24.44,-7.75,-207.93,1
1384,24.45,155.39,31.73,1
1385,24.47,-13.82,-254.91,1
1386,24.48,-6.78,520.64,1
1387,24.49,422.35,362.72,1
1388,24.51,154.35,243.07,1
1389,24.52,283.04,-131.42,1
1390,24.53,26.35,145.64,1
1391,24.55,14.31,153.67,1
1392,24.56,111.58,221.29,1
1393,24.57,87.4,-148.59,1
1394,24.59,-287.54,-29.49,1
1395,24.6,-102.63,-98.99,1
1396,24.61,-52.98,-408.3,1
1397,24.63,-115.03,-204.56,1
1398,24.64,-79.63,-112.54,1
1399,24.65,142.11,188.32,1
1400,24.67,84.58,362.84,1
1401,24.68,113.7,224.02,1
1402,24.69,62.93,-166.07,1
1403,24.71,-167.46,-290.59,1
1404,24.72,-188.46,115.99,1
1405,24.73,-212.96,388.14,1
1406,24.75,-87.01,278.5,1
1407,24.76,-297.81,38.24,1
1408,24.77,141.83,108.06,1
1409,24.78,-35.66,-192.17,1
1410,24.8,-94.3,-236.17,1
1411,24.81,-430.76,-59.94,1
1412,24.82,-363.43,-97.36,1
1413,24.84,-216.32,-172.3,1
1414,24.85,-176.52,-104.72,1
1415,24.86,-145.97,-74.99,1
1416,24.88,-150.75,-2.96,1
1417,24.89,-110.52,-28.3,1
1418,24.91,-61.73,-12.14,0
1419,24.92,1.62,-24.09,0
1420,24.93,53.76,17.98,0
1421,24.95,130.88,1.25,0
1422,24.96,221.31,-8.78,0
1423,24.97,255.73,66.18,0
1424,24.99,277.48,56.73,0
1425,25.0,290.25,89.87,0
1426,25.01,318.57,101.76,0
1427,25.03,275.38,116.74,0
1428,25.04,249.72,121.64,0
1429,25.05,242.11,116.86,0
1430,25.07,231.25,130.97,0
1431,25.08,198.85,146.73,0
1432,25.09,159.1,149.84,0
1433,25.11,135.86,126.1,0
1434,25.12,123.05,117.83,0
1435,25.13,83.33,95.23,0
1436,25.15,60.95,77.23,0
1437,25.16,27.37,33.23,0
1438,25.17,35.76,50.26,0
1439,25.19,16.55,25.06,0
1440,25.2,-18.06,13.75,0
1441,25.21,-3.08,-19.33,0
1442,25.23,-40.37,-58.35,0
1443,25.24,-83.11,-80.96,0
1444,25.25,-71.43,-71.39,0
1445,25.27,-76.37,-51.43,0
1446,25.28,-79.07,-54.5,0
1447,25.29,-93.57,-67.45,0
1448,25.31,-78.48,-50.53,0
1449,25.32,-72.3,-44.4,0
1450,25.33,-81.43,-62.07,0
1451,25.35,-74.33,-76.04,0
1452,25.36,-112.55,-62.91,0
1453,25.37,-82.07,-89.47,0
1454,25.38,-93.11,-85.25,0
1455,25.4,-72.48,-85.11,0
1456,25.41,-109.67,-83.52,0
1457,25.42,-81.43,-96.86,0
1458,25.44,-89.41,-77.7,0
1459,25.45,-82.18,-68.21,0
1460,25.46,-66.54,-54.44,0
1461,25.48,-75.27,-76.75,0
1462,25.49,-61.71,-70.2,0
1463,25.5,-72.03,-58.04,0
1464,25.52,-49.78,-53.39,0
1465,25.53,-8.77,-51.52,0
1466,25.55,-44.65,-33.58,0
1467,25.56,-52.35,-30.83,0
1468,25.57,-43.4,-30.69,0
1469,25.59,-25.04,-17.13,0
1470,25.6,-17.6,-37.61,0
1471,25.61,-19.65,-20.84,0
1472,25.63,6.24,-8.34,0
1473,25.64,-4.21,-11.69,0
1474,25.65,-11.26,0.06,0
1475,25.67,-7.55,6.2,0
1476,25.68,18.12,4.97,0
1477,25.69,12.14,17.05,0
1478,25.71,19.49,4.24,0
1479,25.72,18.0,30.81,0
1480,25.73,34.07,3.38,0
1481,25.75,0.93,31.94,0
1482,25.76,12.79,26.55,0
1483,25.77,12.23,33.05,0
1484,25.79,40.18,34.48,0
1485,25.8,43.61,47.44,0
1486,25.81,35.5,30.12,0
1487,25.83,18.52,23.91,0
1488,25.84,35.61,50.74,0
1489,25.85,25.7,44.96,0
1490,25.87,38.01,28.37,0
1491,25.88,34.16,35.56,0
1492,25.89,52.79,39.96,0
1493,25.91,28.75,20.0,0
1494,25.92,11.54,32.86,0
1495,25.93,32.96,39.28,0
1496,25.95,53.48,43.86,0
1497,25.96,28.05,19.33,0
1498,25.97,23.26,19.03,0
1499,25.99,33.38,27.67,0
1500,26.0,35.99,26.63,0
1501,26.01,33.43,-1.19,0
1502,26.02,14.92,6.12,0
1503,26.04,18.91,-2.23,0
1504,26.05,-42.27,18.15,0
1505,26.06,-16.2,32.96,0
1506,26.08,35.34,71.48,0
1507,26.09,2.09,99.54,0
1508,26.1,1.42,152.19,1
1509,26.12,4.16,34.21,1
1510,26.13,-71.99,-157.89,1
1511,26.14,-221.45,248.84,1
1512,26.16,105.14,372.7,1
1513,26.17,309.32,259.13,1
1514,26.19,140.89,212.24,1
1515,26.2,169.56,126.25,1
1516,26.21,241.78,78.0,1
1517,26.23,126.42,-33.89,1
1518,26.24,-98.15,-199.09,1
1519,26.25,90.09,-315.81,1
1520,26.27,34.56,-366.76,1
1521,26.28,-192.27,-448.52,1
1522,26.29,-300.71,60.05,1
1523,26.31,-99.43,-273.22,1
1524,26.32,-35.96,-702.59,1
1525,26.33,-319.13,4.77,1
1526,26.35,-59.88,108.03,1
1527,26.36,42.71,185.61,1
1528,26.37,-73.09,55.13,1
1529,26.39,0.9,-100.99,1
1530,26.4,138.59,-635.48,1
1531,26.41,-11.72,-119.96,1
1532,26.43,76.08,-62.43,1
1533,26.44,-140.07,-375.21,1
1534,26.45,-350.02,397.99,1
1535,26.47,-26.51,127.82,1
1536,26.48,162.44,-302.1,1
1537,26.49,-157.06,-41.75,1
1538,26.51,-60.85,392.04,1
1539,26.52,-17.97,29.73,1
1540,26.53,-7.75,97.41,1
1541,26.55,-180.69,150.79,1
1542,26.56,-3.35,99.3,1
1543,26.57,-68.62,23.37,1
1544,26.59,-12.67,-2.14,1
1545,26.6,6.35,61.62,1
1546,26.61,182.18,-402.56,1
1547,26.63,-196.18,130.39,1
1548,26.64,-163.6,652.21,1
1549,26.65,146.67,432.97,1
1550,26.67,233.97,346.94,1
1551,26.68,59.29,-183.34,1
1552,26.69,259.01,-188.58,1
1553,26.7,-125.66,-61.94,1
1554,26.72,137.74,532.02,1
1555,26.73,-159.47,49.18,1
1556,26.75,-5.39,-153.35,1
1557,26.76,-179.47,-196.55,1
1558,26.77,127.63,-146.18,1
1559,26.78,116.77,-280.43,1
1560,26.8,73.35,-31.26,1
1561,26.81,382.24,66.8,1
1562,26.83,-12.05,-0.9,1
1563,26.84,40.89,66.43,1
1564,26.85,-31.25,26.68,1
1565,26.87,43.44,-88.91,1
1566,26.88,46.2,42.06,1
1567,26.89,18.38,3.64,1
1568,26.91,95.9,65.76,0
1569,26.92,35.33,15.28,0
1570,26.93,25.46,-18.78,0
1571,26.95,45.38,27.26,0
1572,26.96,7.25,46.71,0
1573,26.97,48.77,66.96,0
1574,26.99,1.05,105.82,0
1575,27.0,5.09,129.85,0
1576,27.01,29.7,127.66,0
1577,27.03,46.12,107.31,0
1578,27.04,36.01,126.22,0
1579,27.05,-3.85,116.66,0
1580,27.07,4.75,88.47,0
1581,27.08,-0.07,69.45,0
1582,27.09,-5.82,37.3,0
1583,27.11,-19.95,31.27,0
1584,27.12,-8.03,13.81,0
1585,27.13,-37.06,3.24,0
1586,27.15,-39.68,-27.26,0
1587,27.16,-4.92,-53.25,0
1588,27.17,-8.04,-75.04,0
1589,27.19,-45.1,-83.73,0
1590,27.2,-63.51,-88.52,0
1591,27.21,-62.82,-73.42,0
1592,27.23,-51.81,-77.76,0
1593,27.24,-68.07,-79.54,0
1594,27.25,-71.96,-89.7,0
1595,27.27,-71.54,-113.59,0
1596,27.28,-36.74,-123.54,0
1597,27.29,-66.37,-97.99,0
1598,27.3,-62.54,-91.57,0
1599,27.32,-55.45,-102.72,0
1600,27.33,-31.84,-100.52,0
1601,27.34,-30.84,-86.95,0
1602,27.36,-40.47,-92.05,0
1603,27.37,-33.59,-89.55,0
1604,27.38,-20.62,-71.97,0
1605,27.4,-37.37,-44.24,0
1606,27.41,-27.04,-47.63,0
1607,27.42,-15.75,-55.68,0
1608,27.44,3.33,-43.13,0
1609,27.45,-8.73,-38.35,0
1610,27.46,-15.72,-20.5,0
1611,27.48,-15.5,-22.25,0
1612,27.49,5.29,-35.13,0
1613,27.51,-5.78,-4.38,0
1614,27.52,-13.72,-6.72,0
1615,27.53,7.1,-10.18,0
1616,27.55,11.12,-15.57,0
1617,27.56,25.84,-0.11,0
1618,27.57,19.31,10.16,0
1619,27.59,41.38,0.88,0
1620,27.6,24.3,20.66,0
1621,27.61,14.86,26.5,0
1622,27.63,13.15,41.26,0
1623,27.64,29.68,46.74,0
1624,27.65,19.24,33.27,0
1625,27.67,16.43,43.92,0
1626,27.68,7.92,53.2,0
1627,27.69,31.34,46.35,0
1628,27.71,14.3,33.5,0
1629,27.72,18.72,50.21,0
1630,27.73,6.34,53.25,0
1631,27.75,35.94,44.12,0
1632,27.76,31.01,37.66,0
1633,27.77,34.28,34.32,0
1634,27.79,15.26,29.94,0
1635,27.8,33.87,46.16,0
1636,27.81,11.77,25.14,0
1637,27.83,18.19,69.94,0
1638,27.84,9.68,33.44,0
1639,27.85,4.93,19.33,0
1640,27.87,-10.17,21.2,0
1641,27.88,2.54,18.74,0
1642,27.89,18.85,15.2,0
1643,27.91,6.5,40.84,0
1644,27.92,-8.97,17.28,0
1645,27.93,3.32,16.32,0
1646,27.94,15.72,12.0,0
1647,27.96,19.28,20.8,0
1648,27.97,1.41,10.0,0
1649,27.98,2.29,12.67,0
1650,28.0,15.07,2.42,0
1651,28.01,-13.87,-15.76,0
1652,28.02,-1.21,20.96,0
1653,28.04,-23.1,-1.73,0
1654,28.05,-48.84,13.01,0
1655,28.06,-0.54,11.05,0
1656,28.08,-9.77,16.62,0
1657,28.09,-35.61,3.47,0
1658,28.1,45.39,13.89,1
1659,28.12,-10.66,6.75,1
1660,28.13,-8.55,13.75,1
1661,28.15,12.51,37.29,1
1662,28.16,5.9,-20.6,1
1663,28.17,8.28,53.05,1
1664,28.19,-63.04,454.64,1
1665,28.2,-43.26,175.83,1
1666,28.21,240.53,162.11,1
1667,28.23,149.39,122.17,1
1668,28.24,-63.62,-115.43,1
1669,28.25,216.19,-167.98,1
1670,28.27,206.95,-98.79,1
1671,28.28,116.07,33.77,1
1672,28.29,-183.24,-22.31,1
1673,28.31,102.09,-128.47,1
1674,28.32,-73.45,69.12,1
1675,28.33,92.1,-87.95,1
1676,28.35,-324.45,-150.55,1
1677,28.36,-14.42,-94.91,1
1678,28.37,-368.95,-237.91,1
1679,28.39,18.13,-558.77,1
1680,28.4,-253.37,-247.54,1
1681,28.41,-163.33,-265.89,1
1682,28.43,-150.06,-528.46,1
1683,28.44,-247.65,-131.82,1
1684,28.45,-73.62,41.72,1
1685,28.47,-220.93,171.27,1
1686,28.48,-55.77,-230.03,1
1687,28.49,-187.3,-93.27,1
1688,28.51,24.18,-84.46,1
1689,28.52,-29.3,-140.45,1
1690,28.53,68.58,-156.35,1
1691,28.55,513.16,336.51,1
1692,28.56,149.95,-165.74,1
1693,28.57,417.79,297.0,1
1694,28.58,-7.96,161.19,1
1695,28.6,88.04,-73.02,1
1696,28.61,60.92,216.91,1
1697,28.62,355.16,212.87,1
1698,28.64,-131.14,188.0,1
1699,28.65,118.37,224.6,1
1700,28.67,14.07,311.51,1
1701,28.68,-32.85,132.71,1
1702,28.69,167.56,-146.02,1
1703,28.7,-82.33,395.65,1
1704,28.72,-286.89,117.03,1
1705,28.73,29.28,-61.02,1
1706,28.75,-86.03,306.86,1
1707,28.76,-148.66,13.3,1
1708,28.77,21.69,77.41,1
1709,28.785,78.32,-177.73,1
1710,28.8,-248.86,-111.93,1
1711,28.81,224.14,17.13,1
1712,28.83,74.05,-84.95,1
1713,28.84,49.6,29.7,1
1714,28.85,33.29,-10.75,1
1715,28.87,16.6,-108.98,1
1716,28.88,-15.45,-88.06,1
1717,28.89,-43.11,-60.6,1
1718,28.91,-25.81,8.2,0
1719,28.92,-44.18,86.48,0
1720,28.93,-40.44,62.02,0
1721,28.95,-51.45,66.06,0
1722,28.96,-20.08,4.74,0
1723,28.97,11.98,36.06,0
1724,28.99,17.26,31.37,0
1725,29.0,21.96,49.16,0
1726,29.01,31.95,26.22,0
1727,29.03,33.68,62.31,0
1728,29.04,48.3,68.77,0
1729,29.05,24.64,77.37,0
1730,29.07,24.18,83.46,0
1731,29.08,42.21,105.41,0
1732,29.09,38.92,103.96,0
1733,29.11,39.44,115.56,0
1734,29.12,18.14,91.49,0
1735,29.13,37.28,100.15,0
1736,29.15,7.12,80.54,0
1737,29.16,-3.16,36.13,0
1738,29.17,-3.42,-0.8,0
1739,29.19,22.29,3.38,0
1740,29.2,-16.78,-34.73,0
1741,29.21,-12.01,-70.48,0
1742,29.22,-20.63,-65.34,0
1743,29.24,-7.16,-68.88,0
1744,29.25,-24.14,-80.79,0
1745,29.26,-15.16,-91.27,0
1746,29.28,-28.62,-101.25,0
1747,29.29,-15.6,-115.91,0
1748,29.3,-45.07,-112.43,0
1749,29.32,-73.19,-121.66,0
1750,29.33,-50.57,-112.46,0
1751,29.34,-18.22,-87.59,0
1752,29.36,-10.52,-79.31,0
1753,29.37,-27.64,-112.75,0
1754,29.38,8.71,-94.49,0
1755,29.4,-10.71,-111.71,0
1756,29.41,-10.9,-89.18,0
1757,29.42,-25.46,-109.31,0
1758,29.44,1.79,-87.39,0
1759,29.45,-0.56,-96.8,0
1760,29.47,-5.24,-61.26,0
1761,29.48,-23.11,-70.18,0
1762,29.49,-0.3,-53.65,0
1763,29.51,-9.14,-41.91,0
1764,29.52,-4.02,-36.75,0
1765,29.53,-21.38,-35.29,0
1766,29.55,-3.73,-29.04,0
1767,29.56,-6.44,-0.11,0
1768,29.57,-14.33,-9.01,0
1769,29.59,-1.48,2.14,0
1770,29.6,9.42,5.66,0
1771,29.61,-11.96,7.12,0
1772,29.63,-15.98,12.25,0
1773,29.64,-11.17,32.58,0
1774,29.65,24.23,40.92,0
1775,29.67,-1.26,32.77,0
1776,29.68,-4.72,21.12,0
1777,29.69,-11.09,33.16,0
1778,29.71,-3.39,25.85,0
1779,29.72,-1.63,36.31,0
1780,29.73,5.71,49.61,0
1781,29.75,18.98,43.01,0
1782,29.76,10.64,56.93,0
1783,29.77,7.75,30.6,0
1784,29.79,5.63,54.89,0
1785,29.8,18.09,42.63,0
1786,29.81,16.55,33.88,0
1787,29.83,-6.13,45.04,0
1788,29.84,7.61,49.28,0
1789,29.85,18.14,38.12,0
1790,29.86,24.2,55.97,0
1791,29.88,-0.92,23.53,0
1792,29.89,-15.81,41.2,0
1793,29.9,0.11,41.81,0
1794,29.92,11.39,39.69,0
1795,29.93,4.97,25.23,0
1796,29.94,11.81,29.47,0
1797,29.96,10.54,25.85,0
1798,29.97,11.99,47.78,0
1799,29.98,9.67,39.91,0
1800,30.0,10.26,29.35,0
1801,30.01,28.21,13.29,0
1802,30.02,-5.3,12.26,0
1803,30.04,-14.64,34.46,0
1804,30.05,-69.0,26.3,0
1805,30.06,29.17,17.12,0
1806,30.08,-18.76,-7.59,0
1807,30.09,13.96,12.31,0
1808,30.11,46.42,14.73,1
1809,30.12,-10.04,55.73,1
1810,30.13,20.69,115.69,1
1811,30.15,21.97,44.28,1
1812,30.16,98.83,51.21,1
1813,30.17,268.75,260.0,1
1814,30.19,50.01,299.3,1
1815,30.2,-135.62,189.67,1
1816,30.21,42.36,133.88,1
1817,30.23,-43.26,64.94,1
1818,30.24,-14.6,36.26,1
1819,30.25,95.26,-155.57,1
1820,30.27,-24.23,-260.28,1
1821,30.28,48.83,31.13,1
1822,30.29,-220.93,-172.13,1
1823,30.31,-160.65,-260.26,1
1824,30.32,-197.97,-116.15,1
1825,30.33,-45.53,-268.09,1
1826,30.35,-233.34,-471.96,1
1827,30.36,146.5,-357.38,1
1828,30.37,-78.19,-252.8,1
1829,30.39,120.94,-183.59,1
1830,30.4,276.14,-171.71,1
1831,30.41,-242.94,-80.62,1
1832,30.43,6.56,-286.29,1
1833,30.44,-34.64,-60.38,1
1834,30.45,26.61,-147.71,1
1835,30.47,292.72,-51.37,1
1836,30.48,-198.54,-209.68,1
1837,30.49,101.24,566.21,1
1838,30.5,-31.73,1.59,1
1839,30.52,126.44,-114.22,1
1840,30.53,291.32,121.11,1
1841,30.54,54.52,121.54,1
1842,30.56,-398.02,-213.72,1
1843,30.57,237.78,-13.66,1
1844,30.58,-69.56,15.64,1
1845,30.6,-81.7,255.4,1
1846,30.61,68.64,407.65,1
1847,30.62,-117.89,-163.04,1
1848,30.64,240.47,98.1,1
1849,30.65,-168.66,486.38,1
1850,30.67,54.96,-12.18,1
1851,30.68,3.17,-3.83,1
1852,30.69,58.06,-108.34,1
1853,30.7,46.62,-319.63,1
1854,30.72,7.79,-99.73,1
1855,30.73,32.09,194.89,1
1856,30.75,91.58,653.33,1
1857,30.76,-306.2,472.58,1
1858,30.77,-240.58,27.02,1
1859,30.79,-397.61,105.56,1
1860,30.8,-143.6,380.51,1
1861,30.81,-427.93,104.29,1
1862,30.83,27.1,78.91,1
1863,30.84,-142.51,-103.96,1
1864,30.85,-139.49,45.03,1
1865,30.87,-100.95,-79.44,1
1866,30.88,-68.6,-65.32,1
1867,30.89,-13.93,-162.9,1
1868,30.91,15.73,-175.1,0
1869,30.92,51.38,-151.51,0
1870,30.93,99.91,-168.56,0
1871,30.95,150.86,-126.61,0
1872,30.96,202.5,-104.35,0
1873,30.97,212.45,-72.41,0
1874,30.99,246.97,-24.92,0
1875,31.0,251.68,9.63,0
1876,31.01,253.57,59.37,0
1877,31.03,241.85,108.83,0
1878,31.04,235.21,123.56,0
1879,31.05,194.21,139.98,0
1880,31.07,166.3,140.13,0
1881,31.08,142.02,155.2,0
1882,31.09,134.25,142.95,0
1883,31.11,103.93,112.36,0
1884,31.12,72.75,96.67,0
1885,31.13,52.02,59.84,0
1886,31.14,37.79,41.52,0
1887,31.16,23.05,10.51,0
1888,31.17,-13.41,-20.33,0
1889,31.18,-31.31,-4.13,0
1890,31.2,-30.69,-29.47,0
1891,31.21,-52.69,-40.92,0
1892,31.22,-48.77,-68.52,0
1893,31.24,-45.36,-60.81,0
1894,31.25,-81.7,-92.98,0
1895,31.26,-91.15,-110.77,0
1896,31.28,-92.83,-106.04,0
1897,31.29,-77.85,-127.75,0
1898,31.3,-99.96,-90.08,0
1899,31.32,-96.31,-88.01,0
1900,31.33,-107.13,-86.55,0
1901,31.34,-90.78,-86.57,0
1902,31.36,-96.64,-94.12,0
1903,31.37,-91.38,-94.9,0
1904,31.39,-93.88,-100.53,0
1905,31.4,-85.06,-81.91,0
1906,31.41,-76.02,-77.12,0
1907,31.43,-85.37,-79.93,0
1908,31.44,-63.11,-68.1,0
1909,31.45,-60.84,-66.78,0
1910,31.47,-70.65,-63.42,0
1911,31.48,-64.36,-42.23,0
1912,31.49,-56.44,-46.82,0
1913,31.51,-26.86,-47.36,0
1914,31.52,-42.66,-14.09,0
1915,31.53,-30.45,-14.75,0
1916,31.55,-36.38,-20.45,0
1917,31.56,-2.11,-24.81,0
1918,31.57,-12.8,-20.51,0
1919,31.59,-10.31,-9.39,0
1920,31.6,5.24,2.07,0
1921,31.61,2.63,29.65,0
1922,31.63,-2.69,19.26,0
1923,31.64,12.74,27.46,0
1924,31.65,5.72,35.6,0
1925,31.67,15.32,13.8,0
1926,31.68,11.7,40.93,0
1927,31.69,19.18,29.74,0
1928,31.71,38.91,38.34,0
1929,31.72,18.56,39.1,0
1930,31.73,30.77,27.79,0
1931,31.75,21.44,41.38,0
1932,31.76,40.76,37.43,0
1933,31.77,45.12,41.22,0
1934,31.78,30.09,40.15,0
1935,31.8,20.27,38.29,0
1936,31.81,46.99,49.53,0
1937,31.82,44.75,40.53,0
1938,31.84,26.15,29.44,0
1939,31.85,15.86,44.34,0
1940,31.86,23.41,41.84,0
1941,31.88,20.65,29.42,0
1942,31.89,36.3,28.42,0
1943,31.9,22.53,42.56,0
1944,31.92,38.72,25.91,0
1945,31.93,17.39,13.38,0
1946,31.94,24.57,41.24,0
1947,31.96,24.32,29.46,0
1948,31.97,32.38,27.1,0
1949,31.98,20.24,23.35,0
1950,32.0,18.3,29.45,0
1951,32.01,15.59,38.27,0
1952,32.03,31.9,48.05,0
1953,32.04,-6.46,90.19,0
1954,32.05,-45.0,138.26,0
1955,32.07,-10.42,262.17,0
1956,32.08,9.91,273.01,0
1957,32.09,50.59,20.12,0
1958,32.11,-59.41,153.27,1
1959,32.12,16.8,111.93,1
1960,32.13,-240.83,-10.04,1
1961,32.15,30.59,131.41,1
1962,32.16,63.8,14.3,1
1963,32.17,-35.51,-32.61,1
1964,32.19,120.45,-244.92,1
1965,32.2,353.31,-264.17,1
1966,32.21,188.1,-16.5,1
1967,32.23,154.77,-243.3,1
1968,32.24,213.1,-161.85,1
1969,32.25,45.26,-146.78,1
1970,32.27,-228.94,-389.39,1
1971,32.28,-51.51,-263.32,1
1972,32.29,-285.43,-390.93,1
1973,32.31,202.59,-30.61,1
1974,32.32,-283.38,-455.14,1
1975,32.33,-179.61,-564.11,1
1976,32.35,-218.29,-79.07,1
1977,32.36,-103.95,74.29,1
1978,32.37,-93.98,18.99,1
1979,32.39,-177.97,-258.81,1
1980,32.4,-111.76,367.87,1
1981,32.41,-21.71,-141.38,1
1982,32.43,145.1,59.06,1
1983,32.44,-231.73,-30.73,1
1984,32.45,174.85,-180.79,1
1985,32.47,-134.7,75.31,1
1986,32.48,154.68,397.44,1
1987,32.49,76.2,255.07,1
1988,32.51,-123.38,12.75,1
1989,32.52,29.8,240.4,1
1990,32.53,-13.16,31.28,1
1991,32.54,51.64,-32.66,1
1992,32.56,162.63,250.07,1
1993,32.57,-5.89,104.99,1
1994,32.59,8.61,393.82,1
1995,32.6,-80.98,296.38,1
1996,32.61,138.29,12.02,1
1997,32.63,169.19,392.98,1
1998,32.64,157.39,343.23,1
1999,32.65,-165.54,515.96,1
2000,32.67,9.66,2.76,1
2001,32.68,-325.82,45.42,1
2002,32.69,4.73,224.84,1
2003,32.71,-208.39,16.04,1
2004,32.72,282.61,-193.41,1
2005,32.73,-57.01,57.25,1
2006,32.75,76.23,-152.34,1
2007,32.76,102.78,-108.41,1
2008,32.77,86.74,-71.81,1
2009,32.79,112.43,-136.95,1
2010,32.8,39.05,-143.57,1
2011,32.81,46.17,-137.5,1
2012,32.83,10.69,-176.13,1
2013,32.84,6.31,-197.12,1
2014,32.85,-24.39,-171.61,1
2015,32.87,-50.5,-154.17,1
2016,32.88,-34.89,-147.39,1
2017,32.89,0.87,-119.32,1
2018,32.91,23.97,-42.73,0
2019,32.92,38.25,-28.22,0
2020,32.93,43.27,-12.27,0
2021,32.95,80.74,36.04,0
2022,32.96,47.33,47.55,0
2023,32.97,52.53,96.3,0
2024,32.99,33.0,91.86,0
2025,33.0,53.46,126.35,0
2026,33.01,25.35,118.94,0
2027,33.03,16.22,124.44,0
2028,33.04,17.01,106.03,0
2029,33.05,34.0,72.97,0
2030,33.06,2.31,73.93,0
2031,33.08,-24.76,54.2,0
2032,33.09,-31.47,21.21,0
2033,33.11,-11.41,14.64,0
2034,33.12,-16.12,-19.32,0
2035,33.13,-23.84,-19.37,0
2036,33.15,-10.69,-46.11,0
2037,33.16,-39.71,-39.33,0
2038,33.17,-31.21,-50.17,0
2039,33.19,-44.78,-68.86,0
2040,33.2,-37.02,-73.52,0
2041,33.21,-53.44,-76.25,0
2042,33.22,-52.89,-59.28,0
2043,33.24,-43.58,-72.48,0
2044,33.25,-40.89,-58.24,0
2045,33.27,-41.89,-51.17,0
2046,33.28,-61.05,-48.9,0
2047,33.29,-52.51,-64.68,0
2048,33.31,-17.31,-73.41,0
2049,33.32,-26.41,-53.44,0
2050,33.33,-40.11,-58.1,0
2051,33.35,-27.18,-55.45,0
2052,33.36,-16.26,-48.54,0
2053,33.37,-23.76,-57.55,0
2054,33.39,-27.3,-39.79,0
2055,33.4,-9.03,-44.44,0
2056,33.41,-22.38,-29.31,0
2057,33.43,-12.83,-29.48,0
2058,33.44,-16.16,-36.01,0
2059,33.45,-4.7,-26.41,0
2060,33.47,8.19,-35.47,0
2061,33.48,-12.75,-2.56,0
2062,33.49,-4.39,4.91,0
2063,33.51,17.81,-8.16,0
2064,33.52,8.48,15.06,0
2065,33.53,-5.66,17.41,0
2066,33.55,-7.07,24.34,0
2067,33.56,25.79,23.74,0
2068,33.57,13.9,25.44,0
2069,33.59,9.71,38.62,0
2070,33.6,10.87,35.4,0
2071,33.61,22.31,25.84,0
2072,33.63,4.76,20.68,0
2073,33.64,4.06,26.57,0
2074,33.65,22.02,24.61,0
2075,33.67,30.95,26.95,0
2076,33.68,7.83,28.41,0
2077,33.69,-3.1,30.59,0
2078,33.71,-4.16,38.37,0
2079,33.72,43.82,31.92,0
2080,33.73,24.44,24.82,0
2081,33.75,28.73,41.57,0
2082,33.76,22.81,21.16,0
2083,33.77,37.24,13.39,0
2084,33.79,37.14,35.4,0
2085,33.8,13.91,29.17,0
2086,33.81,10.15,19.78,0
2087,33.83,26.1,20.18,0
2088,33.84,-3.98,24.7,0
2089,33.85,13.04,7.32,0
2090,33.87,25.48,14.43,0
2091,33.88,18.3,28.91,0
2092,33.89,-0.94,30.31,0
2093,33.9,4.61,0.76,0
2094,33.92,14.76,15.27,0
2095,33.93,-1.88,46.34,0
2096,33.95,-6.51,37.62,0
2097,33.96,-7.33,20.75,0
2098,33.97,10.91,6.62,0
2099,33.99,-7.79,6.71,0
2100,34.0,-4.74,-9.13,0
2101,34.01,1.36,3.7,0
2102,34.03,-7.61,7.1,0
2103,34.04,-14.92,-0.77,0
2104,34.05,-35.31,1.05,0
2105,34.07,-21.35,-7.65,0
2106,34.08,-14.37,-32.97,0
2107,34.09,10.48,-10.5,0
2108,34.11,-11.83,-15.87,1
2109,34.12,8.78,-6.79,1
2110,34.13,32.12,42.15,1
2111,34.15,14.84,110.68,1
2112,34.16,23.6,222.32,1
2113,34.17,-1.31,237.33,1
2114,34.19,90.24,60.19,1
2115,34.2,-38.19,-37.95,1
2116,34.21,-289.3,252.67,1
2117,34.23,-67.84,40.23,1
2118,34.24,174.81,144.89,1
2119,34.25,316.58,29.12,1
2120,34.27,162.5,9.56,1
2121,34.28,125.08,-99.2,1
2122,34.29,-54.92,-187.13,1
2123,34.31,-224.6,-88.11,1
2124,34.32,-52.12,-373.3,1
2125,34.33,17.37,-615.99,1
2126,34.35,-5.38,-503.64,1
2127,34.36,55.52,-19.72,1
2128,34.37,-120.43,-706.8,1
2129,34.38,-392.16,-58.16,1
2130,34.4,108.28,-66.84,1
2131,34.41,43.39,-462.57,1
2132,34.43,-213.01,20.61,1
2133,34.44,-50.02,-3.07,1
2134,34.45,-177.34,-42.21,1
2135,34.47,15.07,415.57,1
2136,34.48,-26.3,250.36,1
2137,34.49,237.34,160.57,1
2138,34.51,89.14,388.48,1
2139,34.52,-36.26,-62.29,1
2140,34.53,50.05,-29.95,1
2141,34.54,155.73,-313.18,1
2142,34.56,259.3,-177.21,1
2143,34.57,-174.31,291.34,1
2144,34.59,46.61,205.78,1
2145,34.6,-136.15,188.27,1
2146,34.61,-78.21,-90.75,1
2147,34.63,-289.86,37.8,1
2148,34.64,-14.41,102.15,1
2149,34.65,-268.26,181.05,1
2150,34.67,123.89,452.89,1
2151,34.68,-39.84,123.89,1
2152,34.69,26.15,506.3,1
2153,34.71,-0.24,35.58,1
2154,34.72,-149.88,-110.41,1
2155,34.73,117.2,-306.36,1
2156,34.75,219.86,-15.5,1
2157,34.76,35.36,-32.28,1
2158,34.77,-7.92,478.71,1
2159,34.79,227.48,-65.47,1
2160,34.8,95.66,130.66,1
2161,34.81,76.12,-340.05,1
2162,34.83,20.48,-171.16,1
2163,34.84,427.72,116.46,1
2164,34.85,-45.43,-281.68,1
2165,34.87,188.18,42.5,1
2166,34.88,34.24,39.05,1
2167,34.89,12.25,67.35,1
2168,34.91,-7.98,-10.43,0
2169,34.92,-32.86,-11.91,0
2170,34.93,13.75,-47.57,0
2171,34.95,-49.21,-153.26,0
2172,34.96,-28.91,-91.43,0
2173,34.97,-87.72,-49.0,0
2174,34.99,-91.67,-58.68,0
2175,35.0,-74.2,-42.64,0
2176,35.01,-67.54,-0.19,0
2177,35.03,-47.45,100.35,0
2178,35.04,-65.56,157.07,0
2179,35.05,-35.74,185.27,0
2180,35.06,-45.87,162.89,0
2181,35.08,-29.12,170.44,0
2182,35.09,-21.38,159.58,0
2183,35.11,-28.83,141.49,0
2184,35.12,-25.83,70.51,0
2185,35.13,-27.69,57.53,0
2186,35.15,-3.84,56.16,0
2187,35.16,10.5,-0.73,0
2188,35.17,-14.03,12.38,0
2189,35.19,-10.16,-21.25,0
2190,35.2,-34.83,-45.5,0
2191,35.21,11.25,-52.37,0
2192,35.22,-1.03,-53.36,0
2193,35.24,-19.41,-68.56,0
2194,35.25,-7.74,-64.8,0
2195,35.27,-3.41,-72.23,0
2196,35.28,0.36,-87.28,0
2197,35.29,-12.98,-97.5,0
2198,35.31,-4.92,-97.54,0
2199,35.32,0.04,-116.0,0
2200,35.33,-19.7,-91.14,0
2201,35.35,3.95,-107.64,0
2202,35.36,12.34,-123.89,0
2203,35.37,2.33,-94.89,0
2204,35.39,-7.88,-91.85,0
2205,35.4,-5.8,-89.02,0
2206,35.41,18.17,-98.14,0
2207,35.43,10.2,-63.79,0
2208,35.44,-13.79,-55.45,0
2209,35.45,-0.55,-61.09,0
2210,35.47,16.28,-49.63,0
2211,35.48,32.44,-41.54,0
2212,35.49,12.01,-23.52,0
2213,35.51,2.82,-34.6,0
2214,35.52,11.57,-32.25,0
2215,35.53,1.51,-19.65,0
2216,35.55,15.18,6.7,0
2217,35.56,1.77,-13.15,0
2218,35.57,6.04,8.39,0
2219,35.59,-18.71,3.75,0
2220,35.6,-3.35,2.7,0
2221,35.61,6.29,16.08,0
2222,35.63,31.78,2.85,0
2223,35.64,13.23,27.47,0
2224,35.65,-8.14,38.64,0
2225,35.67,-10.08,47.89,0
2226,35.68,18.35,33.94,0
2227,35.69,0.97,50.0,0
2228,35.71,1.94,59.38,0
2229,35.72,-12.32,34.87,0
2230,35.73,11.67,20.16,0
2231,35.75,5.72,22.12,0
2232,35.76,28.17,56.75,0
2233,35.77,23.83,60.57,0
2234,35.79,0.39,24.44,0
2235,35.8,-5.99,30.11,0
2236,35.81,-10.69,56.06,0
2237,35.83,25.37,43.83,0
2238,35.84,12.89,30.82,0
2239,35.85,-12.8,43.67,0
2240,35.87,-13.12,26.62,0
2241,35.88,-0.38,39.65,0
2242,35.89,3.78,17.7,0
2243,35.9,-2.79,13.1,0
2244,35.92,-21.37,27.61,0
2245,35.93,17.97,4.94,0
2246,35.95,-15.9,19.3,0
2247,35.96,9.55,5.7,0
2248,35.97,-5.03,32.93,0
2249,35.99,16.9,15.9,0
2250,36.0,-5.8,10.45,0
2251,36.01,-9.35,5.82,0
2252,36.03,-4.38,8.88,0
2253,36.04,11.08,10.77,0
2254,36.05,-36.59,27.85,0
2255,36.07,-25.18,8.12,0
2256,36.08,5.38,19.63,0
2257,36.09,4.87,50.87,0
2258,36.11,3.51,226.94,1
2259,36.12,21.6,277.74,1
2260,36.13,119.59,175.05,1
2261,36.15,49.45,196.9,1
2262,36.16,196.53,-134.47,1
2263,36.17,59.4,-46.5,1
2264,36.19,32.15,219.86,1
2265,36.2,-70.2,69.08,1
2266,36.21,-91.83,5.63,1
2267,36.23,81.11,-102.39,1
2268,36.24,-50.99,-255.56,1
2269,36.25,-194.31,-279.86,1
2270,36.27,56.99,-168.19,1
2271,36.28,-168.64,-473.02,1
2272,36.29,-239.27,141.37,1
2273,36.31,-120.02,-550.99,1
2274,36.32,218.09,-400.36,1
2275,36.33,-81.71,105.22,1
2276,36.35,-231.74,-74.44,1
2277,36.36,-321.18,-161.14,1
2278,36.37,-6.96,4.91,1
2279,36.38,193.83,218.42,1
2280,36.4,209.07,-209.74,1
2281,36.41,-56.03,-291.79,1
2282,36.43,243.73,-15.94,1
2283,36.44,-64.13,-195.72,1
2284,36.45,-203.75,-212.64,1
2285,36.47,128.98,97.25,1
2286,36.48,18.42,-297.7,1
2287,36.49,-74.49,5.44,1
2288,36.51,29.82,241.75,1
2289,36.52,213.91,-141.79,1
2290,36.53,23.63,177.46,1
2291,36.54,194.01,660.65,1
2292,36.56,-174.01,137.09,1
2293,36.57,363.03,135.8,1
2294,36.59,-354.15,-33.07,1
2295,36.6,46.61,12.65,1
2296,36.61,43.56,-42.18,1
2297,36.63,136.12,573.76,1
2298,36.64,-170.6,437.81,1
2299,36.65,117.19,123.8,1
2300,36.67,257.27,264.59,1
2301,36.68,-71.59,151.3,1
2302,36.69,-130.44,55.65,1
2303,36.71,145.79,399.32,1
2304,36.72,-151.07,-90.59,1
2305,36.73,96.68,62.7,1
2306,36.75,-67.22,-246.88,1
2307,36.76,-58.79,-357.12,1
2308,36.77,-61.28,-85.97,1
2309,36.79,-96.42,-79.15,1
2310,36.8,-0.67,-21.68,1
2311,36.81,-97.56,-315.84,1
2312,36.83,-164.7,229.3,1
2313,36.84,-51.95,192.55,1
2314,36.85,222.27,24.67,1
2315,36.87,59.17,-68.11,1
2316,36.88,186.32,-4.73,1
2317,36.89,-68.9,-15.82,1
2318,36.9,50.12,-152.94,1
2319,36.92,-80.92,-149.36,0
2320,36.93,78.34,-93.53,0
2321,36.95,14.64,-107.52,0
2322,36.96,21.02,-38.04,0
2323,36.97,0.59,-41.22,0
2324,36.99,-3.93,-80.97,0
2325,37.0,-24.78,-77.26,0
2326,37.01,-15.17,-41.52,0
2327,37.03,-28.48,14.29,0
2328,37.04,-27.2,28.88,0
2329,37.05,-23.78,60.43,0
2330,37.06,6.97,83.43,0
2331,37.08,5.67,105.14,0
2332,37.09,-4.79,108.46,0
2333,37.11,13.28,123.59,0
2334,37.12,28.24,112.61,0
2335,37.13,32.61,61.3,0
2336,37.15,14.87,76.31,0
2337,37.16,6.52,43.36,0
2338,37.17,35.32,35.9,0
2339,37.19,25.15,33.27,0
2340,37.2,4.77,11.1,0
2341,37.21,-12.81,1.29,0
2342,37.22,16.27,-13.27,0
2343,37.24,-7.44,4.2,0
2344,37.25,-3.03,-34.38,0
2345,37.27,38.94,-40.22,0
2346,37.28,2.81,-64.32,0
2347,37.29,-4.49,-56.22,0
2348,37.31,-23.04,-84.04,0
2349,37.32,-12.1,-76.74,0
2350,37.33,-37.95,-52.07,0
2351,37.35,-50.61,-70.98,0
2352,37.36,-36.64,-74.26,0
2353,37.37,-24.76,-91.25,0
2354,37.39,-22.49,-80.52,0
2355,37.4,-36.14,-72.45,0
2356,37.41,-42.23,-68.55,0
2357,37.43,-21.23,-50.85,0
2358,37.44,-26.84,-25.93,0
2359,37.45,-34.53,-54.82,0
2360,37.47,-28.69,-53.19,0
2361,37.48,1.01,-46.74,0
2362,37.49,-4.3,-47.94,0
2363,37.51,-11.88,-31.17,0
2364,37.52,-8.44,-27.42,0
2365,37.53,11.03,-6.01,0
2366,37.54,-5.04,-9.3,0
2367,37.56,1.06,-8.37,0
2368,37.57,-16.99,-8.18,0
2369,37.59,19.64,-10.63,0
2370,37.6,14.58,-19.93,0
2371,37.61,-14.92,7.44,0
2372,37.63,21.36,24.69,0
2373,37.64,10.18,15.52,0
2374,37.65,18.43,24.23,0
2375,37.67,11.94,12.9,0
2376,37.68,10.37,27.02,0
2377,37.69,14.88,29.54,0
2378,37.71,9.74,10.91,0
2379,37.72,11.08,41.36,0
2380,37.73,13.29,42.33,0
2381,37.75,18.57,37.71,0
2382,37.76,11.02,41.16,0
2383,37.77,-10.84,19.34,0
2384,37.79,24.79,44.49,0
2385,37.8,7.98,28.46,0
2386,37.81,13.42,31.59,0
2387,37.83,-13.43,29.41,0
2388,37.84,18.98,21.21,0
2389,37.85,10.28,15.66,0
2390,37.87,2.4,23.78,0
2391,37.88,-1.64,25.37,0
2392,37.89,22.67,11.51,0
2393,37.91,-18.71,24.39,0
2394,37.92,-14.88,29.41,0
2395,37.93,-4.67,21.13,0
2396,37.95,29.64,7.94,0
2397,37.96,3.2,7.71,0
2398,37.97,9.52,13.94,0
2399,37.99,19.7,15.76,0
2400,38.0,2.6,9.5,0
2401,38.01,-4.5,3.54,0
2402,38.03,-19.83,16.28,0
2403,38.04,7.47,18.27,0
2404,38.05,-0.6,14.51,0
2405,38.07,-37.72,26.24,0
2406,38.08,4.62,16.78,0
2407,38.09,-21.8,2.49,0
2408,38.11,4.03,70.5,1
2409,38.12,18.31,139.98,1
2410,38.13,4.46,142.68,1
2411,38.15,77.47,236.88,1
2412,38.16,130.29,285.7,1
2413,38.17,115.48,89.18,1
2414,38.19,224.64,111.0,1
2415,38.2,-142.04,157.28,1
2416,38.21,-170.06,1.82,1
2417,38.22,43.98,-99.57,1
2418,38.24,-56.9,55.95,1
2419,38.25,-162.79,-72.78,1
2420,38.27,334.71,-279.35,1
2421,38.28,142.84,-493.07,1
2422,38.29,124.57,-20.16,1
2423,38.31,-153.2,-254.42,1
2424,38.32,-8.7,-693.94,1
2425,38.33,-280.63,-592.08,1
2426,38.35,-264.34,-120.56,1
2427,38.36,-76.89,82.64,1
2428,38.37,-279.73,-4.91,1
2429,38.38,15.04,-159.38,1
2430,38.4,-285.23,-246.56,1
2431,38.41,53.63,-240.09,1
2432,38.43,88.07,-68.85,1
2433,38.44,-42.06,334.33,1
2434,38.45,-139.89,-402.07,1
2435,38.47,22.52,47.08,1
2436,38.48,-136.6,283.04,1
2437,38.49,-216.32,268.85,1
2438,38.51,58.4,101.41,1
2439,38.52,-53.76,373.28,1
2440,38.53,365.5,343.38,1
2441,38.55,225.51,352.86,1
2442,38.56,-4.79,179.46,1
2443,38.57,155.7,47.95,1
2444,38.59,-219.5,-191.8,1
2445,38.6,304.07,21.59,1
2446,38.61,-125.85,395.25,1
2447,38.63,219.04,-188.58,1
2448,38.64,269.26,-260.14,1
2449,38.65,151.09,-232.48,1
2450,38.67,10.91,285.56,1
2451,38.68,-263.35,122.48,1
2452,38.69,102.61,-39.27,1
2453,38.71,163.52,150.64,1
2454,38.72,-303.17,26.36,1
2455,38.73,-149.81,212.86,1
2456,38.75,61.79,-464.99,1
2457,38.76,143.15,201.82,1
2458,38.77,156.48,170.69,1
2459,38.79,253.53,-4.18,1
2460,38.8,35.17,-267.86,1
2461,38.81,88.43,-65.59,1
2462,38.83,100.07,4.65,1
2463,38.84,31.75,-12.98,1
2464,38.85,73.79,-15.42,1
2465,38.87,-21.65,-137.1,1
2466,38.88,-98.69,44.52,1
2467,38.89,-108.35,-10.56,1
2468,38.9,-202.6,76.87,1
2469,38.92,-138.8,14.47,0
2470,38.93,-121.05,-22.06,0
2471,38.95,-77.9,3.16,0
2472,38.96,-26.58,19.8,0
2473,38.97,12.46,32.56,0
2474,38.99,22.4,75.01,0
2475,39.0,33.8,84.71,0
2476,39.01,23.78,91.5,0
2477,39.03,44.73,110.61,0
2478,39.04,13.73,113.79,0
2479,39.05,7.01,114.0,0
2480,39.06,5.74,97.0,0
2481,39.08,21.18,117.07,0
2482,39.09,6.81,103.91,0
2483,39.11,-11.49,69.38,0
2484,39.12,2.71,59.56,0
2485,39.13,-9.61,16.11,0
2486,39.15,1.66,8.33,0
2487,39.16,-29.98,-7.41,0
2488,39.17,-22.96,-19.62,0
2489,39.19,-38.02,-42.0,0
2490,39.2,-40.45,-65.64,0
2491,39.21,-43.09,-67.71,0
2492,39.23,-25.09,-58.34,0
2493,39.24,-47.35,-55.77,0
2494,39.25,-23.33,-63.26,0
2495,39.27,-38.46,-88.27,0
2496,39.28,6.37,-95.8,0
2497,39.29,-14.02,-78.25,0
2498,39.31,-41.61,-83.46,0
2499,39.32,-37.06,-102.92,0
2500,39.33,-8.66,-120.52,0
2501,39.35,-17.24,-93.11,0
2502,39.36,-14.12,-104.07,0
2503,39.37,-28.44,-89.19,0
2504,39.39,5.55,-59.13,0
2505,39.4,-11.17,-68.72,0
2506,39.41,2.62,-62.55,0
2507,39.43,7.3,-56.13,0
2508,39.44,-3.09,-65.15,0
2509,39.45,-9.39,-37.23,0
2510,39.47,0.85,-48.85,0
2511,39.48,-6.33,-39.18,0
2512,39.49,27.43,-44.44,0
2513,39.51,5.15,-14.03,0
2514,39.52,-1.86,-25.92,0
2515,39.53,26.71,-4.54,0
2516,39.54,23.97,-24.07,0
2517,39.56,15.69,7.38,0
2518,39.57,17.98,13.63,0
2519,39.59,28.58,-5.92,0
2520,39.6,9.97,8.65,0
2521,39.61,0.27,28.06,0
2522,39.63,7.32,25.18,0
2523,39.64,10.23,16.86,0
2524,39.65,-7.4,41.97,0
2525,39.67,5.51,40.31,0
2526,39.68,14.01,33.29,0
2527,39.69,34.27,26.86,0
2528,39.71,13.27,27.08,0
2529,39.72,9.87,20.4,0
2530,39.73,4.62,30.23,0
2531,39.75,26.09,32.77,0
2532,39.76,17.84,52.86,0
2533,39.77,-0.05,37.49,0
2534,39.79,-6.11,24.14,0
2535,39.8,16.14,46.33,0
2536,39.81,7.22,39.09,0
2537,39.83,-1.24,33.42,0
2538,39.84,-2.02,19.81,0
2539,39.85,3.26,36.01,0
2540,39.87,-4.63,37.76,0
2541,39.88,17.7,16.84,0
2542,39.89,39.18,31.03,0
2543,39.91,30.51,41.8,0
2544,39.92,-2.16,19.99,0
2545,39.93,-19.88,22.57,0
2546,39.95,24.62,19.03,0
2547,39.96,-2.92,17.33,0
2548,39.97,-7.18,24.81,0
2549,39.99,-12.35,5.75,0
2550,40.0,8.54,16.91,0
2551,40.01,-1.59,5.15,0
2552,40.03,-2.83,2.59,0
2553,40.04,-4.57,1.35,0
2554,40.05,3.74,15.19,0
2555,40.07,-34.16,10.82,0
2556,40.08,-22.51,-2.07,0
2557,40.09,-21.24,-17.81,0
2558,40.11,30.35,18.41,1
2559,40.12,-17.62,36.34,1
2560,40.13,-1.15,86.55,1
2561,40.15,28.83,110.23,1
2562,40.16,79.67,-77.08,1
2563,40.17,88.43,33.65,1
2564,40.19,-136.32,284.91,1
2565,40.2,-99.24,291.73,1
2566,40.21,295.32,200.19,1
2567,40.22,-126.69,122.78,1
2568,40.24,37.4,36.7,1
2569,40.25,297.65,-114.13,1
2570,40.27,120.56,-1.96,1
2571,40.28,-368.3,-4.11,1
2572,40.29,-35.56,-158.69,1
2573,40.31,-88.39,-279.7,1
2574,40.32,83.08,-86.61,1
2575,40.33,69.45,-278.35,1
2576,40.35,-26.92,-146.82,1
2577,40.36,-4.31,-676.33,1
2578,40.37,-75.09,-331.52,1
2579,40.38,-97.52,25.3,1
2580,40.4,-36.02,-487.87,1
2581,40.41,-140.11,-134.9,1
2582,40.43,20.05,-48.15,1
2583,40.44,186.76,-87.4,1
2584,40.45,-125.96,-227.43,1
2585,40.47,-232.38,-322.54,1
2586,40.48,-246.41,324.16,1
2587,40.49,82.21,240.87,1
2588,40.51,-169.23,-301.08,1
2589,40.52,30.38,-273.46,1
2590,40.53,-21.0,-17.44,1
2591,40.55,-39.66,459.27,1
2592,40.56,-38.29,497.19,1
2593,40.57,104.07,332.88,1
2594,40.59,24.78,262.54,1
2595,40.6,69.29,336.86,1
2596,40.61,208.76,198.94,1
2597,40.63,310.85,-243.62,1
2598,40.64,56.49,-226.25,1
2599,40.65,-155.22,-130.59,1
2600,40.67,-18.4,55.2,1
2601,40.68,-101.4,110.61,1
2602,40.69,-301.88,-108.45,1
2603,40.71,-44.08,333.13,1
2604,40.72,321.11,36.65,1
2605,40.73,-84.82,60.07,1
2606,40.75,206.71,-9.02,1
2607,40.76,303.26,71.23,1
2608,40.77,202.75,779.56,1
2609,40.79,166.36,360.98,1
2610,40.8,-67.5,173.18,1
2611,40.81,-116.09,21.92,1
2612,40.83,59.49,-138.43,1
2613,40.84,-88.38,61.29,1
2614,40.85,75.53,-238.34,1
2615,40.87,-147.22,-60.59,1
2616,40.88,-99.94,-127.01,1
2617,40.89,-195.93,-166.63,1
2618,40.9,-110.94,-151.87,1
2619,40.92,-134.67,-112.29,0
2620,40.93,-124.25,-46.07,0
2621,40.95,-120.27,-74.55,0
2622,40.96,-73.36,-60.88,0
2623,40.97,-48.3,-44.78,0
2624,40.99,-9.6,-52.22,0
2625,41.0,6.36,-46.23,0
2626,41.01,39.39,10.8,0
2627,41.03,53.71,22.1,0
2628,41.04,67.22,53.05,0
2629,41.05,75.65,84.55,0
2630,41.06,71.23,72.67,0
2631,41.08,99.07,102.34,0
2632,41.09,77.83,103.95,0
2633,41.11,76.37,79.85,0
2634,41.12,68.97,66.56,0
2635,41.13,76.4,82.23,0
2636,41.15,61.11,66.13,0
2637,41.16,58.39,-35.81,0
2638,41.17,61.04,3.71,0
2639,41.19,51.4,-40.1,0
2640,41.2,29.13,-29.96,0
2641,41.21,17.61,-57.23,0
2642,41.23,17.18,-53.22,0
2643,41.24,31.59,-74.96,0
2644,41.25,20.87,-58.24,0
2645,41.27,-16.63,-62.92,0
2646,41.28,-6.53,-73.11,0
2647,41.29,14.3,-62.8,0
2648,41.31,1.77,-77.42,0
2649,41.32,-12.15,-78.68,0
2650,41.33,-35.7,-48.52,0
2651,41.35,-4.08,-52.34,0
2652,41.36,-23.44,-59.88,0
2653,41.37,-16.29,-59.88,0
2654,41.38,-17.67,-71.11,0
2655,41.4,-13.05,-69.26,0
2656,41.41,-22.52,-41.54,0
2657,41.43,-35.91,-56.11,0
2658,41.44,-21.21,-38.36,0
2659,41.45,-15.38,-32.25,0
2660,41.47,-48.96,-40.81,0
2661,41.48,-52.7,-19.24,0
2662,41.49,-27.99,-24.14,0
2663,41.51,-25.94,-20.65,0
2664,41.52,-46.25,-17.85,0
2665,41.53,-54.3,-48.89,0
2666,41.54,-23.42,2.03,0
2667,41.56,-38.8,-12.87,0
2668,41.57,-27.2,-4.76,0
2669,41.59,-21.12,12.91,0
2670,41.6,4.69,23.51,0
2671,41.61,-16.26,1.49,0
2672,41.63,-30.5,1.22,0
2673,41.64,-6.37,22.22,0
2674,41.65,-19.48,15.18,0
2675,41.67,3.96,5.56,0
2676,41.68,-12.15,37.28,0
2677,41.69,-12.78,51.35,0
2678,41.71,16.95,34.49,0
2679,41.72,-17.04,28.04,0
2680,41.73,-15.1,31.41,0
2681,41.75,9.16,43.88,0
2682,41.76,-11.32,34.63,0
2683,41.77,-9.06,21.72,0
2684,41.79,5.8,17.74,0
2685,41.8,12.16,18.43,0
2686,41.81,5.85,34.89,0
2687,41.83,7.65,21.75,0
2688,41.84,-7.14,19.95,0
2689,41.85,29.23,24.28,0
2690,41.87,16.96,36.78,0
2691,41.88,4.48,22.82,0
2692,41.89,-1.51,27.87,0
2693,41.91,21.94,24.38,0
2694,41.92,16.08,23.01,0
2695,41.93,15.77,16.82,0
2696,41.95,-11.03,31.76,0
2697,41.96,26.72,22.0,0
2698,41.97,19.92,8.14,0
2699,41.99,2.16,27.93,0
2700,42.0,1.14,5.56,0
2701,42.01,22.09,-8.86,0
2702,42.03,11.81,35.6,0
2703,42.04,11.73,26.49,0
2704,42.05,5.79,9.42,0
2705,42.06,-14.11,7.61,0
2706,42.08,-43.89,1.24,0
2707,42.09,5.47,4.44,0
2708,42.11,32.29,17.19,1
2709,42.12,20.07,43.68,1
2710,42.13,63.41,70.61,1
2711,42.15,98.49,59.28,1
2712,42.16,-36.18,252.12,1
2713,42.17,-162.91,11.68,1
2714,42.19,-60.96,175.56,1
2715,42.2,-86.4,-93.51,1
2716,42.21,25.13,346.79,1
2717,42.22,214.98,-48.8,1
2718,42.24,132.18,-132.92,1
2719,42.25,208.25,194.08,1
2720,42.27,253.11,-49.59,1
2721,42.28,-250.51,-115.46,1
2722,42.29,65.99,-282.41,1
2723,42.31,-70.03,-439.19,1
2724,42.32,85.31,16.4,1
2725,42.33,-39.56,-237.84,1
2726,42.35,-86.65,-167.58,1
2727,42.36,-42.76,73.0,1
2728,42.37,116.36,-29.12,1
2729,42.38,205.11,-70.0,1
2730,42.4,-92.86,-312.66,1
2731,42.41,-205.18,-6.81,1
2732,42.43,-276.98,-347.87,1
2733,42.44,-132.73,-79.95,1
2734,42.45,-296.07,-285.89,1
2735,42.47,131.59,-510.32,1
2736,42.48,-174.83,-57.12,1
2737,42.49,130.78,186.84,1
2738,42.51,-260.71,53.63,1
2739,42.52,101.49,-27.4,1
2740,42.53,-326.43,444.78,1
2741,42.55,102.53,-182.75,1
2742,42.56,60.6,283.35,1
2743,42.57,-97.64,224.37,1
2744,42.59,55.86,78.25,1
2745,42.6,156.82,285.13,1
2746,42.61,39.06,271.22,1
2747,42.63,264.07,94.55,1
2748,42.64,38.73,3.86,1
2749,42.65,140.44,67.3,1
2750,42.67,5.53,314.83,1
2751,42.68,-182.52,276.96,1
2752,42.69,225.38,73.05,1
2753,42.71,51.89,-55.8,1
2754,42.72,163.16,232.23,1
2755,42.73,88.71,-27.28,1
2756,42.75,-226.63,-257.65,1
2757,42.76,132.92,-17.21,1
2758,42.77,-101.55,-318.5,1
2759,42.79,-97.13,-176.33,1
2760,42.8,9.09,-73.7,1
2761,42.81,65.19,-197.82,1
2762,42.83,32.53,-98.2,1
2763,42.84,147.99,-66.5,1
2764,42.85,27.78,-93.07,1
2765,42.87,43.08,-80.8,1
2766,42.88,-20.76,-86.23,1
2767,42.89,-20.15,-96.48,1
2768,42.9,-29.29,-108.2,1
2769,42.92,-26.83,1.23,0
2770,42.93,-39.59,-15.49,0
2771,42.95,-28.58,10.29,0
2772,42.96,-53.92,102.34,0
2773,42.97,-33.55,110.07,0
2774,42.99,-9.43,122.66,0
2775,43.0,-9.38,146.59,0
2776,43.01,-15.82,182.61,0
2777,43.03,-20.92,197.41,0
2778,43.04,9.3,205.05,0
2779,43.05,7.0,211.19,0
2780,43.06,20.51,209.79,0
2781,43.08,9.74,147.14,0
2782,43.09,24.61,155.36,0
2783,43.11,-2.96,151.16,0
2784,43.12,-23.19,105.8,0
2785,43.13,-2.23,96.1,0
2786,43.15,1.04,81.79,0
2787,43.16,10.68,48.24,0
2788,43.17,-6.99,22.34,0
2789,43.19,-2.61,-3.45,0
2790,43.2,6.89,-13.99,0
2791,43.21,-4.65,-32.17,0
2792,43.23,-14.5,-32.62,0
2793,43.24,1.93,-41.28,0
2794,43.25,3.93,-71.1,0
2795,43.27,-3.02,-89.55,0
2796,43.28,12.02,-112.97,0
2797,43.29,-0.62,-94.33,0
2798,43.31,-27.95,-106.45,0
2799,43.32,-31.33,-107.02,0
2800,43.33,-34.4,-112.02,0
2801,43.35,-10.17,-100.5,0
2802,43.36,-37.37,-101.48,0
2803,43.37,-35.38,-108.36,0
2804,43.38,-35.46,-94.52,0
2805,43.4,0.75,-108.93,0
2806,43.41,-14.72,-80.98,0
2807,43.43,-15.0,-91.86,0
2808,43.44,-17.07,-76.35,0
2809,43.45,4.72,-66.96,0
2810,43.47,-4.86,-62.41,0
2811,43.48,-10.59,-77.67,0
2812,43.49,-15.15,-76.45,0
2813,43.51,10.46,-58.26,0
2814,43.52,-8.8,-59.66,0
2815,43.53,10.91,-60.56,0
2816,43.54,-0.4,-49.58,0
2817,43.56,3.69,-43.84,0
2818,43.57,-10.39,-40.45,0
2819,43.59,-1.6,-29.16,0
2820,43.6,22.85,-21.77,0
2821,43.61,18.98,0.26,0
2822,43.63,-1.09,1.38,0
2823,43.64,3.33,2.94,0
2824,43.65,7.52,23.19,0
2825,43.67,18.94,20.52,0
2826,43.68,6.76,28.32,0
2827,43.69,9.7,11.9,0
2828,43.71,8.22,31.06,0
2829,43.72,24.4,42.66,0
2830,43.73,19.02,18.78,0
2831,43.75,21.13,34.34,0
2832,43.76,20.36,29.36,0
2833,43.77,-9.67,41.02,0
2834,43.79,-1.2,54.73,0
2835,43.8,-3.03,48.58,0
2836,43.81,20.7,53.81,0
2837,43.83,9.49,20.37,0
2838,43.84,-0.58,40.87,0
2839,43.85,-13.42,30.15,0
2840,43.87,19.06,32.79,0
2841,43.88,0.59,16.48,0
2842,43.89,9.2,38.61,0
2843,43.91,-7.51,49.02,0
2844,43.92,9.12,36.22,0
2845,43.93,3.15,16.94,0
2846,43.95,0.51,31.89,0
2847,43.96,3.42,24.5,0
2848,43.97,4.53,34.94,0
2849,43.99,7.91,33.69,0
2850,44.0,-6.01,42.34,0
2851,44.01,28.45,29.19,0
2852,44.03,22.86,29.03,0
2853,44.04,0.55,37.08,0
2854,44.05,-7.61,9.56,0
2855,44.06,-52.06,25.07,0
2856,44.08,-42.97,14.42,0
2857,44.09,16.8,32.69,0
2858,44.11,-29.83,19.71,1
2859,44.12,8.43,96.62,1
2860,44.13,4.54,274.07,1
2861,44.15,-48.6,364.54,1
2862,44.16,-37.08,248.0,1
2863,44.17,-83.92,71.32,1
2864,44.19,41.88,-254.83,1
2865,44.2,-35.17,-202.96,1
2866,44.21,28.72,-140.27,1
2867,44.22,368.7,64.97,1
2868,44.24,-179.81,153.41,1
2869,44.25,188.67,-189.25,1
2870,44.27,131.81,-390.16,1
2871,44.28,-17.52,233.03,1
2872,44.29,215.33,-153.68,1
2873,44.31,-199.83,-189.8,1
2874,44.32,61.84,-345.31,1
2875,44.33,-45.01,-225.05,1
2876,44.35,-63.61,164.75,1
2877,44.36,-107.05,-55.9,1
2878,44.37,-29.78,-337.92,1
2879,44.385000000000005,-6.84,-210.89,1
2880,44.4,53.14,-222.71,1
2881,44.41,-33.42,0.6,1
2882,44.43,13.14,-434.72,1
2883,44.44,29.89,-254.54,1
2884,44.45,1.6,-6.76,1
2885,44.47,-186.58,36.35,1
2886,44.48,71.98,564.44,1
2887,44.49,-168.15,306.63,1
2888,44.51,-89.55,198.51,1
2889,44.52,-235.63,-268.39,1
2890,44.53,-163.01,239.73,1
2891,44.55,-250.68,273.2,1
2892,44.56,-57.88,-68.98,1
2893,44.57,-72.5,-146.59,1
2894,44.59,-76.75,61.32,1
2895,44.6,57.05,21.09,1
2896,44.61,98.55,-306.8,1
2897,44.63,102.19,67.16,1
2898,44.64,328.69,60.67,1
2899,44.65,212.78,9.54,1
2900,44.67,132.68,265.1,1
2901,44.68,82.69,12.18,1
2902,44.69,341.69,589.16,1
2903,44.71,85.77,368.55,1
2904,44.72,25.78,350.62,1
2905,44.73,95.11,95.96,1
2906,44.75,-70.89,-211.41,1
2907,44.76,-187.79,-64.6,1
2908,44.77,-33.78,-123.52,1
2909,44.79,-80.96,-108.3,1
2910,44.8,-140.43,-135.83,1
2911,44.81,100.37,-157.99,1
2912,44.83,-34.04,-164.13,1
2913,44.84,48.58,-205.84,1
2914,44.85,-12.21,-148.96,1
2915,44.87,33.0,-166.57,1
2916,44.88,-48.67,-89.17,1
2917,44.89,-56.46,-47.94,1
2918,44.9,-106.06,-80.06,1
2919,44.92,-120.46,-72.26,0
2920,44.93,-98.87,30.22,0
2921,44.95,-17.98,67.93,0
2922,44.96,-5.21,53.95,0
2923,44.97,30.33,81.95,0
2924,44.99,34.42,103.44,0
2925,45.0,71.6,123.82,0
2926,45.01,67.38,150.5,0
2927,45.03,69.27,211.25,0
2928,45.04,46.04,188.26,0
2929,45.05,69.06,190.7,0
2930,45.07,33.94,161.72,0
2931,45.08,27.97,146.64,0
2932,45.09,40.37,159.23,0
2933,45.11,37.79,134.23,0
2934,45.12,14.05,90.83,0
2935,45.13,-5.16,42.01,0
2936,45.15,22.32,36.6,0
2937,45.16,0.33,12.53,0
2938,45.17,14.27,-24.59,0
2939,45.19,-13.02,-19.13,0
2940,45.2,-9.88,-39.1,0
2941,45.21,-40.2,-66.2,0
2942,45.22,-29.34,-55.04,0
2943,45.24,-36.1,-71.45,0
2944,45.25,-7.01,-53.59,0
2945,45.27,-31.83,-99.46,0
2946,45.28,-37.4,-88.43,0
2947,45.29,-41.08,-105.04,0
2948,45.31,-5.36,-85.81,0
2949,45.32,-38.77,-100.99,0
2950,45.33,-26.48,-112.23,0
2951,45.35,-44.11,-100.95,0
2952,45.36,-2.3,-100.32,0
2953,45.37,-15.61,-86.68,0
2954,45.38,-32.07,-102.87,0
2955,45.4,-23.57,-102.17,0
2956,45.41,-0.83,-70.64,0
2957,45.43,-6.98,-69.65,0
2958,45.44,-7.78,-90.27,0
2959,45.45,-19.49,-79.08,0
2960,45.47,10.94,-79.2,0
2961,45.48,-14.96,-42.87,0
2962,45.49,2.21,-53.67,0
2963,45.51,19.15,-21.6,0
2964,45.52,4.11,-27.15,0
2965,45.53,-11.91,-9.43,0
2966,45.54,-15.17,-24.63,0
2967,45.56,4.05,-29.12,0
2968,45.57,-6.19,-2.9,0
2969,45.59,7.59,-2.66,0
2970,45.6,-5.8,5.03,0
2971,45.61,10.11,12.29,0
2972,45.63,-3.35,8.43,0
2973,45.64,11.35,13.47,0
2974,45.65,-6.8,12.16,0
2975,45.67,17.52,8.9,0
2976,45.68,1.58,28.45,0
2977,45.69,8.77,36.38,0
2978,45.71,19.47,23.39,0
2979,45.72,20.47,24.12,0
2980,45.73,0.68,50.51,0
2981,45.75,5.31,35.49,0
2982,45.76,-2.21,47.28,0
2983,45.77,19.56,36.97,0
2984,45.79,5.78,35.07,0
2985,45.8,-14.56,25.15,0
2986,45.81,7.11,27.97,0
2987,45.83,13.23,44.91,0
2988,45.84,2.9,36.25,0
2989,45.85,-5.4,46.32,0
2990,45.87,18.33,28.31,0
2991,45.88,6.59,33.0,0
2992,45.89,10.38,35.13,0
2993,45.9,14.58,36.79,0
2994,45.92,32.69,40.89,0
2995,45.93,2.67,18.65,0
2996,45.95,-1.1,25.9,0
2997,45.96,-0.48,41.7,0
2998,45.97,40.13,21.2,0
2999,45.99,10.06,22.12,0
3000,46.0,-12.02,-0.91,0
3001,46.01,-17.22,17.61,0
3002,46.03,15.42,17.43,0
3003,46.04,6.71,27.01,0
3004,46.05,-9.66,24.76,0
3005,46.06,-81.19,29.43,0
3006,46.08,-0.14,20.15,0
3007,46.09,3.54,33.54,0
3008,46.11,-7.75,95.22,1
3009,46.12,21.83,33.25,1
3010,46.13,16.45,103.76,1
3011,46.15,88.39,178.2,1
3012,46.16,239.96,241.13,1
3013,46.17,-130.92,248.69,1
3014,46.19,346.95,125.03,1
3015,46.2,94.41,-7.46,1
3016,46.21,-323.58,-93.38,1
3017,46.22,40.59,-103.87,1
3018,46.24,-196.0,-732.38,1
3019,46.25,-108.59,-181.5,1
3020,46.27,-321.62,63.24,1
3021,46.28,238.01,-425.88,1
3022,46.29,-41.36,-52.07,1
3023,46.31,34.36,40.58,1
3024,46.32,-115.11,-221.36,1
3025,46.33,158.66,151.43,1
3026,46.35,-98.48,-332.43,1
3027,46.36,37.19,-573.28,1
3028,46.37,-199.7,-216.41,1
3029,46.39,-43.55,249.61,1
3030,46.4,-143.27,352.27,1
3031,46.41,149.98,135.63,1
3032,46.43,184.36,92.51,1
3033,46.44,343.13,101.52,1
3034,46.45,84.74,-74.76,1
3035,46.47,65.65,-43.16,1
3036,46.48,-177.78,-3.0,1
3037,46.49,-151.53,-169.46,1
3038,46.51,-1.29,-3.46,1
3039,46.52,-74.21,500.18,1
3040,46.53,-63.13,22.46,1
3041,46.54,-21.05,-292.9,1
3042,46.56,245.25,-64.86,1
3043,46.57,-256.47,404.21,1
3044,46.59,311.26,287.49,1
3045,46.6,-264.71,349.18,1
3046,46.61,-338.33,114.16,1
3047,46.63,-96.23,-122.55,1
3048,46.64,-232.55,301.26,1
3049,46.65,50.11,101.49,1
3050,46.67,50.18,-69.56,1
3051,46.68,214.18,22.93,1
3052,46.69,3.63,-148.2,1
3053,46.71,431.89,-733.67,1
3054,46.72,107.64,-476.55,1
3055,46.73,-134.75,-272.05,1
3056,46.75,98.64,176.37,1
3057,46.76,-87.07,303.3,1
3058,46.77,309.26,54.17,1
3059,46.79,-209.54,359.7,1
3060,46.8,-129.39,19.2,1
3061,46.81,-299.75,112.33,1
3062,46.83,-92.55,-316.21,1
3063,46.84,43.02,-120.63,1
3064,46.85,-267.35,-3.63,1
3065,46.87,-35.02,-69.17,1
3066,46.88,93.6,-68.64,1
3067,46.89,44.21,-108.59,1
3068,46.9,121.62,-121.27,1
3069,46.92,59.62,-45.94,0
3070,46.93,58.77,-26.69,0
3071,46.95,34.24,-36.31,0
3072,46.96,107.22,-58.63,0
3073,46.97,85.92,-43.64,0
3074,46.99,99.9,-35.78,0
3075,47.0,130.34,23.71,0
3076,47.01,104.56,-0.48,0
3077,47.03,95.7,29.74,0
3078,47.04,73.07,122.43,0
3079,47.05,76.08,113.48,0
3080,47.07,41.79,169.26,0
3081,47.08,10.3,176.79,0
3082,47.09,9.22,222.88,0
3083,47.11,50.42,196.46,0
3084,47.12,25.46,203.68,0
3085,47.13,8.3,218.61,0
3086,47.15,-9.08,167.69,0
3087,47.16,4.91,131.04,0
3088,47.17,-19.48,89.9,0
3089,47.19,0.05,92.8,0
3090,47.2,-11.53,42.52,0
3091,47.21,-13.6,46.39,0
3092,47.22,-41.67,11.51,0
3093,47.24,-52.18,8.94,0
3094,47.25,-42.45,-9.41,0
3095,47.27,-38.06,-53.62,0
3096,47.28,-64.51,-41.44,0
3097,47.29,-61.15,-56.63,0
3098,47.31,-76.37,-62.63,0
3099,47.32,-29.85,-56.38,0
3100,47.33,-64.38,-61.78,0
3101,47.35,-52.73,-73.29,0
3102,47.36,-47.85,-89.96,0
3103,47.37,-71.33,-68.28,0
3104,47.38,-46.57,-91.25,0
3105,47.4,-40.02,-105.77,0
3106,47.41,-36.22,-91.62,0
3107,47.43,-51.23,-78.98,0
3108,47.44,-36.92,-99.98,0
3109,47.45,-29.33,-96.55,0
3110,47.47,-5.65,-101.72,0
3111,47.48,-44.63,-64.21,0
3112,47.49,-26.58,-64.42,0
3113,47.51,-20.71,-64.6,0
3114,47.52,-5.61,-53.5,0
3115,47.53,8.68,-66.02,0
3116,47.54,-1.23,-51.05,0
3117,47.56,-18.26,-45.4,0
3118,47.57,-7.54,-38.93,0
3119,47.59,-3.74,-29.21,0
3120,47.6,10.47,-22.75,0
3121,47.61,5.46,-23.38,0
3122,47.63,9.88,-0.51,0
3123,47.64,-2.22,-42.38,0
3124,47.65,3.93,-10.39,0
3125,47.67,9.96,1.77,0
3126,47.68,30.47,-4.13,0
3127,47.69,23.47,8.2,0
3128,47.71,6.71,-3.82,0
3129,47.72,27.51,-14.21,0
3130,47.73,27.03,1.3,0
3131,47.75,16.05,11.76,0
3132,47.76,20.23,12.32,0
3133,47.77,27.91,37.29,0
3134,47.79,31.01,17.96,0
3135,47.8,31.57,48.21,0
3136,47.81,16.96,23.23,0
3137,47.83,31.69,37.1,0
3138,47.84,17.02,33.06,0
3139,47.85,13.41,30.02,0
3140,47.87,13.63,27.69,0
3141,47.88,56.8,27.66,0
3142,47.89,5.46,10.35,0
3143,47.9,-0.28,23.07,0
3144,47.92,3.1,33.74,0
3145,47.93,22.53,24.28,0
3146,47.95,18.73,35.29,0
3147,47.96,1.89,35.21,0
3148,47.97,8.73,23.44,0
3149,47.99,11.14,35.17,0
3150,48.0,-8.21,0.48,0
3151,48.01,10.04,16.42,0
3152,48.03,-0.01,18.99,0
3153,48.04,1.22,41.63,0
3154,48.05,-10.89,21.14,0
3155,48.06,-43.49,21.32,0
3156,48.08,-9.95,16.74,0
3157,48.09,-17.64,22.0,0
3158,48.11,-7.63,54.17,1
3159,48.12,36.09,102.06,1
3160,48.13,21.52,188.02,1
3161,48.15,19.99,39.44,1
3162,48.16,25.5,432.85,1
3163,48.17,-13.4,-55.2,1
3164,48.19,-111.15,-119.6,1
3165,48.2,-75.74,244.57,1
3166,48.21,45.65,157.78,1
3167,48.22,-130.45,63.71,1
3168,48.24,185.67,-38.63,1
3169,48.25,20.88,-28.53,1
3170,48.27,325.24,-37.39,1
3171,48.28,124.63,-291.61,1
3172,48.29,87.66,-462.9,1
3173,48.31,-192.96,-159.64,1
3174,48.32,-191.66,-47.7,1
3175,48.33,-70.4,-285.58,1
3176,48.35,-80.39,-145.29,1
3177,48.36,-286.53,-308.48,1
3178,48.37,80.05,107.18,1
3179,48.39,42.67,-369.74,1
3180,48.4,9.12,-371.98,1
3181,48.41,259.4,88.71,1
3182,48.43,108.75,-187.91,1
3183,48.44,-13.17,403.21,1
3184,48.45,3.88,-149.94,1
3185,48.47,-158.09,71.01,1
3186,48.48,-78.75,-79.64,1
3187,48.49,-26.2,224.55,1
3188,48.51,-96.23,79.95,1
3189,48.52,185.4,-279.77,1
3190,48.53,41.15,316.2,1
3191,48.54,19.73,-154.34,1
3192,48.56,67.64,437.87,1
3193,48.57,270.73,-335.74,1
3194,48.59,-10.89,248.75,1
3195,48.6,-37.94,274.36,1
3196,48.61,-58.15,-60.8,1
3197,48.63,16.38,3.4,1
3198,48.64,-233.87,102.95,1
3199,48.65,33.04,57.85,1
3200,48.67,-253.26,221.55,1
3201,48.68,-88.23,-119.12,1
3202,48.69,-194.02,-109.44,1
3203,48.71,-126.5,56.79,1
3204,48.72,-184.69,143.59,1
3205,48.73,-29.9,-103.87,1
3206,48.75,-68.64,-13.92,1
3207,48.76,45.04,172.14,1
3208,48.77,157.67,26.93,1
3209,48.79,-33.93,137.44,1
3210,48.8,53.63,56.31,1
3211,48.81,-195.27,92.4,1
3212,48.83,40.71,-43.67,1
3213,48.84,-43.91,-69.4,1
3214,48.85,90.73,-32.86,1
3215,48.87,86.42,-69.23,1
3216,48.88,102.21,-88.07,1
3217,48.89,115.63,-92.22,1
3218,48.9,135.81,-33.15,1
3219,48.92,168.63,-71.97,0
3220,48.93,200.42,-76.87,0
3221,48.95,165.59,-39.9,0
3222,48.96,142.83,12.54,0
3223,48.97,67.27,63.48,0
3224,48.99,28.34,108.78,0
3225,49.0,-17.34,98.47,0
3226,49.01,-35.87,145.09,0
3227,49.03,-65.44,142.23,0
3228,49.04,-84.44,155.17,0
3229,49.05,-63.94,157.01,0
3230,49.06,-31.46,158.21,0
3231,49.08,-31.63,139.1,0
3232,49.09,-44.13,101.07,0
3233,49.11,-31.66,94.84,0
3234,49.12,-10.29,85.28,0
3235,49.13,-26.54,39.78,0
3236,49.15,-28.89,18.46,0
3237,49.16,-11.15,-18.41,0
3238,49.17,0.92,-30.67,0
3239,49.19,-2.6,-69.96,0
3240,49.2,-19.44,-64.71,0
3241,49.21,-19.66,-72.13,0
3242,49.22,9.23,-91.74,0
3243,49.24,-8.07,-121.45,0
3244,49.25,-12.96,-122.28,0
3245,49.27,-29.99,-88.8,0
3246,49.28,-5.61,-105.34,0
3247,49.29,5.82,-96.34,0
3248,49.31,-14.23,-82.52,0
3249,49.32,18.49,-86.59,0
3250,49.33,6.24,-68.6,0
3251,49.35,-6.12,-73.27,0
3252,49.36,-5.6,-71.13,0
3253,49.37,17.55,-77.79,0
3254,49.38,-0.92,-72.37,0
3255,49.4,-1.02,-64.34,0
3256,49.41,9.23,-60.82,0
3257,49.43,26.71,-80.67,0
3258,49.44,8.83,-61.65,0
3259,49.45,-8.99,-54.66,0
3260,49.47,-6.34,-71.28,0
3261,49.48,8.33,-47.65,0
3262,49.49,-10.34,-50.21,0
3263,49.51,-19.75,-58.34,0
3264,49.52,-24.7,-39.7,0
3265,49.53,5.7,-24.18,0
3266,49.54,-16.88,-24.39,0
3267,49.56,-4.01,-14.77,0
3268,49.57,-4.07,-5.3,0
3269,49.59,-4.67,7.12,0
3270,49.6,-26.97,15.75,0
3271,49.61,1.63,7.34,0
3272,49.63,-3.8,36.92,0
3273,49.64,9.16,13.56,0
3274,49.65,-13.16,7.97,0
3275,49.67,0.0,30.97,0
3276,49.68,8.47,47.34,0
3277,49.69,16.47,15.28,0
3278,49.71,-4.18,46.93,0
3279,49.72,-4.24,39.29,0
3280,49.73,9.13,32.98,0
3281,49.75,-11.85,50.59,0
3282,49.76,-8.35,33.33,0
3283,49.77,-15.73,30.82,0
3284,49.79,-1.1,48.11,0
3285,49.8,3.48,26.19,0
3286,49.81,6.57,37.16,0
3287,49.83,1.89,59.58,0
3288,49.84,5.43,33.98,0
3289,49.85,5.34,40.49,0
3290,49.87,-22.86,42.99,0
3291,49.88,-13.28,39.93,0
3292,49.89,26.0,17.77,0
3293,49.9,10.69,19.87,0
3294,49.92,4.01,22.23,0
3295,49.93,9.71,30.43,0
3296,49.95,12.68,28.08,0
3297,49.96,4.0,28.46,0
3298,49.97,-10.72,19.99,0
3299,49.99,-11.3,6.81,0
3300,50.0,5.87,4.92,0
3301,50.01,4.89,15.89,0
3302,50.03,2.51,24.17,0
3303,50.04,24.67,18.77,0
3304,50.05,9.85,-3.05,0
3305,50.06,-3.26,15.02,0
3306,50.08,-41.43,0.78,0
3307,50.09,7.3,32.49,0
3308,50.11,9.15,76.47,1
3309,50.12,3.53,75.68,1
3310,50.13,-8.96,235.49,1
3311,50.15,17.11,306.94,1
3312,50.16,2.15,269.93,1
3313,50.17,32.8,193.59,1
3314,50.19,229.02,132.66,1
3315,50.2,-61.14,62.32,1
3316,50.21,61.4,-179.39,1
3317,50.22,23.4,-355.53,1
3318,50.24,-185.18,-47.96,1
3319,50.25,-35.89,-360.18,1
3320,50.27,25.29,-34.49,1
3321,50.28,24.01,7.97,1
3322,50.29,-31.76,-29.01,1
3323,50.31,38.24,-182.88,1
3324,50.32,-112.74,-593.68,1
3325,50.33,-0.46,-595.37,1
3326,50.35,188.19,-363.7,1
3327,50.36,-131.24,-47.14,1
3328,50.37,-40.66,-482.23,1
3329,50.38,-72.89,-324.7,1
3330,50.4,-22.15,-129.69,1
3331,50.41,29.14,101.85,1
3332,50.43,-56.93,140.83,1
3333,50.44,-142.76,161.75,1
3334,50.45,89.66,114.76,1
3335,50.47,189.08,215.15,1
3336,50.48,78.77,-25.25,1
3337,50.49,-123.62,323.31,1
3338,50.51,-63.53,246.81,1
3339,50.52,-315.92,-220.19,1
3340,50.53,-279.91,352.92,1
3341,50.54,-23.93,209.48,1
3342,50.56,-57.05,146.54,1
3343,50.57,155.98,-94.52,1
3344,50.59,59.46,449.25,1
3345,50.6,287.47,-15.55,1
3346,50.61,159.01,297.85,1
3347,50.63,288.67,153.75,1
3348,50.64,205.76,355.48,1
3349,50.65,-162.74,419.24,1
3350,50.67,-5.66,312.44,1
3351,50.68,-170.11,158.53,1
3352,50.69,71.42,-142.34,1
3353,50.71,259.9,-102.5,1
3354,50.72,262.23,-153.82,1
3355,50.73,-21.72,-388.85,1
3356,50.75,-101.11,-1.18,1
3357,50.76,-82.67,-21.08,1
3358,50.77,-369.97,-10.82,1
3359,50.79,-130.75,-344.44,1
3360,50.8,-80.44,-471.24,1
3361,50.81,226.24,-100.92,1
3362,50.83,190.03,-169.22,1
3363,50.84,-69.46,-194.7,1
3364,50.85,-145.07,-203.65,1
3365,50.87,-123.85,-190.5,1
3366,50.88,-153.72,-84.7,1
3367,50.89,-95.25,-21.77,1
3368,50.91,-62.11,29.14,0
3369,50.92,-58.64,32.65,0
3370,50.93,-22.45,36.25,0
3371,50.95,-13.69,34.25,0
3372,50.96,9.55,64.2,0
3373,50.97,55.46,78.8,0
3374,50.99,39.93,78.54,0
3375,51.0,25.17,119.69,0
3376,51.01,32.37,144.63,0
3377,51.03,61.73,174.95,0
3378,51.04,51.85,163.23,0
3379,51.05,53.18,172.61,0
3380,51.06,55.72,176.85,0
3381,51.08,72.94,150.71,0
3382,51.09,44.26,126.97,0
3383,51.11,25.28,92.92,0
3384,51.12,48.04,73.38,0
3385,51.13,27.6,74.42,0
3386,51.15,26.48,54.23,0
3387,51.16,16.78,32.32,0
3388,51.17,17.74,-7.15,0
3389,51.19,39.28,-14.36,0
3390,51.2,10.95,-46.42,0
3391,51.21,8.98,-23.98,0
3392,51.22,5.18,-53.73,0
3393,51.24,14.4,-53.51,0
3394,51.25,-6.16,-35.35,0
3395,51.27,-14.07,-42.66,0
3396,51.28,-11.05,-54.88,0
3397,51.29,-17.71,-55.54,0
3398,51.31,-5.47,-81.92,0
3399,51.32,-10.3,-59.76,0
3400,51.33,-0.67,-79.6,0
3401,51.35,-14.98,-65.25,0
3402,51.36,-25.13,-64.72,0
3403,51.37,-22.47,-79.06,0
3404,51.38,13.51,-75.76,0
3405,51.4,-21.27,-67.55,0
3406,51.41,-21.19,-79.35,0
3407,51.43,-27.96,-80.03,0
3408,51.44,-14.0,-60.23,0
3409,51.45,-30.0,-33.36,0
3410,51.47,-33.65,-63.03,0
3411,51.48,-20.84,-42.34,0
3412,51.49,10.32,-37.28,0
3413,51.51,-15.34,-52.05,0
3414,51.52,-24.69,-21.04,0
3415,51.53,-3.59,-35.65,0
3416,51.55,-11.67,-39.59,0
3417,51.56,-28.41,-41.15,0
3418,51.57,-13.78,-34.01,0
3419,51.59,23.4,-8.16,0
3420,51.6,-12.18,15.29,0
3421,51.61,-31.13,5.15,0
3422,51.63,-35.15,18.49,0
3423,51.64,6.86,-12.1,0
3424,51.65,-11.54,19.15,0
3425,51.67,-13.19,33.69,0
3426,51.68,-18.83,-0.65,0
3427,51.69,16.63,27.34,0
3428,51.71,18.23,18.34,0
3429,51.72,7.56,32.98,0
3430,51.73,-14.62,13.14,0
3431,51.75,3.8,36.28,0
3432,51.76,-14.56,10.64,0
3433,51.77,-2.03,20.65,0
3434,51.79,8.59,19.97,0
3435,51.8,31.05,67.56,0
3436,51.81,10.6,24.07,0
3437,51.83,6.52,39.34,0
3438,51.84,14.16,13.28,0
3439,51.85,23.95,36.1,0
3440,51.87,0.22,20.06,0
3441,51.88,6.7,26.88,0
3442,51.89,16.53,7.41,0
3443,51.9,18.42,31.45,0
3444,51.92,13.78,18.01,0
3445,51.93,-2.06,22.19,0
3446,51.95,-3.79,42.81,0
3447,51.96,-0.12,15.76,0
3448,51.97,2.21,21.7,0
3449,51.99,1.49,13.89,0
3450,52.0,24.19,29.46,0
3451,52.01,6.7,19.72,0
3452,52.03,-9.58,-2.97,0
3453,52.04,-2.95,13.97,0
3454,52.05,3.16,27.39,0
3455,52.06,-8.12,4.41,0
3456,52.08,-50.46,29.87,0
3457,52.09,-16.38,7.43,0
3458,52.11,30.11,25.42,1
3459,52.12,-5.13,80.47,1
3460,52.13,-11.44,127.71,1
3461,52.15,11.8,288.91,1
3462,52.16,6.6,325.51,1
3463,52.17,29.64,159.85,1
3464,52.19,-71.42,-14.19,1
3465,52.2,-13.65,57.34,1
3466,52.21,202.65,30.94,1
3467,52.23,226.41,-72.65,1
3468,52.24,-66.1,49.36,1
3469,52.25,58.1,-94.16,1
3470,52.27,38.11,-41.55,1
3471,52.28,144.94,-501.05,1
3472,52.29,-118.71,-640.09,1
3473,52.31,136.99,93.19,1
3474,52.32,-142.17,-56.9,1
3475,52.33,-207.94,-96.43,1
3476,52.35,-58.63,18.07,1
3477,52.36,104.88,-348.83,1
3478,52.37,196.08,-466.35,1
3479,52.38,20.33,-542.05,1
3480,52.4,-139.42,93.48,1
3481,52.41,-250.83,275.01,1
3482,52.43,-121.37,176.79,1
3483,52.44,33.33,225.52,1
3484,52.45,28.84,9.37,1
3485,52.47,-152.59,-74.27,1
3486,52.48,-46.86,-234.62,1
3487,52.49,113.34,-28.62,1
3488,52.51,28.22,136.8,1
3489,52.52,-168.87,-261.05,1
3490,52.53,-34.99,-48.44,1
3491,52.54,36.89,-29.38,1
3492,52.56,-231.05,219.39,1
3493,52.57,-74.12,155.27,1
3494,52.59,72.79,256.82,1
3495,52.6,120.86,-226.07,1
3496,52.61,-15.72,-58.94,1
3497,52.63,-10.38,438.55,1
3498,52.64,-290.98,231.89,1
3499,52.65,-157.35,108.98,1
3500,52.67,97.34,-299.94,1
3501,52.68,68.36,227.64,1
3502,52.69,74.92,-71.5,1
3503,52.71,-86.2,48.48,1
3504,52.72,243.94,24.38,1
3505,52.73,-89.33,270.7,1
3506,52.75,2.64,-180.99,1
3507,52.76,302.43,-35.49,1
3508,52.77,174.21,-379.54,1
3509,52.79,172.48,225.79,1
3510,52.8,190.87,376.22,1
3511,52.81,-276.78,-9.53,1
3512,52.83,-66.24,-110.13,1
3513,52.84,-97.5,-8.19,1
3514,52.85,-191.27,156.29,1
3515,52.87,133.25,15.86,1
3516,52.88,-6.8,-22.74,1
3517,52.89,146.08,-41.1,1
3518,52.9,75.83,-86.67,1
3519,52.92,8.0,-99.55,0
3520,52.93,53.65,-16.39,0
3521,52.95,82.45,-73.61,0
3522,52.96,54.51,-33.36,0
3523,52.97,17.94,-3.65,0
3524,52.99,63.01,33.24,0
3525,53.0,21.56,0.36,0
3526,53.01,5.94,42.66,0
3527,53.03,19.11,69.64,0
3528,53.04,-12.93,78.4,0
3529,53.05,1.66,87.25,0
3530,53.06,-0.63,91.29,0
3531,53.08,20.46,121.29,0
3532,53.09,3.96,119.57,0
3533,53.11,-18.96,117.35,0
3534,53.12,-10.37,104.36,0
3535,53.13,26.72,116.49,0
3536,53.15,8.87,108.14,0
3537,53.16,-17.42,72.68,0
3538,53.17,-13.87,54.64,0
3539,53.19,-21.29,75.83,0
3540,53.2,-56.68,80.99,0
3541,53.21,-22.55,40.33,0
3542,53.22,-37.12,34.46,0
3543,53.24,17.38,19.64,0
3544,53.25,2.02,-26.48,0
3545,53.27,3.02,-57.26,0
3546,53.28,-13.58,-40.22,0
3547,53.29,-6.2,-77.33,0
3548,53.31,-25.9,-77.44,0
3549,53.32,-26.78,-66.17,0
3550,53.33,-31.58,-74.05,0
3551,53.35,-14.88,-102.59,0
3552,53.36,-36.0,-112.62,0
3553,53.37,1.05,-113.09,0
3554,53.38,1.92,-88.85,0
3555,53.4,-5.71,-91.21,0
3556,53.41,-24.42,-149.29,0
3557,53.43,-42.71,-81.08,0
3558,53.44,-20.61,-110.19,0
3559,53.45,-27.67,-95.04,0
3560,53.47,-33.37,-88.01,0
3561,53.48,-40.83,-97.37,0
3562,53.49,-30.18,-89.03,0
3563,53.51,-40.93,-65.04,0
3564,53.52,-20.02,-76.45,0
3565,53.53,-32.32,-62.59,0
3566,53.54,-11.51,-54.69,0
3567,53.56,-25.79,-50.98,0
3568,53.57,-23.59,-35.72,0
3569,53.59,-29.74,-24.57,0
3570,53.6,6.27,-6.91,0
3571,53.61,1.1,-44.45,0
3572,53.63,-25.12,-13.94,0
3573,53.64,-4.85,-5.11,0
3574,53.65,23.47,12.88,0
3575,53.67,16.69,1.88,0
3576,53.68,14.57,16.0,0
3577,53.69,16.79,9.7,0
3578,53.71,34.2,12.48,0
3579,53.72,7.17,11.97,0
3580,53.73,12.35,32.07,0
3581,53.75,15.9,39.86,0
3582,53.76,10.12,34.15,0
3583,53.77,23.57,23.55,0
3584,53.79,34.77,34.04,0
3585,53.8,28.22,40.23,0
3586,53.81,9.59,34.62,0
3587,53.83,-9.23,32.75,0
3588,53.84,-9.38,50.18,0
3589,53.85,12.46,65.36,0
3590,53.87,20.77,62.75,0
3591,53.88,8.34,39.0,0
3592,53.89,-5.6,44.95,0
3593,53.9,-1.25,29.88,0
3594,53.92,3.19,33.06,0
3595,53.93,14.15,37.04,0
3596,53.95,28.06,22.15,0
3597,53.96,43.46,23.78,0
3598,53.97,18.75,23.77,0
3599,53.99,-2.58,35.46,0
3600,54.0,-15.05,43.95,0
3601,54.01,28.53,32.58,0
3602,54.03,-6.26,29.39,0
3603,54.04,10.17,13.43,0
3604,54.05,1.84,25.87,0
3605,54.06,8.66,43.76,0
3606,54.08,-50.74,8.5,0
3607,54.09,-6.4,15.28,0
3608,54.11,27.32,-5.57,1
3609,54.12,18.82,-6.1,1
3610,54.13,46.63,16.37,1
3611,54.15,20.85,96.28,1
3612,54.16,9.15,253.9,1
3613,54.17,8.41,376.38,1
3614,54.19,10.4,91.92,1
3615,54.2,184.13,-86.17,1
3616,54.21,204.66,318.31,1
3617,54.22,42.45,67.76,1
3618,54.24,-41.3,-86.9,1
3619,54.25,-51.86,-190.05,1
3620,54.27,226.13,-22.94,1
3621,54.28,21.24,-337.45,1
3622,54.29,8.09,78.0,1
3623,54.31,117.13,-243.21,1
3624,54.32,7.14,77.35,1
3625,54.33,-378.76,-448.04,1
3626,54.35,-439.12,-538.14,1
3627,54.36,-254.89,-168.81,1
3628,54.37,-178.24,227.78,1
3629,54.38,120.3,34.73,1
3630,54.4,-288.17,-47.54,1
3631,54.41,-77.21,-181.98,1
3632,54.43,-386.55,-377.01,1
3633,54.44,-94.77,-402.0,1
3634,54.45,290.98,-117.82,1
3635,54.47,4.29,141.7,1
3636,54.48,376.14,168.16,1
3637,54.49,68.5,136.67,1
3638,54.51,-222.67,313.96,1
3639,54.52,-266.7,17.18,1
3640,54.53,97.02,-58.83,1
3641,54.54,175.12,-189.14,1
3642,54.56,202.79,-27.57,1
3643,54.57,192.26,185.5,1
3644,54.59,108.15,-162.23,1
3645,54.6,305.9,-26.48,1
3646,54.61,-39.9,138.02,1
3647,54.63,232.0,377.03,1
3648,54.64,-137.51,-35.73,1
3649,54.65,76.46,-41.04,1
3650,54.67,-253.3,52.48,1
3651,54.68,-80.9,327.44,1
3652,54.69,-59.11,-51.63,1
3653,54.71,-119.39,206.75,1
3654,54.72,3.64,2.83,1
3655,54.73,97.79,-254.78,1
3656,54.75,-11.03,13.15,1
3657,54.76,198.91,-132.84,1
3658,54.77,46.3,-118.71,1
3659,54.79,-13.95,-10.6,1
3660,54.8,52.64,114.95,1
3661,54.81,196.33,54.9,1
3662,54.83,81.89,53.49,1
3663,54.84,-84.65,104.68,1
3664,54.85,-97.39,102.69,1
3665,54.87,-51.16,87.21,1
3666,54.88,-90.28,-27.6,1
3667,54.89,-74.61,62.14,1
3668,54.9,-67.6,10.51,1
3669,54.92,-84.62,-17.27,0
3670,54.93,-72.32,-61.39,0
3671,54.95,-98.1,-70.71,0
3672,54.96,-115.65,-66.39,0
3673,54.97,-122.29,-28.73,0
3674,54.99,-78.36,-11.0,0
3675,55.0,-42.72,34.58,0
3676,55.01,-10.56,69.18,0
3677,55.03,25.94,80.35,0
3678,55.04,68.57,94.43,0
3679,55.05,81.88,121.74,0
3680,55.06,81.69,136.5,0
3681,55.08,91.91,161.32,0
3682,55.09,103.54,149.89,0
3683,55.11,84.51,167.63,0
3684,55.12,83.74,135.3,0
3685,55.13,69.53,113.31,0
3686,55.15,102.38,104.56,0
3687,55.16,73.46,69.99,0
3688,55.17,59.57,49.7,0
3689,55.19,38.17,18.14,0
3690,55.2,53.85,-4.55,0
3691,55.21,44.59,-29.39,0
3692,55.22,35.53,-24.35,0
3693,55.24,20.67,-68.0,0
3694,55.25,-10.07,-58.02,0
3695,55.27,-19.68,-82.19,0
3696,55.28,-2.62,-94.2,0
3697,55.29,19.14,-107.61,0
3698,55.31,-17.51,-100.81,0
3699,55.32,-37.19,-89.73,0
3700,55.33,-39.37,-104.66,0
3701,55.35,-8.59,-118.18,0
3702,55.36,-20.49,-126.35,0
3703,55.37,-32.63,-110.58,0
3704,55.38,-44.05,-102.66,0
3705,55.4,-33.27,-124.46,0
3706,55.41,-29.88,-99.18,0
3707,55.43,-52.34,-100.73,0
3708,55.44,-35.74,-100.64,0
3709,55.45,-35.94,-65.62,0
3710,55.47,-37.97,-76.43,0
3711,55.48,-47.71,-77.2,0
3712,55.49,-39.76,-80.64,0
3713,55.51,-6.99,-59.83,0
3714,55.52,-24.64,-53.76,0
3715,55.53,-24.75,-38.39,0
3716,55.54,-11.77,-24.21,0
3717,55.56,-8.23,-25.0,0
3718,55.57,-23.77,0.41,0
3719,55.59,-45.31,-23.31,0
3720,55.6,-33.91,-22.74,0
3721,55.61,-18.78,-19.53,0
3722,55.63,0.01,-0.21,0
3723,55.64,-11.92,17.37,0
3724,55.65,0.72,9.09,0
3725,55.67,-11.54,1.98,0
3726,55.68,-24.01,1.9,0
3727,55.69,-10.6,3.97,0
3728,55.71,2.61,42.2,0
3729,55.72,2.84,33.93,0
3730,55.73,-3.9,58.16,0
3731,55.75,-1.54,43.83,0
3732,55.76,33.68,49.21,0
3733,55.77,24.54,46.03,0
3734,55.79,1.65,48.59,0
3735,55.8,2.58,53.85,0
3736,55.81,5.36,41.43,0
3737,55.83,4.08,23.75,0
3738,55.84,10.37,69.51,0
3739,55.85,-8.78,39.05,0
3740,55.87,29.35,63.28,0
3741,55.88,3.65,31.61,0
3742,55.89,3.2,17.03,0
3743,55.9,7.54,40.01,0
3744,55.92,23.25,34.41,0
3745,55.93,22.03,10.24,0
3746,55.95,3.12,39.0,0
3747,55.96,13.58,26.47,0
3748,55.97,20.9,36.92,0
3749,55.99,18.37,26.95,0
3750,56.0,3.44,32.41,0
3751,56.01,14.04,31.68,0
3752,56.03,30.2,21.18,0
3753,56.04,10.82,27.99,0
3754,56.05,7.61,32.88,0
3755,56.06,16.49,48.59,0
3756,56.08,-35.0,75.15,0
3757,56.09,11.78,-10.92,0
3758,56.11,-22.9,29.44,1
3759,56.12,4.67,216.69,1
3760,56.13,23.8,21.57,1
3761,56.15,70.52,324.67,1
3762,56.16,173.9,-144.53,1
3763,56.17,184.71,-191.89,1
3764,56.19,-26.65,330.81,1
3765,56.2,-193.83,9.27,1
3766,56.21,204.98,95.73,1
3767,56.22,-50.05,9.04,1
3768,56.24,-9.47,56.46,1
3769,56.25,-105.38,-246.36,1
3770,56.27,54.6,-40.18,1
3771,56.28,-229.46,-30.17,1
3772,56.29,-118.44,-273.11,1
3773,56.31,222.8,81.65,1
3774,56.32,-164.63,-13.5,1
3775,56.33,-16.41,-1.61,1
3776,56.35,62.73,-103.64,1
3777,56.36,-252.79,-421.31,1
3778,56.37,30.85,-427.57,1
3779,56.38,-123.1,-32.99,1
3780,56.4,-76.37,-501.78,1
3781,56.41,261.0,-440.39,1
3782,56.43,-21.69,79.44,1
3783,56.44,166.31,-211.16,1
3784,56.45,29.96,-257.41,1
3785,56.47,-168.21,-14.69,1
3786,56.48,63.12,-101.83,1
3787,56.49,-173.41,91.09,1
3788,56.51,4.31,87.36,1
3789,56.52,-46.14,-15.71,1
3790,56.53,-32.77,37.96,1
3791,56.54,-320.5,-79.57,1
3792,56.56,294.01,496.03,1
3793,56.57,-197.84,72.87,1
3794,56.59,56.12,-4.61,1
3795,56.6,-246.14,87.07,1
3796,56.61,-17.1,-5.84,1
3797,56.63,-177.42,186.36,1
3798,56.64,270.37,316.51,1
3799,56.65,85.17,290.43,1
3800,56.67,220.84,0.02,1
3801,56.68,18.21,373.78,1
3802,56.69,-31.51,251.28,1
3803,56.71,218.09,102.95,1
3804,56.72,294.79,-19.45,1
3805,56.73,40.38,78.19,1
3806,56.75,246.34,-56.26,1
3807,56.76,-164.0,-71.46,1
3808,56.77,-20.07,152.52,1
3809,56.79,105.84,-79.7,1
3810,56.8,2.22,346.78,1
3811,56.81,-195.19,17.07,1
3812,56.83,356.21,263.85,1
3813,56.84,-67.58,147.05,1
3814,56.85,232.58,31.01,1
3815,56.87,-233.74,-11.01,1
3816,56.88,-12.11,87.02,1
3817,56.89,-64.6,-9.29,1
3818,56.9,1.53,19.29,1
3819,56.92,-65.44,-71.26,0
3820,56.93,-64.93,-117.83,0
3821,56.95,-49.38,-145.55,0
3822,56.96,-62.73,-102.36,0
3823,56.97,-31.41,-110.73,0
3824,56.99,-33.8,-123.78,0
3825,57.0,0.63,-110.92,0
3826,57.01,2.58,-115.25,0
3827,57.03,-27.16,-89.11,0
3828,57.04,-42.68,-35.8,0
3829,57.05,-37.0,-54.39,0
3830,57.06,-51.46,-45.63,0
3831,57.08,-59.1,-46.71,0
3832,57.09,-39.1,-45.91,0
3833,57.11,-22.56,-38.81,0
3834,57.12,-37.15,-17.56,0
3835,57.13,-31.07,-33.41,0
3836,57.15,-12.47,-14.44,0
3837,57.16,-8.86,-4.79,0
3838,57.17,-10.18,22.79,0
3839,57.19,-63.43,64.39,0
3840,57.2,-6.87,30.96,0
3841,57.21,-2.94,64.74,0
3842,57.22,4.99,30.24,0
3843,57.24,39.38,39.41,0
3844,57.25,46.0,13.69,0
3845,57.27,2.6,7.92,0
3846,57.28,21.84,-18.46,0
3847,57.29,13.36,-21.21,0
3848,57.31,36.85,-23.42,0
3849,57.32,35.17,-56.83,0
3850,57.33,18.04,-47.6,0
3851,57.35,12.44,-56.98,0
3852,57.36,28.27,-75.09,0
3853,57.37,56.79,-66.14,0
3854,57.38,55.34,-64.84,0
3855,57.4,24.06,-42.32,0
3856,57.41,38.42,-46.64,0
3857,57.43,-3.82,-33.36,0
3858,57.44,-7.99,-50.22,0
3859,57.45,-19.19,-36.74,0
3860,57.47,10.14,-52.33,0
3861,57.48,-12.83,-20.39,0
3862,57.49,-1.4,-26.09,0
3863,57.51,8.33,-3.36,0
3864,57.52,-0.95,-20.21,0
3865,57.53,4.48,-25.1,0
3866,57.54,-5.17,1.32,0
3867,57.56,6.02,-8.3,0
3868,57.57,-14.89,7.92,0
3869,57.59,-20.28,-15.97,0
3870,57.6,-1.15,11.96,0
3871,57.61,5.43,13.81,0
3872,57.63,-12.67,9.55,0
3873,57.64,-17.95,22.61,0
3874,57.65,-20.13,7.71,0
3875,57.67,6.73,16.56,0
3876,57.68,-6.92,4.32,0
3877,57.69,-7.19,15.83,0
3878,57.71,-8.15,25.3,0
3879,57.72,7.39,39.98,0
3880,57.73,-10.95,21.18,0
3881,57.75,9.62,17.06,0
3882,57.76,-4.66,25.59,0
3883,57.77,11.11,19.66,0
3884,57.79,-0.54,23.08,0
3885,57.8,-20.72,34.65,0
3886,57.81,-19.22,30.78,0
3887,57.83,5.81,40.34,0
3888,57.84,-0.74,26.99,0
3889,57.85,0.54,31.58,0
3890,57.87,-21.06,27.38,0
3891,57.88,4.78,41.78,0
3892,57.89,-12.25,23.75,0
3893,57.9,-0.99,13.46,0
3894,57.92,23.91,25.33,0
3895,57.93,4.99,25.74,0
3896,57.95,2.1,6.85,0
3897,57.96,-2.1,14.93,0
3898,57.97,5.26,6.84,0
3899,57.99,9.98,0.29,0
3900,58.0,6.77,2.12,0
3901,58.01,-17.92,14.73,0
3902,58.025000000000006,11.46,21.85,0
3903,58.04,5.31,9.73,0
3904,58.05,-2.64,9.0,0
3905,58.06,-0.02,-5.41,0
3906,58.08,-30.09,30.03,0
3907,58.09,-26.77,101.88,0
3908,58.11,-24.58,34.26,1
3909,58.12,19.69,194.52,1
3910,58.13,7.41,307.24,1
3911,58.15,21.06,35.41,1
3912,58.16,68.76,184.97,1
3913,58.17,-25.86,184.94,1
3914,58.19,-289.7,-32.45,1
3915,58.2,119.29,-137.47,1
3916,58.21,91.57,79.26,1
3917,58.22,-173.32,-154.42,1
3918,58.24,112.66,-383.13,1
3919,58.25,89.02,80.45,1
3920,58.27,279.54,-190.77,1
3921,58.28,-8.54,-273.96,1
3922,58.29,-105.08,-95.24,1
3923,58.31,-106.11,-64.01,1
3924,58.32,136.93,-154.04,1
3925,58.33,-47.62,-179.55,1
3926,58.35,-85.98,-144.42,1
3927,58.36,-163.0,85.81,1
3928,58.37,-29.71,-371.77,1
3929,58.38,19.96,-222.29,1
3930,58.4,-9.72,-79.89,1
3931,58.41,-81.6,-369.57,1
3932,58.43,152.28,7.97,1
3933,58.44,-133.21,-21.78,1
3934,58.45,111.71,-2.2,1
3935,58.47,-96.31,-331.25,1
3936,58.48,7.42,86.19,1
3937,58.49,193.73,-293.86,1
3938,58.51,321.59,27.41,1
3939,58.52,208.92,386.07,1
3940,58.53,147.64,71.7,1
3941,58.54,1.97,15.51,1
3942,58.56,-97.58,396.86,1
3943,58.57,117.78,-161.34,1
3944,58.59,-339.44,172.04,1
3945,58.6,306.95,95.37,1
3946,58.61,-381.35,186.45,1
3947,58.63,43.72,389.08,1
3948,58.64,16.15,40.39,1
3949,58.65,-158.4,184.94,1
3950,58.66,22.49,185.03,1
3951,58.68,35.74,-34.96,1
3952,58.69,-37.53,431.71,1
3953,58.71,-198.37,566.26,1
3954,58.72,297.82,401.04,1
3955,58.73,5.84,347.93,1
3956,58.75,187.21,325.9,1
3957,58.76,-277.54,186.38,1
3958,58.77,-297.67,87.46,1
3959,58.79,-259.42,-201.12,1
3960,58.8,4.72,-457.25,1
3961,58.81,-238.9,-56.93,1
3962,58.83,-17.98,-66.17,1
3963,58.84,-44.79,-27.83,1
3964,58.85,-165.96,-168.95,1
3965,58.87,57.71,-67.85,1
3966,58.88,-159.52,-352.18,1
3967,58.89,-145.94,-249.9,1
3968,58.9,82.3,-8.08,1
3969,58.92,6.63,-622.3,0
3970,58.93,231.18,-10.32,0
3971,58.95,2.64,-269.02,0
3972,58.96,149.53,-155.76,0
3973,58.97,128.82,-53.47,0
3974,58.99,219.39,-124.99,0
3975,59.0,330.19,-135.34,0
3976,59.01,44.93,-118.78,0
3977,59.03,73.46,-127.98,0
3978,59.04,-0.65,-50.21,0
3979,59.05,44.07,-27.51,0
3980,59.06,12.78,78.34,0
3981,59.08,15.69,79.6,0
3982,59.09,13.84,60.42,0
3983,59.11,24.64,58.21,0
3984,59.12,-7.81,27.11,0
3985,59.13,-7.82,37.97,0
3986,59.15,-20.13,38.37,0
3987,59.16,10.29,70.59,0
3988,59.17,-21.83,105.48,0
3989,59.19,-12.42,134.02,0
3990,59.2,-2.75,138.64,0
3991,59.21,0.86,143.51,0
3992,59.22,-9.48,119.04,0
3993,59.24,-12.49,119.78,0
3994,59.25,-4.03,126.43,0
3995,59.27,0.37,98.25,0
3996,59.28,-8.56,72.29,0
3997,59.29,-13.89,75.66,0
3998,59.3,-13.87,44.0,0
3999,59.32,-3.21,32.57,0
4000,59.33,-6.23,19.41,0
4001,59.35,-0.08,8.17,0
4002,59.36,-14.43,-7.52,0
4003,59.37,-12.27,-21.67,0
4004,59.38,-28.27,-39.18,0
4005,59.4,-24.33,-40.69,0
4006,59.41,1.95,-46.66,0
4007,59.43,-21.36,-45.36,0
4008,59.44,-7.03,-41.74,0
4009,59.45,-19.65,-43.8,0
4010,59.47,1.23,-77.95,0
4011,59.48,-16.04,-63.52,0
4012,59.49,-16.34,-46.72,0
4013,59.51,-28.48,-67.14,0
4014,59.52,-6.26,-65.98,0
4015,59.53,-31.94,-79.26,0
4016,59.54,-31.87,-56.41,0
4017,59.56,-29.67,-57.81,0
4018,59.57,2.24,-55.1,0
4019,59.59,-21.62,-53.29,0
4020,59.6,-19.53,-43.32,0
4021,59.61,-7.02,-41.03,0
4022,59.63,-0.76,-36.38,0
4023,59.64,1.18,-36.88,0
4024,59.65,-2.53,-33.34,0
4025,59.67,2.45,1.49,0
4026,59.68,8.58,-16.78,0
4027,59.69,-5.5,-23.78,0
4028,59.71,5.04,-17.01,0
4029,59.72,-7.48,-9.44,0
4030,59.73,18.47,-4.34,0
4031,59.75,7.18,-15.24,0
4032,59.76,-0.33,-11.98,0
4033,59.77,18.65,32.37,0
4034,59.79,-10.53,27.26,0
4035,59.8,-11.97,10.84,0
4036,59.81,3.05,26.57,0
4037,59.83,34.46,16.4,0
4038,59.84,-8.21,12.63,0
4039,59.85,-7.45,12.01,0
4040,59.87,5.98,57.97,0
4041,59.88,19.1,31.69,0
4042,59.89,12.37,39.6,0
4043,59.9,14.19,37.59,0
4044,59.92,10.99,22.43,0
4045,59.93,19.58,24.65,0
4046,59.94,-1.87,-8.4,0
4047,59.96,-13.6,20.0,0
4048,59.97,-1.16,23.46,0
4049,59.98,16.01,9.25,0
4050,60.0,10.5,30.41,0
