,Timestamp,Data1,Data2,Label
0,6.0,-1.97,-15.55,0
1,6.01,3.99,1.03,0
2,6.03,-22.18,30.64,0
3,6.04,-6.54,-0.76,0
4,6.05,-1.46,-13.72,0
5,6.07,-0.5,-2.15,0
6,6.08,12.91,-13.38,0
7,6.09,11.92,-29.03,0
8,6.11,-6.36,33.05,1
9,6.12,18.81,-15.24,1
10,6.13,-10.62,14.34,1
11,6.15,3.31,20.81,1
12,6.16,1.32,17.96,1
13,6.17,6.09,63.82,1
14,6.19,-18.98,21.7,1
15,6.2,55.61,6.06,1
16,6.21,45.04,166.7,1
17,6.23,-20.98,346.5,1
18,6.24,21.6,273.5,1
19,6.25,61.94,-62.98,1
20,6.27,-27.73,-521.9,1
21,6.28,92.68,-91.14,1
22,6.29,133.98,-14.3,1
23,6.31,231.02,327.07,1
24,6.32,193.03,-46.62,1
25,6.33,12.55,-280.58,1
26,6.35,-48.67,158.28,1
27,6.36,-39.63,69.81,1
28,6.37,-309.66,-239.42,1
29,6.39,124.12,-445.09,1
30,6.4,-206.64,-407.45,1
31,6.41,-33.43,42.95,1
32,6.43,-284.71,-315.39,1
33,6.44,-184.56,31.57,1
34,6.45,-131.09,-87.87,1
35,6.47,18.08,425.56,1
36,6.48,-127.41,-13.63,1
37,6.49,-75.71,269.98,1
38,6.51,74.6,306.25,1
39,6.52,-169.73,236.39,1
40,6.53,-122.53,196.34,1
41,6.55,-52.23,139.53,1
42,6.56,138.33,93.66,1
43,6.57,-69.41,49.63,1
44,6.59,266.68,14.85,1
45,6.6,-3.7,-16.15,1
46,6.61,-111.58,-42.83,1
47,6.63,145.2,-62.37,1
48,6.64,-76.6,-79.51,1
49,6.65,129.3,-353.24,1
50,6.67,-56.47,-709.21,1
51,6.68,-22.81,-260.6,1
52,6.69,-45.67,-387.11,1
53,6.71,-22.71,-533.21,1
54,6.72,126.23,-44.64,1
55,6.73,82.57,-24.5,1
56,6.75,264.87,237.25,1
57,6.76,-119.66,-238.39,1
58,6.77,232.53,-74.69,1
59,6.79,94.22,-68.25,1
60,6.8,6.02,-79.71,1
61,6.81,194.92,229.63,1
62,6.83,-116.89,489.04,1
63,6.84,26.42,303.5,1
64,6.85,65.46,20.16,1
65,6.87,-69.48,278.93,1
66,6.88,-47.71,33.29,1
67,6.89,-191.01,632.63,1
68,6.91,47.43,104.37,0
69,6.92,32.42,-256.39,0
70,6.93,-26.91,259.26,0
71,6.95,66.07,-92.17,0
72,6.96,-158.38,54.19,0
73,6.97,124.75,-301.64,0
74,6.99,17.05,-26.61,0
75,7.0,105.82,169.77,0
76,7.01,-144.48,168.58,0
77,7.03,41.0,229.21,0
78,7.04,17.68,320.12,0
79,7.05,-57.3,54.31,0
80,7.07,61.76,222.49,0
81,7.08,23.33,153.56,0
82,7.09,-35.29,109.67,0
83,7.11,-69.74,-24.24,0
84,7.12,-136.81,21.57,0
85,7.13,-172.3,-29.8,0
86,7.15,-162.24,-107.02,0
87,7.16,-172.76,-104.8,0
88,7.17,-41.31,2.69,0
89,7.19,49.47,-20.8,0
90,7.2,84.73,92.06,0
91,7.21,107.66,-84.21,0
92,7.23,135.75,-123.54,0
93,7.24,92.35,-91.98,0
94,7.25,126.09,-33.75,0
95,7.27,132.28,-38.05,0
96,7.28,127.75,-41.75,0
97,7.29,124.51,15.79,0
98,7.31,117.33,-0.31,0
99,7.32,118.69,18.11,0
100,7.33,88.58,-12.31,0
101,7.35,55.61,10.8,0
102,7.36,58.78,-20.33,0
103,7.37,17.59,-3.52,0
104,7.39,36.84,-62.67,0
105,7.4,15.61,15.79,0
106,7.41,-12.84,13.31,0
107,7.43,-8.08,-30.9,0
108,7.44,-29.84,-43.68,0
109,7.45,-38.21,-22.97,0
110,7.47,-73.56,-36.8,0
111,7.48,-53.24,-38.66,0
112,7.49,-78.8,-59.58,0
113,7.51,-68.36,-81.17,0
114,7.52,-63.13,-66.5,0
115,7.53,-72.63,-108.17,0
116,7.55,-47.6,-37.1,0
117,7.56,-82.69,-119.29,0
118,7.57,-62.75,-80.65,0
119,7.59,-65.76,-65.24,0
120,7.6,-75.75,-63.57,0
121,7.61,-62.42,-66.96,0
122,7.63,-69.56,-36.43,0
123,7.64,-71.28,-82.04,0
124,7.65,-56.62,-61.97,0
125,7.67,-44.36,-24.34,0
126,7.68,-70.09,-40.29,0
127,7.69,-45.49,-48.16,0
128,7.71,-25.58,-11.74,0
129,7.72,-32.37,-43.13,0
130,7.73,-27.51,-23.57,0
131,7.75,-43.43,-12.76,0
132,7.76,-16.82,16.27,0
133,7.77,-19.87,8.5,0
134,7.79,-5.64,-4.43,0
135,7.8,-14.08,0.36,0
136,7.81,2.31,2.34,0
137,7.83,13.2,11.87,0
138,7.84,17.86,36.47,0
139,7.85,17.15,31.25,0
140,7.87,11.26,23.6,0
141,7.88,27.01,35.95,0
142,7.89,27.13,64.55,0
143,7.91,24.85,45.21,0
144,7.92,17.66,29.94,0
145,7.93,13.08,53.33,0
146,7.95,27.39,65.52,0
147,7.96,37.06,32.13,0
148,7.97,32.75,57.82,0
149,7.99,4.67,50.77,0
150,8.0,32.26,21.54,0
151,8.01,11.19,8.08,0
152,8.03,19.07,47.03,0
153,8.04,42.49,18.37,0
154,8.05,30.51,16.44,0
155,8.07,25.42,15.55,0
156,8.08,39.12,26.71,0
157,8.09,19.25,15.37,0
158,8.11,24.02,30.41,1
159,8.12,23.95,61.36,1
160,8.13,26.76,45.97,1
161,8.15,-13.98,43.25,1
162,8.16,52.29,107.28,1
163,8.17,352.13,141.26,1
164,8.19,148.35,158.57,1
165,8.2,86.37,443.66,1
166,8.21,-151.72,110.32,1
167,8.23,185.11,-161.94,1
168,8.24,-63.35,68.37,1
169,8.25,11.03,146.59,1
170,8.27,25.29,-188.48,1
171,8.28,29.2,-305.14,1
172,8.29,183.27,-519.47,1
173,8.31,28.92,-347.33,1
174,8.32,-22.42,-10.84,1
175,8.33,52.7,-16.69,1
176,8.35,-37.85,166.61,1
177,8.36,-130.02,110.22,1
178,8.37,-203.8,-212.61,1
179,8.39,-344.29,129.2,1
180,8.4,-210.4,39.08,1
181,8.41,-444.56,-266.8,1
182,8.43,27.87,-139.23,1
183,8.44,-213.41,417.51,1
184,8.45,-112.58,-49.55,1
185,8.47,85.15,67.59,1
186,8.48,44.99,-32.69,1
187,8.49,11.08,-112.78,1
188,8.51,-292.71,292.27,1
189,8.52,20.92,-101.2,1
190,8.53,-30.39,-137.42,1
191,8.55,-49.17,-100.9,1
192,8.56,146.01,-11.21,1
193,8.57,-37.92,-468.96,1
194,8.59,-35.26,-133.69,1
195,8.6,18.25,103.09,1
196,8.61,25.62,280.62,1
197,8.63,398.91,-247.89,1
198,8.64,170.61,-214.11,1
199,8.65,121.21,50.97,1
200,8.67,31.38,537.3,1
201,8.68,-167.73,39.57,1
202,8.69,95.16,-208.61,1
203,8.71,-190.32,113.07,1
204,8.72,155.69,-48.66,1
205,8.73,-105.76,277.63,1
206,8.75,100.26,-153.15,1
207,8.76,32.3,292.21,1
208,8.77,59.18,-438.17,1
209,8.79,-68.27,-104.81,1
210,8.8,213.2,-282.59,1
211,8.81,-24.16,130.59,1
212,8.83,117.07,-329.44,1
213,8.84,82.94,278.93,1
214,8.85,258.94,326.26,1
215,8.87,-136.76,48.87,1
216,8.88,226.09,-164.02,1
217,8.89,-33.86,171.51,1
218,8.91,132.33,24.78,0
219,8.92,142.7,506.96,0
220,8.93,45.2,254.29,0
221,8.95,148.85,419.9,0
222,8.96,-57.1,-18.59,0
223,8.97,105.16,-84.4,0
224,8.99,-193.86,9.91,0
225,9.0,67.98,-213.57,0
226,9.01,-279.9,-207.55,0
227,9.03,-11.07,142.97,0
228,9.04,70.2,-43.83,0
229,9.05,-106.66,-74.7,0
230,9.07,-109.93,-45.03,0
231,9.08,-102.99,168.02,0
232,9.09,-137.79,137.43,0
233,9.11,-159.86,-42.32,0
234,9.12,-166.86,-178.22,0
235,9.13,-142.79,4.71,0
236,9.15,-151.1,-69.27,0
237,9.16,-85.88,-119.67,0
238,9.17,-84.81,-89.06,0
239,9.19,-15.03,76.87,0
240,9.2,31.65,70.94,0
241,9.21,84.99,43.04,0
242,9.23,95.9,-86.09,0
243,9.24,114.96,-27.84,0
244,9.25,99.94,-90.3,0
245,9.27,88.11,-100.57,0
246,9.28,74.69,-133.37,0
247,9.29,79.33,-114.49,0
248,9.31,78.08,-143.24,0
249,9.32,40.94,-93.77,0
250,9.33,51.88,-97.08,0
251,9.35,36.16,-37.0,0
252,9.36,40.49,-11.2,0
253,9.37,24.78,5.69,0
254,9.39,21.19,59.5,0
255,9.4,11.15,77.58,0
256,9.41,4.68,115.24,0
257,9.43,6.54,75.16,0
258,9.44,8.35,46.55,0
259,9.45,-12.51,57.8,0
260,9.47,-9.09,61.48,0
261,9.48,-29.17,53.42,0
262,9.49,-20.1,32.85,0
263,9.51,-39.23,45.71,0
264,9.52,-22.17,67.65,0
265,9.53,-42.42,11.13,0
266,9.55,-33.25,8.62,0
267,9.56,-27.12,11.56,0
268,9.57,-50.96,36.54,0
269,9.59,-42.88,7.72,0
270,9.6,-29.37,-12.53,0
271,9.61,-32.0,-14.21,0
272,9.63,-20.62,-12.06,0
273,9.64,-19.25,-15.6,0
274,9.65,-13.13,-19.84,0
275,9.67,-28.79,-19.0,0
276,9.68,-28.45,-32.5,0
277,9.69,-4.96,9.16,0
278,9.71,-19.08,9.22,0
279,9.72,-20.62,10.74,0
280,9.73,-26.13,-35.11,0
281,9.75,-16.11,-26.15,0
282,9.76,-30.91,-9.81,0
283,9.77,-23.18,-20.02,0
284,9.79,-24.78,-18.11,0
285,9.8,-10.85,-26.23,0
286,9.81,-2.58,-22.34,0
287,9.83,-5.01,-13.52,0
288,9.84,1.59,-27.97,0
289,9.85,-8.08,-2.63,0
290,9.87,1.58,7.04,0
291,9.88,-0.01,-23.62,0
292,9.89,11.73,-33.1,0
293,9.91,3.58,1.18,0
294,9.92,0.84,-22.55,0
295,9.93,14.36,-22.63,0
296,9.95,5.4,-8.22,0
297,9.96,10.73,-7.38,0
298,9.97,9.51,8.32,0
299,9.99,33.88,1.17,0
300,10.0,31.47,8.84,0
301,10.01,-7.55,9.47,0
302,10.03,-6.0,25.76,0
303,10.04,26.98,-10.13,0
304,10.05,37.34,-0.71,0
305,10.07,10.82,9.44,0
306,10.08,22.28,0.82,0
307,10.09,7.73,-8.15,0
308,10.11,26.52,-1.59,1
309,10.12,38.3,18.25,1
310,10.13,8.31,63.45,1
311,10.15,30.38,65.42,1
312,10.16,-31.18,-4.15,1
313,10.17,20.9,-226.8,1
314,10.19,231.55,80.51,1
315,10.2,65.85,217.37,1
316,10.21,157.26,355.7,1
317,10.23,9.15,-185.56,1
318,10.24,115.58,-308.17,1
319,10.25,147.78,-85.33,1
320,10.27,79.25,-274.01,1
321,10.28,126.9,332.97,1
322,10.29,78.05,259.79,1
323,10.31,-74.4,-241.83,1
324,10.32,-283.37,-222.23,1
325,10.33,143.04,-101.63,1
326,10.35,-163.17,-229.94,1
327,10.36,-288.68,124.01,1
328,10.37,-289.23,319.02,1
329,10.39,-435.57,-26.8,1
330,10.4,-138.46,-178.4,1
331,10.41,-31.71,176.81,1
332,10.43,24.44,113.52,1
333,10.44,19.46,321.63,1
334,10.45,57.8,-34.33,1
335,10.47,-51.41,-182.75,1
336,10.48,-113.73,-93.06,1
337,10.49,106.45,-6.49,1
338,10.51,96.65,-246.4,1
339,10.52,-36.45,-164.52,1
340,10.53,4.55,137.6,1
341,10.55,88.23,278.92,1
342,10.56,-278.22,112.26,1
343,10.57,65.47,66.88,1
344,10.59,-89.39,183.29,1
345,10.6,111.98,488.26,1
346,10.61,30.46,-62.98,1
347,10.63,-32.26,-276.61,1
348,10.64,-24.24,281.14,1
349,10.65,-4.13,17.52,1
350,10.67,-123.75,-322.52,1
351,10.68,243.87,-230.59,1
352,10.69,100.43,-239.65,1
353,10.71,-55.36,127.29,1
354,10.72,83.29,-147.75,1
355,10.73,-116.99,115.95,1
356,10.75,60.21,-165.14,1
357,10.76,-91.45,455.38,1
358,10.77,162.65,-243.18,1
359,10.79,105.37,230.63,1
360,10.8,276.53,-50.25,1
361,10.81,155.43,-236.52,1
362,10.83,242.32,210.26,1
363,10.84,-85.87,-377.42,1
364,10.85,-32.94,32.69,1
365,10.87,29.77,163.04,1
366,10.88,-56.22,475.84,1
367,10.89,-2.73,243.85,1
368,10.91,174.71,90.63,0
369,10.92,-181.02,74.33,0
370,10.93,117.87,63.8,0
371,10.95,30.5,-379.57,0
372,10.96,394.24,33.99,0
373,10.97,166.99,-52.05,0
374,10.99,-34.64,-235.51,0
375,11.0,-55.88,-80.64,0
376,11.01,70.51,-596.28,0
377,11.03,-333.11,-233.34,0
378,11.04,-209.68,91.29,0
379,11.05,-275.97,295.7,0
380,11.07,125.43,18.26,0
381,11.08,-215.35,-266.84,0
382,11.09,-63.95,277.32,0
383,11.11,-80.16,-115.85,0
384,11.12,-47.01,44.75,0
385,11.13,23.68,-217.9,0
386,11.15,-19.55,-158.3,0
387,11.16,-34.99,-162.83,0
388,11.17,-123.64,-79.21,0
389,11.19,-131.18,-192.1,0
390,11.2,-82.87,10.13,0
391,11.21,-101.26,23.94,0
392,11.23,-5.16,-8.36,0
393,11.24,65.82,37.05,0
394,11.25,87.2,89.52,0
395,11.27,115.96,85.98,0
396,11.28,126.72,-55.18,0
397,11.29,96.58,-24.59,0
398,11.31,121.88,-8.45,0
399,11.32,85.17,-37.83,0
400,11.33,77.06,-35.71,0
401,11.35,81.79,26.68,0
402,11.36,92.9,111.41,0
403,11.37,58.49,83.63,0
404,11.39,40.43,131.95,0
405,11.4,37.01,160.72,0
406,11.41,18.53,167.57,0
407,11.43,11.2,182.61,0
408,11.44,15.47,170.13,0
409,11.45,18.32,121.11,0
410,11.47,-9.45,118.03,0
411,11.48,-27.29,105.68,0
412,11.49,-11.96,110.19,0
413,11.51,-27.82,107.89,0
414,11.52,-48.34,125.56,0
415,11.53,-46.11,59.05,0
416,11.55,-51.11,60.99,0
417,11.56,-57.24,35.81,0
418,11.57,-38.85,-1.22,0
419,11.59,-69.33,-17.06,0
420,11.6,-54.32,-5.17,0
421,11.61,-40.88,-14.15,0
422,11.63,-42.9,-29.55,0
423,11.64,-24.13,-3.23,0
424,11.65,-54.6,-1.31,0
425,11.67,-69.24,-66.1,0
426,11.68,-68.51,-38.63,0
427,11.69,-69.75,-33.18,0
428,11.71,-67.27,-45.52,0
429,11.72,-43.37,-39.24,0
430,11.73,-36.9,-67.27,0
431,11.75,-22.74,-63.5,0
432,11.76,-24.97,-68.3,0
433,11.77,-2.19,-78.46,0
434,11.79,-14.75,-78.16,0
435,11.8,-20.46,-85.4,0
436,11.81,-9.77,-39.15,0
437,11.83,0.33,-45.13,0
438,11.84,14.44,-51.83,0
439,11.85,22.15,-41.07,0
440,11.87,-1.35,-56.02,0
441,11.88,8.81,-55.53,0
442,11.89,20.94,-57.15,0
443,11.91,10.79,-58.85,0
444,11.92,11.79,9.32,0
445,11.93,11.73,-57.55,0
446,11.95,13.3,-42.74,0
447,11.96,27.71,-28.71,0
448,11.97,39.3,-0.43,0
449,11.99,38.84,-21.51,0
450,12.0,16.52,-18.14,0
451,12.01,10.43,12.08,0
452,12.03,14.48,-5.67,0
453,12.04,36.53,-5.43,0
454,12.05,11.54,4.42,0
455,12.07,25.33,-0.18,0
456,12.08,23.75,-24.06,0
457,12.09,9.23,4.93,0
458,12.11,42.91,17.64,1
459,12.12,18.07,28.44,1
460,12.13,65.11,126.38,1
461,12.15,17.88,296.44,1
462,12.16,-217.07,370.75,1
463,12.17,208.98,161.37,1
464,12.19,83.65,-210.35,1
465,12.2,133.62,-190.38,1
466,12.21,112.53,1.6,1
467,12.23,205.28,-465.75,1
468,12.24,227.71,-9.69,1
469,12.25,189.64,-122.77,1
470,12.27,49.96,-125.94,1
471,12.28,-36.72,-101.72,1
472,12.29,-119.46,95.71,1
473,12.31,-107.0,-290.23,1
474,12.32,-44.21,-163.77,1
475,12.33,-52.41,-112.65,1
476,12.35,-303.31,-14.52,1
477,12.36,138.59,129.7,1
478,12.37,-2.53,534.88,1
479,12.39,-279.79,40.63,1
480,12.4,-242.54,28.61,1
481,12.41,-280.94,-287.3,1
482,12.43,-178.49,226.53,1
483,12.44,-78.67,-17.09,1
484,12.45,-187.4,-30.77,1
485,12.47,-16.86,-68.1,1
486,12.48,-201.86,277.27,1
487,12.49,-58.9,417.74,1
488,12.51,34.14,-69.48,1
489,12.52,209.24,299.3,1
490,12.53,80.29,33.09,1
491,12.55,200.44,23.47,1
492,12.56,129.19,39.4,1
493,12.57,-83.47,-46.14,1
494,12.59,34.95,-116.65,1
495,12.6,67.99,16.08,1
496,12.61,-133.11,121.5,1
497,12.63,131.79,241.36,1
498,12.64,-184.0,175.83,1
499,12.65,200.29,-336.76,1
500,12.67,92.45,42.07,1
501,12.68,28.62,-191.96,1
502,12.69,19.12,-43.1,1
503,12.71,38.77,224.42,1
504,12.72,63.89,-37.24,1
505,12.73,92.25,-228.43,1
506,12.75,12.39,46.19,1
507,12.76,6.07,248.41,1
508,12.77,27.92,-255.42,1
509,12.79,156.09,-121.19,1
510,12.8,84.36,-318.82,1
511,12.81,182.89,226.15,1
512,12.83,-96.48,0.66,1
513,12.84,73.41,-17.34,1
514,12.85,65.2,230.16,1
515,12.87,-59.43,-47.1,1
516,12.88,-78.19,-494.26,1
517,12.89,138.32,136.89,1
518,12.91,-190.5,242.35,0
519,12.92,80.02,-200.63,0
520,12.93,-352.13,-45.97,0
521,12.95,-17.1,280.77,0
522,12.96,113.33,-186.66,0
523,12.97,-210.52,89.1,0
524,12.99,185.92,-302.59,0
525,13.0,-117.24,-24.49,0
526,13.01,-151.12,-308.13,0
527,13.03,93.95,-47.85,0
528,13.04,90.14,-39.51,0
529,13.05,-28.03,-135.88,0
530,13.07,75.6,-3.4,0
531,13.08,-26.45,144.95,0
532,13.09,-5.97,106.77,0
533,13.11,-46.85,109.22,0
534,13.12,-63.31,112.42,0
535,13.13,-109.68,73.02,0
536,13.15,-82.32,51.83,0
537,13.16,-62.69,-31.54,0
538,13.17,-6.59,47.16,0
539,13.19,63.52,-26.25,0
540,13.2,88.57,15.52,0
541,13.21,131.88,30.18,0
542,13.23,162.16,37.43,0
543,13.24,117.48,78.32,0
544,13.25,97.7,2.06,0
545,13.27,58.93,-76.33,0
546,13.28,55.74,-60.68,0
547,13.29,47.07,-34.95,0
548,13.31,31.13,-31.03,0
549,13.32,16.81,-40.05,0
550,13.33,-2.22,-14.91,0
551,13.35,-4.94,12.19,0
552,13.36,-20.64,11.95,0
553,13.37,-4.05,39.92,0
554,13.39,-29.11,56.79,0
555,13.4,-10.92,28.37,0
556,13.41,-27.87,53.05,0
557,13.43,-31.89,36.79,0
558,13.44,-34.68,29.51,0
559,13.45,-35.23,31.53,0
560,13.47,-29.05,39.41,0
561,13.48,-69.21,36.72,0
562,13.49,-66.32,11.66,0
563,13.51,-51.1,3.93,0
564,13.52,-42.54,17.14,0
565,13.53,-31.04,54.73,0
566,13.55,-33.86,67.41,0
567,13.56,-20.62,38.89,0
568,13.57,-35.98,11.78,0
569,13.59,-24.76,19.23,0
570,13.6,-31.34,2.62,0
571,13.61,-35.45,15.95,0
572,13.63,-25.82,22.02,0
573,13.64,-33.37,7.14,0
574,13.65,-19.92,-46.86,0
575,13.67,-23.06,-8.18,0
576,13.68,-24.65,-43.84,0
577,13.69,-14.67,-10.7,0
578,13.71,-24.49,-38.76,0
579,13.72,-12.61,-33.2,0
580,13.73,-32.28,-10.16,0
581,13.75,-12.61,-17.69,0
582,13.76,-3.88,-3.91,0
583,13.77,-5.45,-13.27,0
584,13.79,-4.82,-32.01,0
585,13.8,10.05,-49.38,0
586,13.81,8.88,-42.11,0
587,13.83,-3.76,-19.71,0
588,13.84,11.76,-41.57,0
589,13.85,19.43,-3.73,0
590,13.87,3.29,-10.27,0
591,13.88,5.44,-13.73,0
592,13.89,13.54,-43.5,0
593,13.91,6.67,-37.51,0
594,13.92,15.94,-14.61,0
595,13.93,12.66,-26.74,0
596,13.95,18.81,17.44,0
597,13.96,26.16,-11.33,0
598,13.97,13.75,-19.48,0
599,13.99,21.84,-26.38,0
600,14.0,20.59,0.66,0
601,14.01,30.54,-21.43,0
602,14.03,19.15,-5.33,0
603,14.04,12.06,-10.48,0
604,14.05,20.22,5.8,0
605,14.07,17.31,49.8,0
606,14.08,42.54,249.09,0
607,14.09,133.56,250.65,0
608,14.11,10.9,-148.66,1
609,14.12,196.67,22.79,1
610,14.13,48.92,58.88,1
611,14.15,112.3,329.63,1
612,14.16,-30.17,-73.19,1
613,14.17,127.92,-376.77,1
614,14.19,-145.77,-31.76,1
615,14.2,185.03,119.61,1
616,14.21,98.69,-203.71,1
617,14.23,172.67,-241.86,1
618,14.24,77.88,-8.73,1
619,14.25,-11.38,-514.37,1
620,14.27,-125.63,-247.0,1
621,14.28,-284.68,-42.66,1
622,14.29,-302.33,-141.77,1
623,14.31,-172.09,-35.93,1
624,14.32,-274.92,266.12,1
625,14.33,-197.54,-110.95,1
626,14.35,-286.28,348.94,1
627,14.36,212.42,236.76,1
628,14.37,-349.33,-416.8,1
629,14.39,-18.67,261.71,1
630,14.4,113.09,479.07,1
631,14.41,52.59,96.63,1
632,14.43,-139.26,101.88,1
633,14.44,54.35,-272.82,1
634,14.45,-240.77,-99.96,1
635,14.47,42.93,141.81,1
636,14.48,27.43,-190.28,1
637,14.49,156.45,469.76,1
638,14.51,-20.05,16.16,1
639,14.52,-7.92,-291.42,1
640,14.53,-94.72,-149.23,1
641,14.55,22.15,188.56,1
642,14.56,237.36,502.82,1
643,14.57,-49.85,198.08,1
644,14.59,-0.06,175.21,1
645,14.6,119.69,-75.82,1
646,14.61,-9.0,304.46,1
647,14.63,194.02,-109.83,1
648,14.64,-84.91,16.71,1
649,14.65,16.85,-307.06,1
650,14.67,158.6,-353.79,1
651,14.68,138.79,95.36,1
652,14.69,294.87,123.42,1
653,14.71,195.41,-148.51,1
654,14.72,146.27,-128.25,1
655,14.73,127.77,-219.17,1
656,14.75,47.49,39.75,1
657,14.76,168.75,-20.34,1
658,14.77,52.46,167.53,1
659,14.79,128.82,464.69,1
660,14.8,-66.83,-22.15,1
661,14.81,-186.3,-189.25,1
662,14.83,51.58,-279.86,1
663,14.84,-103.2,-23.38,1
664,14.85,126.5,276.28,1
665,14.87,-32.56,-121.42,1
666,14.88,-7.12,-136.59,1
667,14.89,-18.4,94.86,1
668,14.91,-60.56,-23.81,0
669,14.92,-69.71,18.84,0
670,14.93,-119.75,-26.25,0
671,14.95,-112.57,27.86,0
672,14.96,-162.93,69.41,0
673,14.97,-114.56,-58.32,0
674,14.99,-101.66,47.86,0
675,15.0,-32.09,139.07,0
676,15.01,39.02,5.91,0
677,15.03,64.79,68.39,0
678,15.04,50.2,48.3,0
679,15.05,68.18,-78.7,0
680,15.07,79.86,-156.83,0
681,15.08,25.1,-162.35,0
682,15.09,27.76,-132.7,0
683,15.11,4.61,-151.93,0
684,15.12,22.83,-119.33,0
685,15.13,2.61,-148.8,0
686,15.15,0.17,-128.62,0
687,15.16,-27.6,-48.79,0
688,15.17,1.41,-33.21,0
689,15.19,-42.76,-15.45,0
690,15.2,-45.69,-5.77,0
691,15.21,-43.48,48.91,0
692,15.23,-42.44,35.82,0
693,15.24,-41.49,54.02,0
694,15.25,-55.94,82.5,0
695,15.27,-33.75,53.4,0
696,15.28,-45.37,53.54,0
697,15.29,-33.09,51.83,0
698,15.31,-54.96,53.91,0
699,15.32,-46.29,22.18,0
700,15.33,-45.42,0.68,0
701,15.35,-49.92,-15.86,0
702,15.36,-38.05,19.99,0
703,15.37,-44.67,-28.71,0
704,15.39,-28.23,-6.95,0
705,15.4,-29.49,37.08,0
706,15.41,-32.29,39.17,0
707,15.43,-72.07,33.59,0
708,15.44,-52.56,36.5,0
709,15.45,-38.27,13.51,0
710,15.47,-5.42,28.88,0
711,15.48,-6.39,23.21,0
712,15.49,24.74,16.71,0
713,15.51,17.61,-18.44,0
714,15.52,30.95,35.3,0
715,15.53,22.05,16.41,0
716,15.55,17.91,27.4,0
717,15.56,17.01,22.69,0
718,15.57,27.72,26.27,0
719,15.59,34.29,25.45,0
720,15.6,37.76,9.29,0
721,15.61,34.1,33.11,0
722,15.63,25.75,-0.7,0
723,15.64,37.65,-29.76,0
724,15.65,32.48,8.77,0
725,15.67,18.86,-8.87,0
726,15.68,29.27,11.16,0
727,15.69,23.56,6.87,0
728,15.71,20.34,13.15,0
729,15.72,27.06,-16.63,0
730,15.73,31.21,-9.07,0
731,15.75,22.41,-3.98,0
732,15.76,5.28,-10.01,0
733,15.77,16.83,-11.08,0
734,15.79,17.76,-54.5,0
735,15.8,10.17,-1.08,0
736,15.81,15.65,6.59,0
737,15.83,21.12,24.57,0
738,15.84,13.95,0.29,0
739,15.85,5.08,-3.09,0
740,15.87,3.36,-11.47,0
741,15.88,18.82,7.12,0
742,15.89,19.85,22.76,0
743,15.91,15.26,13.31,0
744,15.92,24.75,-3.85,0
745,15.93,-0.34,-2.38,0
746,15.95,-15.0,-8.99,0
747,15.96,-16.37,7.5,0
748,15.97,-8.62,-3.32,0
749,15.99,-0.5,-9.01,0
750,16.0,-4.34,-20.64,0
751,16.01,-5.15,1.46,0
752,16.03,-19.96,-32.01,0
753,16.04,17.42,13.26,0
754,16.05,7.25,-15.89,0
755,16.07,-5.53,-8.76,0
756,16.08,0.66,-4.41,0
757,16.09,9.56,-18.3,0
758,16.11,-11.33,-20.1,1
759,16.12,13.19,60.82,1
760,16.13,81.01,277.69,1
761,16.15,132.76,363.52,1
762,16.16,128.03,54.25,1
763,16.17,-130.19,-404.04,1
764,16.19,-44.27,-105.64,1
765,16.2,88.56,285.28,1
766,16.21,-11.09,-19.78,1
767,16.23,289.18,241.61,1
768,16.24,111.42,18.37,1
769,16.25,-153.17,36.18,1
770,16.27,106.17,-402.63,1
771,16.28,-72.83,-367.73,1
772,16.29,144.25,-440.9,1
773,16.31,-10.03,-397.97,1
774,16.32,30.14,-16.94,1
775,16.33,-314.41,-130.43,1
776,16.35,-278.85,-369.15,1
777,16.36,-341.44,248.93,1
778,16.37,-228.37,133.82,1
779,16.39,-141.92,-275.38,1
780,16.4,-263.19,-211.59,1
781,16.41,-416.37,22.63,1
782,16.42,-72.51,59.18,1
783,16.44,-189.41,-212.17,1
784,16.45,-94.79,235.99,1
785,16.47,-1.57,436.5,1
786,16.48,-65.58,138.64,1
787,16.49,121.95,384.05,1
788,16.51,181.61,439.65,1
789,16.52,206.12,289.73,1
790,16.53,196.79,31.59,1
791,16.55,192.06,156.48,1
792,16.56,136.27,155.0,1
793,16.57,195.84,17.45,1
794,16.59,269.35,-89.67,1
795,16.6,345.54,-99.21,1
796,16.61,-38.67,142.35,1
797,16.63,238.65,-95.83,1
798,16.64,-135.06,182.64,1
799,16.65,-74.36,-416.14,1
800,16.67,-157.99,392.65,1
801,16.68,-104.19,-102.27,1
802,16.69,196.07,-212.26,1
803,16.71,122.38,-132.5,1
804,16.72,45.11,514.25,1
805,16.73,136.32,-8.84,1
806,16.75,195.24,-449.31,1
807,16.76,-246.86,-350.65,1
808,16.77,-1.69,-110.64,1
809,16.79,-82.56,-154.28,1
810,16.8,120.37,114.04,1
811,16.81,53.58,-311.0,1
812,16.83,79.35,359.43,1
813,16.84,157.46,250.92,1
814,16.85,55.1,72.6,1
815,16.87,-97.1,-26.33,1
816,16.88,27.99,3.62,1
817,16.89,-57.45,-259.16,1
818,16.91,-102.1,383.54,0
819,16.92,4.31,-89.51,0
820,16.93,60.99,-196.81,0
821,16.95,-412.1,24.9,0
822,16.96,-198.03,-90.76,0
823,16.97,-117.84,-48.79,0
824,16.99,-28.01,-49.24,0
825,17.0,-83.44,-63.09,0
826,17.01,-124.29,-40.74,0
827,17.03,-101.51,44.31,0
828,17.04,-121.44,136.78,0
829,17.05,-90.64,132.81,0
830,17.06,-85.51,51.38,0
831,17.08,-11.2,-80.26,0
832,17.09,20.91,-90.6,0
833,17.11,92.57,-87.34,0
834,17.12,103.6,-93.8,0
835,17.13,116.94,-82.33,0
836,17.15,104.09,-72.48,0
837,17.16,83.19,-49.7,0
838,17.17,95.79,-47.12,0
839,17.19,76.97,-30.65,0
840,17.2,88.88,12.57,0
841,17.21,88.35,41.15,0
842,17.23,87.92,43.82,0
843,17.24,81.19,65.39,0
844,17.25,67.77,80.9,0
845,17.27,58.84,21.41,0
846,17.28,33.68,37.4,0
847,17.29,31.35,42.11,0
848,17.31,24.85,66.83,0
849,17.32,10.94,58.22,0
850,17.33,7.14,59.87,0
851,17.35,-30.92,97.05,0
852,17.36,-16.64,71.18,0
853,17.37,-28.4,77.71,0
854,17.39,-16.48,40.77,0
855,17.4,-18.2,10.67,0
856,17.41,-38.27,20.55,0
857,17.43,-33.43,43.46,0
858,17.44,-40.69,8.58,0
859,17.45,-54.02,17.15,0
860,17.47,-40.11,-10.58,0
861,17.48,-41.53,10.81,0
862,17.49,-52.34,12.44,0
863,17.51,-45.76,0.02,0
864,17.52,-47.32,-20.14,0
865,17.53,-26.76,-35.98,0
866,17.55,-59.31,4.24,0
867,17.56,-29.87,-43.96,0
868,17.57,-22.71,-27.17,0
869,17.59,-19.29,-53.58,0
870,17.6,-35.29,-48.26,0
871,17.61,-47.69,-20.34,0
872,17.63,-28.51,-24.24,0
873,17.64,-7.0,-41.44,0
874,17.65,-16.9,-18.99,0
875,17.67,-23.21,-27.3,0
876,17.68,-24.45,-13.26,0
877,17.69,-10.35,-28.08,0
878,17.7,-10.23,-8.56,0
879,17.72,-5.53,-24.08,0
880,17.73,-0.52,-49.86,0
881,17.75,0.42,-21.63,0
882,17.76,-4.23,-40.82,0
883,17.77,10.85,-36.1,0
884,17.79,28.35,-17.81,0
885,17.8,22.88,16.13,0
886,17.81,17.43,-6.8,0
887,17.83,27.43,0.29,0
888,17.84,17.79,-34.46,0
889,17.85,20.13,-22.24,0
890,17.87,-13.67,-12.66,0
891,17.88,-4.18,-9.18,0
892,17.89,13.42,-6.34,0
893,17.91,9.54,-0.13,0
894,17.92,6.67,13.15,0
895,17.93,12.42,-7.6,0
896,17.95,15.61,-21.42,0
897,17.96,38.86,35.1,0
898,17.97,8.06,-5.46,0
899,17.99,19.79,-4.38,0
900,18.0,19.25,24.39,0
901,18.01,16.01,14.0,0
902,18.03,17.95,10.04,0
903,18.04,-3.63,-11.47,0
904,18.05,7.43,6.86,0
905,18.07,1.54,3.43,0
906,18.08,14.72,14.54,0
907,18.09,11.94,32.76,0
908,18.11,25.26,10.34,1
909,18.12,19.26,12.83,1
910,18.13,-10.23,25.74,1
911,18.15,24.29,149.46,1
912,18.16,-120.75,481.52,1
913,18.17,99.35,57.82,1
914,18.19,130.13,-259.8,1
915,18.2,345.04,8.85,1
916,18.21,26.02,-196.71,1
917,18.23,237.15,241.67,1
918,18.24,-227.98,181.42,1
919,18.25,279.77,35.02,1
920,18.27,-47.91,299.86,1
921,18.28,54.83,23.96,1
922,18.29,40.04,-285.79,1
923,18.31,-25.38,-284.55,1
924,18.32,-184.53,-167.04,1
925,18.33,-331.21,-323.77,1
926,18.34,-137.67,22.21,1
927,18.36,-117.57,-211.43,1
928,18.37,-293.07,19.86,1
929,18.39,-13.89,-425.78,1
930,18.4,-230.62,304.65,1
931,18.41,-63.22,-176.85,1
932,18.43,-9.48,366.29,1
933,18.44,-43.65,-251.38,1
934,18.45,-50.41,-404.91,1
935,18.47,45.01,143.58,1
936,18.48,8.83,112.01,1
937,18.49,78.52,-80.38,1
938,18.51,31.91,171.96,1
939,18.52,44.58,339.96,1
940,18.53,232.37,32.05,1
941,18.55,-35.35,111.32,1
942,18.56,54.07,166.27,1
943,18.57,-73.84,138.93,1
944,18.59,144.55,-53.94,1
945,18.6,-112.62,297.58,1
946,18.61,37.13,96.38,1
947,18.63,-132.79,77.9,1
948,18.64,65.17,-295.57,1
949,18.65,-96.91,-167.53,1
950,18.67,-178.65,-71.98,1
951,18.68,-42.81,-43.3,1
952,18.69,69.68,-411.78,1
953,18.71,-84.04,-269.44,1
954,18.72,55.29,54.66,1
955,18.73,41.52,-427.94,1
956,18.75,113.7,-133.16,1
957,18.76,97.51,3.88,1
958,18.77,-1.64,278.48,1
959,18.79,32.96,-8.39,1
960,18.8,51.56,-66.32,1
961,18.81,59.79,434.99,1
962,18.83,8.64,227.09,1
963,18.84,74.38,-38.54,1
964,18.85,-180.6,-206.31,1
965,18.87,51.18,29.97,1
966,18.88,45.2,128.47,1
967,18.89,18.14,32.73,1
968,18.91,148.44,117.84,0
969,18.92,-41.46,-6.73,0
970,18.93,102.91,50.08,0
971,18.95,57.38,44.82,0
972,18.96,13.7,21.33,0
973,18.97,-4.34,111.66,0
974,18.98,-69.97,129.58,0
975,19.0,-98.27,162.94,0
976,19.01,-27.35,140.93,0
977,19.025,52.05,112.34,0
978,19.04,84.71,9.08,0
979,19.05,90.72,-44.14,0
980,19.07,97.13,-149.5,0
981,19.08,108.22,-108.19,0
982,19.09,111.88,-55.16,0
983,19.11,95.14,-86.52,0
984,19.12,85.72,-72.97,0
985,19.13,67.8,13.97,0
986,19.15,62.74,31.68,0
987,19.16,43.59,55.32,0
988,19.17,29.08,83.51,0
989,19.19,14.6,129.34,0
990,19.2,19.03,84.04,0
991,19.21,-14.49,75.37,0
992,19.23,-22.13,78.31,0
993,19.24,-20.01,71.36,0
994,19.25,-52.37,57.36,0
995,19.27,-46.82,6.09,0
996,19.28,-72.87,5.22,0
997,19.29,-62.19,32.35,0
998,19.31,-60.13,1.41,0
999,19.32,-63.07,-11.17,0
1000,19.33,-72.21,-24.41,0
1001,19.35,-90.11,-43.33,0
1002,19.36,-65.27,-48.97,0
1003,19.37,-61.39,-84.83,0
1004,19.39,-69.55,-81.97,0
1005,19.4,-58.59,-59.31,0
1006,19.41,-75.07,-78.75,0
1007,19.43,-77.63,-55.59,0
1008,19.44,-71.64,-53.43,0
1009,19.45,-68.07,-42.63,0
1010,19.47,-77.03,-58.24,0
1011,19.48,-69.55,-34.68,0
1012,19.49,-51.79,-33.27,0
1013,19.51,-55.79,-52.78,0
1014,19.52,-47.15,-69.25,0
1015,19.53,-48.44,-52.12,0
1016,19.55,-45.99,-59.62,0
1017,19.56,-26.11,-20.94,0
1018,19.57,-25.98,-35.91,0
1019,19.59,-9.88,-50.06,0
1020,19.6,11.36,-67.0,0
1021,19.61,-10.77,-23.73,0
1022,19.62,-3.06,-66.41,0
1023,19.64,3.19,-43.43,0
1024,19.65,20.83,-15.74,0
1025,19.67,20.37,-4.84,0
1026,19.68,11.98,-36.91,0
1027,19.69,26.11,-18.54,0
1028,19.71,30.18,-11.14,0
1029,19.72,31.38,-19.44,0
1030,19.73,24.78,-17.54,0
1031,19.75,36.96,3.83,0
1032,19.76,32.12,0.04,0
1033,19.77,33.5,-25.86,0
1034,19.79,33.43,12.35,0
1035,19.8,41.64,-18.17,0
1036,19.81,44.19,-1.49,0
1037,19.83,23.75,26.65,0
1038,19.84,42.04,32.19,0
1039,19.85,30.86,48.99,0
1040,19.87,22.34,16.95,0
1041,19.88,40.94,32.56,0
1042,19.89,33.87,53.83,0
1043,19.91,47.57,43.28,0
1044,19.92,34.38,45.94,0
1045,19.93,5.73,14.4,0
1046,19.95,6.42,20.26,0
1047,19.96,24.26,46.29,0
1048,19.97,36.55,58.58,0
1049,19.99,39.47,19.42,0
1050,20.0,32.92,19.5,0
1051,20.01,1.82,28.32,0
1052,20.03,13.4,14.21,0
1053,20.04,-21.86,41.09,0
1054,20.05,-11.73,28.13,0
1055,20.07,-1.81,32.47,0
1056,20.08,3.03,29.94,0
1057,20.09,15.39,56.16,0
1058,20.11,42.0,-10.47,1
1059,20.12,30.82,4.8,1
1060,20.13,5.54,48.89,1
1061,20.15,89.69,256.23,1
1062,20.16,-87.79,80.26,1
1063,20.17,-17.55,-114.0,1
1064,20.19,136.88,476.13,1
1065,20.2,85.88,120.55,1
1066,20.21,180.83,294.5,1
1067,20.23,167.34,110.48,1
1068,20.24,185.12,10.42,1
1069,20.25,-32.33,-25.02,1
1070,20.26,96.74,-173.01,1
1071,20.28,-68.05,-601.71,1
1072,20.29,26.76,-345.74,1
1073,20.3,-89.02,-320.69,1
1074,20.32,-258.04,-136.38,1
1075,20.33,-248.3,-241.66,1
1076,20.35,-316.8,-203.53,1
1077,20.36,-266.81,222.93,1
1078,20.37,-246.01,-298.49,1
1079,20.39,-260.84,-257.62,1
1080,20.4,-218.69,181.18,1
1081,20.41,-34.14,81.84,1
1082,20.43,18.75,154.92,1
1083,20.44,-74.55,-254.82,1
1084,20.45,13.91,46.94,1
1085,20.47,87.05,141.78,1
1086,20.48,67.75,61.88,1
1087,20.49,69.25,205.51,1
1088,20.51,29.1,-229.92,1
1089,20.52,317.66,14.18,1
1090,20.53,32.27,431.8,1
1091,20.55,-178.73,-136.98,1
1092,20.56,8.88,-125.0,1
1093,20.57,-78.77,39.28,1
1094,20.59,175.82,-155.14,1
1095,20.6,87.43,-54.64,1
1096,20.61,-10.48,-132.99,1
1097,20.63,-142.97,-76.42,1
1098,20.64,-43.31,151.12,1
1099,20.65,119.86,-131.77,1
1100,20.67,59.28,384.32,1
1101,20.68,192.76,67.49,1
1102,20.69,128.14,309.6,1
1103,20.71,-35.59,93.05,1
1104,20.72,113.55,341.1,1
1105,20.73,-115.43,-19.79,1
1106,20.75,298.8,410.15,1
1107,20.76,-78.2,109.96,1
1108,20.77,74.92,171.76,1
1109,20.79,-0.86,63.27,1
1110,20.8,107.78,-340.92,1
1111,20.81,-97.33,-41.69,1
1112,20.83,293.47,92.09,1
1113,20.84,224.94,-78.87,1
1114,20.85,95.97,-185.33,1
1115,20.87,-9.28,61.58,1
1116,20.88,69.26,11.43,1
1117,20.89,-184.58,-157.66,1
1118,20.9,-104.67,-131.05,1
1119,20.92,-202.25,-92.31,0
1120,20.93,-16.42,-133.37,0
1121,20.94,-130.09,-130.94,0
1122,20.96,-157.57,-96.86,0
1123,20.97,-125.32,-40.59,0
1124,20.99,-198.63,206.27,0
1125,21.0,-175.69,43.37,0
1126,21.01,-110.1,5.25,0
1127,21.03,-20.92,-4.46,0
1128,21.04,47.53,-33.78,0
1129,21.05,47.6,-79.61,0
1130,21.07,40.25,-163.67,0
1131,21.08,98.86,-180.7,0
1132,21.09,109.61,-199.79,0
1133,21.11,97.26,-174.61,0
1134,21.12,80.87,-162.26,0
1135,21.13,74.09,4.99,0
1136,21.15,74.21,19.72,0
1137,21.16,71.35,101.0,0
1138,21.17,81.87,113.45,0
1139,21.19,48.01,106.96,0
1140,21.2,46.83,112.45,0
1141,21.21,32.39,114.71,0
1142,21.23,30.35,121.11,0
1143,21.24,30.35,86.33,0
1144,21.25,19.34,128.62,0
1145,21.27,9.1,68.79,0
1146,21.28,-1.06,102.6,0
1147,21.29,-1.11,77.1,0
1148,21.31,-18.71,52.24,0
1149,21.32,-13.09,40.02,0
1150,21.33,-16.54,8.12,0
1151,21.35,-22.91,19.48,0
1152,21.36,-54.18,19.04,0
1153,21.37,-15.34,-8.16,0
1154,21.39,-39.12,-5.38,0
1155,21.4,-38.53,-29.81,0
1156,21.41,-53.66,4.74,0
1157,21.43,-37.41,-10.9,0
1158,21.44,-44.85,-14.86,0
1159,21.45,-47.01,-10.5,0
1160,21.47,-40.21,19.41,0
1161,21.48,-47.92,-26.77,0
1162,21.49,-34.06,-36.18,0
1163,21.51,-38.21,-22.86,0
1164,21.52,-56.98,-16.4,0
1165,21.53,-32.92,-25.74,0
1166,21.54,-31.12,-36.45,0
1167,21.56,-38.51,-25.34,0
1168,21.57,-40.52,-58.73,0
1169,21.58,-28.05,-43.51,0
1170,21.6,-14.69,-56.05,0
1171,21.61,-24.7,-60.15,0
1172,21.625,-16.01,-39.57,0
1173,21.64,-20.48,-34.54,0
1174,21.65,-5.36,-77.55,0
1175,21.67,-12.88,-58.6,0
1176,21.68,14.34,13.15,0
1177,21.69,7.96,-45.99,0
1178,21.71,7.72,-14.26,0
1179,21.72,-6.41,-28.53,0
1180,21.73,16.58,-15.0,0
1181,21.75,5.64,-39.88,0
1182,21.76,22.04,-9.12,0
1183,21.77,18.55,-27.93,0
1184,21.79,10.47,9.27,0
1185,21.8,10.31,-7.05,0
1186,21.81,17.02,13.94,0
1187,21.83,19.38,-1.86,0
1188,21.84,32.7,-19.14,0
1189,21.85,7.65,-13.61,0
1190,21.87,7.46,5.64,0
1191,21.88,10.45,29.72,0
1192,21.89,29.98,26.46,0
1193,21.91,34.39,46.18,0
1194,21.92,36.72,17.16,0
1195,21.93,22.29,12.12,0
1196,21.95,21.94,30.82,0
1197,21.96,30.45,21.91,0
1198,21.97,28.32,25.38,0
1199,21.99,2.26,20.99,0
1200,22.0,12.93,18.87,0
1201,22.01,4.61,22.28,0
1202,22.03,10.4,20.22,0
1203,22.04,-16.35,26.15,0
1204,22.05,-10.6,51.05,0
1205,22.07,22.47,105.15,0
1206,22.08,6.11,106.45,0
1207,22.09,101.62,306.05,0
1208,22.11,266.36,158.84,1
1209,22.12,-21.88,-216.66,1
1210,22.13,82.47,112.8,1
1211,22.15,-211.15,338.16,1
1212,22.16,-12.8,111.65,1
1213,22.17,-199.06,28.27,1
1214,22.18,78.96,159.07,1
1215,22.2,-5.2,-169.13,1
1216,22.21,209.85,-535.68,1
1217,22.22,228.86,-138.71,1
1218,22.24,84.58,-171.79,1
1219,22.25,100.31,-283.7,1
1220,22.26,-83.77,-441.14,1
1221,22.28,73.69,-378.36,1
1222,22.29,27.33,-91.87,1
1223,22.31,-279.02,-269.93,1
1224,22.32,-146.07,420.61,1
1225,22.33,-325.59,47.37,1
1226,22.35,-158.05,-372.52,1
1227,22.36,-268.47,-93.79,1
1228,22.37,-327.88,298.08,1
1229,22.39,-135.33,472.8,1
1230,22.4,-261.85,91.08,1
1231,22.41,18.5,260.44,1
1232,22.43,-16.05,-291.39,1
1233,22.44,10.44,-4.88,1
1234,22.45,372.48,88.84,1
1235,22.47,-76.86,-290.46,1
1236,22.48,96.65,233.39,1
1237,22.49,130.18,370.88,1
1238,22.51,45.82,310.13,1
1239,22.52,-121.8,-179.9,1
1240,22.53,94.58,-99.01,1
1241,22.55,231.33,32.6,1
1242,22.56,117.87,226.07,1
1243,22.57,90.86,417.48,1
1244,22.59,66.8,142.08,1
1245,22.6,268.97,315.25,1
1246,22.61,148.42,203.23,1
1247,22.63,-38.58,-228.78,1
1248,22.64,-79.02,-326.92,1
1249,22.65,-143.28,34.87,1
1250,22.67,70.2,182.96,1
1251,22.68,67.12,-108.43,1
1252,22.69,-107.66,350.71,1
1253,22.71,-30.12,-124.21,1
1254,22.72,28.71,-590.87,1
1255,22.73,84.85,-540.06,1
1256,22.75,232.94,-457.87,1
1257,22.76,-123.88,-343.19,1
1258,22.77,-100.08,-264.24,1
1259,22.79,11.67,24.16,1
1260,22.8,-8.26,297.74,1
1261,22.81,-48.41,-123.29,1
1262,22.82,12.02,174.49,1
1263,22.84,189.52,284.88,1
1264,22.85,190.55,93.81,1
1265,22.86,53.21,528.21,1
1266,22.88,6.38,-1.08,1
1267,22.89,-104.51,-72.22,1
1268,22.9,-41.69,386.88,1
1269,22.92,-86.18,-341.8,0
1270,22.93,-87.46,95.31,0
1271,22.95,-77.53,-120.23,0
1272,22.96,-84.67,-15.98,0
1273,22.97,-64.9,-42.13,0
1274,22.99,-126.63,35.34,0
1275,23.0,-95.25,175.89,0
1276,23.01,-117.3,138.92,0
1277,23.03,-150.68,243.5,0
1278,23.04,-70.6,110.47,0
1279,23.05,-43.73,45.17,0
1280,23.07,21.63,-113.75,0
1281,23.08,48.07,-300.57,0
1282,23.09,84.98,-165.91,0
1283,23.11,113.57,-225.27,0
1284,23.12,110.4,-154.42,0
1285,23.13,108.7,-145.12,0
1286,23.15,89.06,-73.88,0
1287,23.16,96.57,-19.53,0
1288,23.17,82.87,3.61,0
1289,23.19,71.89,35.65,0
1290,23.2,54.74,62.53,0
1291,23.21,48.3,54.52,0
1292,23.23,37.24,63.46,0
1293,23.24,29.69,92.17,0
1294,23.25,17.12,39.55,0
1295,23.27,5.05,49.72,0
1296,23.28,-24.94,61.96,0
1297,23.29,-26.76,62.55,0
1298,23.31,-26.02,41.25,0
1299,23.32,-26.72,9.87,0
1300,23.33,-41.25,-3.41,0
1301,23.35,-22.69,15.55,0
1302,23.36,-30.88,-4.54,0
1303,23.37,-43.5,16.9,0
1304,23.39,-30.74,22.78,0
1305,23.4,-23.79,9.84,0
1306,23.41,-35.78,-27.97,0
1307,23.43,-46.57,14.54,0
1308,23.44,-46.27,12.34,0
1309,23.45,-36.54,-37.79,0
1310,23.46,-51.88,-11.21,0
1311,23.48,-46.79,-18.24,0
1312,23.49,-27.66,-11.24,0
1313,23.5,-36.8,-8.27,0
1314,23.52,-31.55,-43.75,0
1315,23.53,-43.68,-19.52,0
1316,23.54,-26.88,-33.28,0
1317,23.56,-16.05,-25.46,0
1318,23.57,-26.05,-48.86,0
1319,23.59,-23.18,-27.69,0
1320,23.6,-13.94,-30.11,0
1321,23.61,-13.14,-27.59,0
1322,23.63,-9.11,-1.6,0
1323,23.64,0.78,-29.75,0
1324,23.65,-10.26,-55.44,0
1325,23.67,-4.45,-38.9,0
1326,23.68,3.59,-67.18,0
1327,23.69,10.22,13.0,0
1328,23.71,15.38,-18.64,0
1329,23.72,18.79,14.35,0
1330,23.73,10.3,-42.48,0
1331,23.75,8.35,8.12,0
1332,23.76,12.9,12.62,0
1333,23.77,27.75,-13.32,0
1334,23.79,17.75,13.35,0
1335,23.8,9.21,-4.03,0
1336,23.81,27.23,40.76,0
1337,23.83,16.09,-24.45,0
1338,23.84,26.99,5.08,0
1339,23.85,4.63,16.97,0
1340,23.87,3.65,51.44,0
1341,23.88,26.78,43.99,0
1342,23.89,8.4,5.76,0
1343,23.91,14.69,30.71,0
1344,23.92,2.9,2.19,0
1345,23.93,15.84,-16.14,0
1346,23.95,41.01,22.63,0
1347,23.96,14.84,35.35,0
1348,23.97,29.08,8.37,0
1349,23.99,16.56,-15.07,0
1350,24.0,5.85,49.47,0
1351,24.01,-5.9,48.97,0
1352,24.03,10.63,48.29,0
1353,24.04,-15.02,-11.95,0
1354,24.05,15.8,47.58,0
1355,24.07,4.76,8.13,0
1356,24.08,21.88,33.14,0
1357,24.09,24.27,37.3,0
1358,24.1,-11.67,71.4,1
1359,24.12,9.46,65.2,1
1360,24.13,18.2,257.43,1
1361,24.14,11.19,380.56,1
1362,24.16,-126.73,114.34,1
1363,24.17,-272.32,-157.89,1
1364,24.18,-105.34,-108.57,1
1365,24.2,155.0,-253.53,1
1366,24.21,131.54,48.12,1
1367,24.22,300.45,16.16,1
1368,24.24,147.04,-513.51,1
1369,24.25,240.58,0.57,1
1370,24.27,292.71,44.04,1
1371,24.28,142.2,-197.54,1
1372,24.29,-142.06,310.77,1
1373,24.31,174.9,-105.74,1
1374,24.32,-417.85,-564.84,1
1375,24.33,52.2,-172.9,1
1376,24.35,-212.24,-265.64,1
1377,24.36,-121.04,-103.92,1
1378,24.37,-75.86,399.8,1
1379,24.39,20.3,417.4,1
1380,24.4,-271.47,114.75,1
1381,24.41,-11.09,-255.78,1
1382,24.43,-337.83,-15.56,1
1383,24.44,205.28,-223.52,1
1384,24.45,-278.18,356.87,1
1385,24.47,152.95,-231.46,1
1386,24.48,-220.98,519.64,1
1387,24.49,-261.24,-5.06,1
1388,24.51,9.75,-221.13,1
1389,24.52,-35.6,-125.1,1
1390,24.53,123.98,-147.88,1
1391,24.55,54.09,-159.66,1
1392,24.56,-86.38,209.81,1
1393,24.57,-105.7,-165.02,1
1394,24.59,162.73,-42.26,1
1395,24.6,154.96,641.2,1
1396,24.61,27.97,282.32,1
1397,24.63,173.0,249.88,1
1398,24.64,-42.43,-164.4,1
1399,24.65,93.53,-223.38,1
1400,24.67,-34.87,-211.4,1
1401,24.68,43.71,226.63,1
1402,24.69,-157.56,-61.29,1
1403,24.71,92.9,-84.67,1
1404,24.72,-230.62,-64.36,1
1405,24.73,229.51,-371.85,1
1406,24.75,36.22,335.47,1
1407,24.76,103.63,275.31,1
1408,24.77,-9.67,25.23,1
1409,24.78,63.88,-29.49,1
1410,24.8,4.87,19.63,1
1411,24.81,-99.37,47.96,1
1412,24.82,56.53,-74.86,1
1413,24.84,209.81,-14.61,1
1414,24.85,333.52,-587.6,1
1415,24.86,-3.89,120.97,1
1416,24.88,225.21,271.75,1
1417,24.89,154.41,-291.95,1
1418,24.91,45.98,-91.58,0
1419,24.92,-59.8,303.56,0
1420,24.93,-169.39,-353.17,0
1421,24.95,-130.76,127.17,0
1422,24.96,-0.73,-203.34,0
1423,24.97,-83.96,149.37,0
1424,24.99,89.1,113.21,0
1425,25.0,-60.88,0.74,0
1426,25.01,-46.67,260.68,0
1427,25.03,-131.89,-100.38,0
1428,25.04,-184.64,20.72,0
1429,25.05,13.87,-0.17,0
1430,25.07,-1.96,2.68,0
1431,25.08,-69.26,-48.43,0
1432,25.09,-32.42,55.0,0
1433,25.11,-65.18,205.21,0
1434,25.12,-100.13,114.79,0
1435,25.13,-114.54,173.35,0
1436,25.15,-124.78,181.22,0
1437,25.16,-101.01,98.04,0
1438,25.17,-23.73,10.18,0
1439,25.19,47.54,-241.93,0
1440,25.2,62.73,-300.22,0
1441,25.21,71.93,-387.52,0
1442,25.23,116.06,-303.39,0
1443,25.24,99.01,-182.06,0
1444,25.25,97.5,-98.19,0
1445,25.27,88.54,2.49,0
1446,25.28,79.88,28.87,0
1447,25.29,63.04,94.81,0
1448,25.31,54.82,126.32,0
1449,25.32,59.7,119.84,0
1450,25.33,30.15,127.75,0
1451,25.35,28.22,143.15,0
1452,25.36,8.78,181.57,0
1453,25.37,-10.6,131.21,0
1454,25.38,0.82,100.34,0
1455,25.4,0.38,79.5,0
1456,25.41,-4.74,86.11,0
1457,25.42,-26.19,23.83,0
1458,25.44,-19.1,8.9,0
1459,25.45,-17.2,17.18,0
1460,25.46,-28.77,37.18,0
1461,25.48,-25.57,11.44,0
1462,25.49,-37.51,6.6,0
1463,25.5,-55.33,-24.96,0
1464,25.52,-57.4,2.36,0
1465,25.53,-44.56,-14.25,0
1466,25.55,-41.62,-21.6,0
1467,25.56,-16.95,-21.21,0
1468,25.57,-34.7,-51.26,0
1469,25.59,-32.0,-31.25,0
1470,25.6,-32.08,-47.02,0
1471,25.61,-29.0,-38.53,0
1472,25.63,-21.92,-65.62,0
1473,25.64,-38.3,-69.53,0
1474,25.65,-32.85,-12.39,0
1475,25.67,-15.02,-69.32,0
1476,25.68,-16.29,-43.53,0
1477,25.69,-17.52,-49.9,0
1478,25.71,-13.88,-53.62,0
1479,25.72,-6.77,-64.74,0
1480,25.73,-8.62,-71.54,0
1481,25.75,-11.44,-41.82,0
1482,25.76,-2.08,-36.3,0
1483,25.77,-6.89,-37.83,0
1484,25.79,4.41,-26.27,0
1485,25.8,8.51,-29.75,0
1486,25.81,11.48,4.36,0
1487,25.83,14.21,-26.14,0
1488,25.84,-3.28,9.56,0
1489,25.85,11.2,-16.57,0
1490,25.87,22.67,6.26,0
1491,25.88,18.89,4.6,0
1492,25.89,18.05,26.36,0
1493,25.91,23.52,-13.79,0
1494,25.92,12.71,-11.99,0
1495,25.93,38.1,-18.21,0
1496,25.95,5.33,31.74,0
1497,25.96,18.64,-12.25,0
1498,25.97,11.7,-3.04,0
1499,25.99,17.24,-1.44,0
1500,26.0,15.24,29.84,0
1501,26.01,15.55,7.69,0
1502,26.02,22.85,32.2,0
1503,26.04,16.41,16.39,0
1504,26.05,6.47,32.19,0
1505,26.06,3.36,15.08,0
1506,26.08,17.01,3.43,0
1507,26.09,6.86,41.59,0
1508,26.1,8.8,21.04,1
1509,26.12,24.22,36.93,1
1510,26.13,0.28,17.51,1
1511,26.14,3.25,80.36,1
1512,26.16,-13.94,412.6,1
1513,26.17,-38.55,347.79,1
1514,26.19,94.18,243.53,1
1515,26.2,237.59,23.38,1
1516,26.21,33.46,-158.63,1
1517,26.23,-107.53,-156.28,1
1518,26.24,-71.04,155.43,1
1519,26.25,138.09,-43.24,1
1520,26.27,153.58,-6.77,1
1521,26.28,165.74,95.66,1
1522,26.29,141.42,-243.17,1
1523,26.31,54.43,-788.61,1
1524,26.32,-63.17,-494.55,1
1525,26.33,128.29,-236.13,1
1526,26.35,-179.5,27.88,1
1527,26.36,-58.92,42.68,1
1528,26.37,-123.73,182.72,1
1529,26.39,-115.32,-39.64,1
1530,26.4,-201.64,53.8,1
1531,26.41,-242.84,-141.35,1
1532,26.43,-298.5,194.88,1
1533,26.44,-267.83,-18.15,1
1534,26.45,-192.76,-290.44,1
1535,26.47,-84.48,-148.99,1
1536,26.48,107.0,-235.29,1
1537,26.49,-0.04,-66.18,1
1538,26.51,-207.46,251.86,1
1539,26.52,-37.14,-21.62,1
1540,26.53,-40.82,345.23,1
1541,26.55,157.53,377.74,1
1542,26.56,82.23,18.66,1
1543,26.57,8.7,120.39,1
1544,26.59,-90.04,-34.91,1
1545,26.6,140.83,29.3,1
1546,26.61,4.23,55.58,1
1547,26.63,148.08,347.93,1
1548,26.64,-13.39,283.18,1
1549,26.65,21.95,177.03,1
1550,26.67,62.01,279.06,1
1551,26.68,227.2,-345.09,1
1552,26.69,8.57,-251.27,1
1553,26.7,62.94,-89.59,1
1554,26.72,131.66,131.89,1
1555,26.73,274.43,-219.86,1
1556,26.75,87.65,-80.01,1
1557,26.76,121.26,76.57,1
1558,26.77,37.44,528.42,1
1559,26.78,-184.89,137.89,1
1560,26.8,169.7,533.1,1
1561,26.81,-32.18,126.6,1
1562,26.82,150.25,-157.36,1
1563,26.84,148.48,-241.34,1
1564,26.85,156.05,-365.77,1
1565,26.87,120.84,18.63,1
1566,26.88,86.33,94.78,1
1567,26.89,38.32,-421.81,1
1568,26.91,-132.56,-72.46,0
1569,26.92,-32.57,-197.75,0
1570,26.93,-383.65,415.99,0
1571,26.95,173.08,138.73,0
1572,26.96,40.61,-11.21,0
1573,26.97,-20.97,-92.94,0
1574,26.99,47.9,-296.05,0
1575,27.0,-68.17,-0.63,0
1576,27.01,-247.6,-184.76,0
1577,27.03,-77.57,-141.82,0
1578,27.04,-152.7,-166.12,0
1579,27.05,-138.17,-230.36,0
1580,27.07,-134.23,-147.49,0
1581,27.08,-94.19,-62.65,0
1582,27.09,-174.06,-54.94,0
1583,27.11,-183.43,-45.99,0
1584,27.12,-146.13,148.53,0
1585,27.13,-217.7,118.97,0
1586,27.15,-105.88,32.62,0
1587,27.16,-16.21,39.93,0
1588,27.17,45.07,5.1,0
1589,27.19,85.68,-137.85,0
1590,27.2,101.61,-168.41,0
1591,27.21,102.31,-120.53,0
1592,27.23,116.07,-102.66,0
1593,27.24,114.8,-62.28,0
1594,27.25,115.52,14.22,0
1595,27.27,96.93,61.46,0
1596,27.28,90.66,73.89,0
1597,27.29,91.41,97.8,0
1598,27.3,71.24,141.11,0
1599,27.32,78.18,142.95,0
1600,27.33,69.88,147.1,0
1601,27.34,56.45,142.72,0
1602,27.36,29.51,119.75,0
1603,27.37,22.71,102.11,0
1604,27.38,33.71,107.63,0
1605,27.4,29.17,120.4,0
1606,27.41,19.88,54.72,0
1607,27.42,-10.14,84.18,0
1608,27.44,7.04,56.39,0
1609,27.45,-10.02,69.85,0
1610,27.46,-8.4,83.13,0
1611,27.48,-26.06,33.06,0
1612,27.49,-5.05,-3.58,0
1613,27.51,-37.42,36.33,0
1614,27.52,-34.37,28.83,0
1615,27.53,-20.95,10.47,0
1616,27.55,-32.42,-37.72,0
1617,27.56,-32.2,-1.38,0
1618,27.57,-26.89,-23.12,0
1619,27.59,-34.58,-41.64,0
1620,27.6,-34.1,-43.56,0
1621,27.61,-23.37,-25.19,0
1622,27.63,-28.07,-92.53,0
1623,27.64,-44.87,-18.67,0
1624,27.65,-19.73,-57.77,0
1625,27.67,-47.35,-58.31,0
1626,27.68,-13.83,-35.88,0
1627,27.69,-24.04,-22.4,0
1628,27.71,-8.55,-64.49,0
1629,27.72,-19.34,-23.58,0
1630,27.73,-13.63,-39.48,0
1631,27.75,-12.09,-32.76,0
1632,27.76,-7.58,-64.53,0
1633,27.77,-3.67,-57.99,0
1634,27.79,-5.56,-54.76,0
1635,27.8,-4.93,-36.92,0
1636,27.81,-6.08,-7.18,0
1637,27.83,4.82,-48.44,0
1638,27.84,-14.92,-35.15,0
1639,27.85,-19.27,-42.19,0
1640,27.87,0.35,-41.91,0
1641,27.88,-3.94,-16.54,0
1642,27.89,6.11,-13.33,0
1643,27.91,-1.4,-10.54,0
1644,27.92,-5.09,-11.62,0
1645,27.93,10.95,-12.49,0
1646,27.94,14.77,-20.02,0
1647,27.96,8.32,4.12,0
1648,27.97,17.02,12.46,0
1649,27.98,14.64,21.09,0
1650,28.0,12.82,-2.05,0
1651,28.01,21.74,-4.03,0
1652,28.02,6.05,37.37,0
1653,28.04,20.79,29.51,0
1654,28.05,1.81,-17.92,0
1655,28.06,20.14,16.64,0
1656,28.08,14.25,19.76,0
1657,28.09,6.61,57.7,0
1658,28.1,9.16,61.45,1
1659,28.12,29.32,101.1,1
1660,28.13,45.2,132.82,1
1661,28.15,26.64,162.98,1
1662,28.16,79.3,328.16,1
1663,28.17,73.47,40.07,1
1664,28.19,312.04,-197.8,1
1665,28.2,-78.55,115.23,1
1666,28.21,-124.19,-232.73,1
1667,28.23,-93.49,132.7,1
1668,28.24,-379.74,64.77,1
1669,28.25,17.33,-104.89,1
1670,28.27,79.75,86.89,1
1671,28.28,64.3,-110.12,1
1672,28.29,-60.4,146.12,1
1673,28.31,337.81,-204.46,1
1674,28.32,-55.37,-305.7,1
1675,28.33,5.81,-490.68,1
1676,28.35,-143.75,-271.72,1
1677,28.36,-102.44,211.96,1
1678,28.37,185.46,23.26,1
1679,28.39,-188.38,-328.96,1
1680,28.4,72.49,-319.79,1
1681,28.41,16.86,86.95,1
1682,28.43,-30.49,5.47,1
1683,28.44,-56.93,307.91,1
1684,28.45,131.18,-135.02,1
1685,28.47,-49.25,-83.19,1
1686,28.48,1.89,-48.6,1
1687,28.49,120.72,154.99,1
1688,28.51,-7.33,136.63,1
1689,28.52,-49.66,187.0,1
1690,28.53,-139.57,47.54,1
1691,28.55,-84.87,-210.66,1
1692,28.56,-173.14,-192.91,1
1693,28.57,-6.4,238.04,1
1694,28.58,-20.69,140.36,1
1695,28.6,-75.68,99.68,1
1696,28.61,-28.43,158.31,1
1697,28.62,-36.56,269.83,1
1698,28.64,-4.07,245.76,1
1699,28.65,12.33,17.19,1
1700,28.67,69.49,-105.5,1
1701,28.68,-66.66,315.02,1
1702,28.69,9.72,-92.04,1
1703,28.7,-260.39,-134.73,1
1704,28.72,-43.94,-131.16,1
1705,28.73,-43.46,23.77,1
1706,28.75,265.53,236.73,1
1707,28.76,126.97,12.11,1
1708,28.77,134.41,200.18,1
1709,28.79,100.31,51.7,1
1710,28.8,296.79,-88.77,1
1711,28.81,110.03,-22.09,1
1712,28.83,125.55,8.24,1
1713,28.84,31.04,401.76,1
1714,28.85,89.8,-15.0,1
1715,28.87,160.68,-100.76,1
1716,28.88,156.01,130.4,1
1717,28.89,-342.04,-144.59,1
1718,28.91,-135.67,70.68,0
1719,28.92,-76.43,118.2,0
1720,28.93,-305.79,-46.12,0
1721,28.95,-18.26,-137.21,0
1722,28.96,80.5,-148.16,0
1723,28.97,49.87,-190.39,0
1724,28.99,-42.73,158.05,0
1725,29.0,78.21,-347.07,0
1726,29.01,-33.54,-139.81,0
1727,29.03,34.11,-64.51,0
1728,29.04,59.9,-107.63,0
1729,29.05,100.55,-129.75,0
1730,29.07,9.12,-157.17,0
1731,29.08,-39.29,-65.51,0
1732,29.09,-36.73,126.38,0
1733,29.11,-69.49,154.81,0
1734,29.12,-86.11,187.58,0
1735,29.13,-37.72,2.39,0
1736,29.15,-30.31,-106.8,0
1737,29.16,27.53,-59.83,0
1738,29.17,44.73,-112.27,0
1739,29.19,37.11,-123.93,0
1740,29.2,45.98,-210.49,0
1741,29.21,37.06,-199.12,0
1742,29.22,27.26,-195.48,0
1743,29.24,13.32,-138.34,0
1744,29.25,23.15,-64.93,0
1745,29.26,21.47,-12.64,0
1746,29.28,24.5,58.2,0
1747,29.29,9.28,145.21,0
1748,29.3,4.54,119.26,0
1749,29.32,-2.15,170.79,0
1750,29.33,-8.06,113.63,0
1751,29.34,-12.76,113.97,0
1752,29.36,-26.98,112.22,0
1753,29.37,-14.76,88.07,0
1754,29.38,-19.04,92.28,0
1755,29.4,-27.2,141.64,0
1756,29.41,-39.66,89.16,0
1757,29.42,-32.56,72.8,0
1758,29.44,-32.57,75.04,0
1759,29.45,-40.74,58.69,0
1760,29.47,-33.46,42.38,0
1761,29.48,-38.06,72.98,0
1762,29.49,-31.6,79.32,0
1763,29.51,-38.47,49.41,0
1764,29.52,-40.36,48.79,0
1765,29.53,-46.56,51.69,0
1766,29.55,-34.61,-5.67,0
1767,29.56,-20.82,-15.87,0
1768,29.57,-18.45,21.04,0
1769,29.59,-12.49,-16.22,0
1770,29.6,-20.9,-28.06,0
1771,29.61,1.15,-64.71,0
1772,29.63,-5.46,-49.44,0
1773,29.64,-13.55,-17.42,0
1774,29.65,-8.4,-53.1,0
1775,29.67,-15.3,-33.85,0
1776,29.68,-3.37,-57.55,0
1777,29.69,4.87,-52.16,0
1778,29.71,6.67,-33.52,0
1779,29.72,12.32,-60.39,0
1780,29.73,0.06,-71.06,0
1781,29.75,7.97,-61.97,0
1782,29.76,22.02,-46.62,0
1783,29.77,10.77,-58.77,0
1784,29.79,-4.28,-61.27,0
1785,29.8,12.3,-35.65,0
1786,29.81,4.74,-45.32,0
1787,29.83,6.48,-39.67,0
1788,29.84,15.72,8.86,0
1789,29.85,12.98,-34.1,0
1790,29.86,23.41,-28.89,0
1791,29.88,33.26,-43.65,0
1792,29.89,29.86,-62.84,0
1793,29.9,33.1,-11.82,0
1794,29.92,16.57,0.79,0
1795,29.93,15.7,-34.99,0
1796,29.94,17.89,-12.96,0
1797,29.96,15.96,-5.63,0
1798,29.97,7.5,-1.56,0
1799,29.98,0.12,9.53,0
1800,30.0,27.08,14.56,0
1801,30.01,24.74,30.37,0
1802,30.02,20.51,52.13,0
1803,30.04,19.01,3.53,0
1804,30.05,-1.58,1.72,0
1805,30.06,-1.38,18.96,0
1806,30.08,-3.97,37.61,0
1807,30.09,20.93,-8.09,0
1808,30.11,-7.56,130.62,1
1809,30.12,-5.25,329.25,1
1810,30.13,116.23,392.26,1
1811,30.15,-152.62,286.54,1
1812,30.16,59.43,226.8,1
1813,30.17,38.17,140.94,1
1814,30.19,-11.56,67.55,1
1815,30.2,222.19,-26.47,1
1816,30.21,88.88,-124.03,1
1817,30.23,-6.51,-326.11,1
1818,30.24,90.44,-79.93,1
1819,30.25,243.5,-317.26,1
1820,30.27,100.02,-333.69,1
1821,30.28,-112.48,-268.39,1
1822,30.29,-53.73,-653.44,1
1823,30.31,34.29,-323.17,1
1824,30.32,-71.03,-336.19,1
1825,30.33,-152.06,199.84,1
1826,30.35,-117.44,213.26,1
1827,30.36,-411.55,-216.8,1
1828,30.37,50.06,-8.69,1
1829,30.39,-171.85,-110.73,1
1830,30.4,-205.25,-356.54,1
1831,30.41,-20.5,2.17,1
1832,30.43,-250.8,156.88,1
1833,30.44,19.69,346.83,1
1834,30.45,-78.62,-137.09,1
1835,30.47,39.35,153.16,1
1836,30.48,-237.83,158.27,1
1837,30.49,124.17,160.8,1
1838,30.5,-3.33,-147.13,1
1839,30.52,93.51,288.86,1
1840,30.53,-59.79,319.13,1
1841,30.54,136.18,342.94,1
1842,30.56,63.19,236.81,1
1843,30.57,118.3,187.81,1
1844,30.58,-32.13,-57.67,1
1845,30.6,-76.32,61.65,1
1846,30.61,203.5,495.95,1
1847,30.62,138.47,-32.82,1
1848,30.64,185.74,212.63,1
1849,30.65,1.35,170.66,1
1850,30.67,42.4,132.64,1
1851,30.68,-62.46,341.41,1
1852,30.69,222.13,43.32,1
1853,30.7,16.7,-27.05,1
1854,30.72,-74.85,-225.04,1
1855,30.73,-263.06,-135.85,1
1856,30.75,-87.87,-241.25,1
1857,30.76,10.13,297.3,1
1858,30.77,-155.72,-393.45,1
1859,30.79,-53.2,63.05,1
1860,30.8,-13.69,-177.1,1
1861,30.81,206.11,-91.54,1
1862,30.83,148.44,-71.37,1
1863,30.84,155.27,-110.76,1
1864,30.85,146.49,-94.26,1
1865,30.87,83.68,-62.62,1
1866,30.88,46.0,6.97,1
1867,30.89,-32.43,45.33,1
1868,30.91,-125.56,27.52,0
1869,30.92,-151.54,-109.02,0
1870,30.93,-102.59,-36.74,0
1871,30.95,-60.69,-27.26,0
1872,30.96,-23.8,-64.18,0
1873,30.97,62.42,-238.13,0
1874,30.99,85.06,-235.0,0
1875,31.0,115.07,-267.21,0
1876,31.01,102.97,-219.62,0
1877,31.03,129.8,-203.88,0
1878,31.04,106.34,-154.62,0
1879,31.05,88.71,-42.43,0
1880,31.07,73.39,58.42,0
1881,31.08,59.59,23.09,0
1882,31.09,35.55,22.92,0
1883,31.11,12.9,70.37,0
1884,31.12,10.15,128.83,0
1885,31.13,8.7,127.46,0
1886,31.14,-14.9,108.81,0
1887,31.16,-15.22,118.34,0
1888,31.17,-24.63,90.02,0
1889,31.18,-24.48,131.11,0
1890,31.2,-37.17,112.04,0
1891,31.21,-48.62,93.07,0
1892,31.22,-53.7,105.93,0
1893,31.24,-62.33,122.96,0
1894,31.25,-48.74,48.92,0
1895,31.26,-61.2,54.94,0
1896,31.28,-76.29,36.24,0
1897,31.29,-67.52,24.21,0
1898,31.3,-59.45,48.57,0
1899,31.32,-69.57,12.49,0
1900,31.33,-73.8,2.62,0
1901,31.34,-72.21,-15.51,0
1902,31.36,-64.15,-1.23,0
1903,31.37,-60.44,-42.56,0
1904,31.385,-60.09,-52.09,0
1905,31.4,-60.23,-24.95,0
1906,31.41,-45.98,-34.38,0
1907,31.43,-46.76,-56.16,0
1908,31.44,-32.58,-1.75,0
1909,31.45,-23.04,-50.9,0
1910,31.47,-27.56,-25.71,0
1911,31.48,-30.29,-20.16,0
1912,31.49,-32.6,5.62,0
1913,31.51,-34.74,9.54,0
1914,31.52,-3.81,-6.88,0
1915,31.53,-10.79,-44.82,0
1916,31.55,-10.21,-39.04,0
1917,31.56,13.42,-8.85,0
1918,31.57,17.61,-70.16,0
1919,31.59,0.28,-26.94,0
1920,31.6,20.5,-2.76,0
1921,31.61,23.39,-11.47,0
1922,31.63,30.08,-13.82,0
1923,31.64,37.46,-32.25,0
1924,31.65,40.48,-12.85,0
1925,31.67,23.99,-32.01,0
1926,31.68,29.39,-42.69,0
1927,31.69,15.71,39.87,0
1928,31.71,21.87,-31.46,0
1929,31.72,23.33,14.57,0
1930,31.73,25.54,31.63,0
1931,31.75,32.33,11.65,0
1932,31.76,34.23,31.56,0
1933,31.77,33.25,-4.5,0
1934,31.78,22.9,0.62,0
1935,31.8,26.66,-44.94,0
1936,31.81,28.76,-14.61,0
1937,31.82,36.62,50.46,0
1938,31.84,37.99,7.09,0
1939,31.85,26.37,3.2,0
1940,31.86,30.12,24.32,0
1941,31.88,8.18,4.84,0
1942,31.89,16.7,18.34,0
1943,31.9,21.44,-20.64,0
1944,31.92,29.39,-11.43,0
1945,31.93,18.61,1.95,0
1946,31.94,10.34,22.9,0
1947,31.96,19.18,-15.56,0
1948,31.97,1.36,17.48,0
1949,31.98,7.72,-11.8,0
1950,32.0,0.29,25.14,0
1951,32.01,9.41,5.68,0
1952,32.03,6.06,31.77,0
1953,32.04,-10.66,21.94,0
1954,32.05,-17.95,11.11,0
1955,32.07,-6.13,7.79,0
1956,32.08,7.37,10.83,0
1957,32.09,-10.58,10.48,0
1958,32.11,8.49,5.24,1
1959,32.12,-4.62,39.51,1
1960,32.13,12.31,96.98,1
1961,32.15,6.31,115.86,1
1962,32.16,28.9,4.9,1
1963,32.17,71.33,17.83,1
1964,32.19,82.38,273.61,1
1965,32.2,174.97,322.06,1
1966,32.21,-59.07,227.81,1
1967,32.23,9.78,82.42,1
1968,32.24,18.98,-160.33,1
1969,32.25,-255.94,-118.16,1
1970,32.27,241.73,-175.35,1
1971,32.28,-74.19,100.87,1
1972,32.29,-9.31,-247.88,1
1973,32.31,-203.33,-442.84,1
1974,32.32,-40.3,-495.5,1
1975,32.33,-141.91,-123.37,1
1976,32.35,267.58,-334.88,1
1977,32.36,-25.68,29.96,1
1978,32.37,-108.51,-79.36,1
1979,32.39,127.87,167.46,1
1980,32.4,-134.94,-487.42,1
1981,32.41,-41.5,-200.02,1
1982,32.43,-212.88,-153.18,1
1983,32.44,-24.71,420.22,1
1984,32.45,-194.9,117.69,1
1985,32.47,-143.65,233.9,1
1986,32.48,-31.38,362.47,1
1987,32.49,-4.77,59.61,1
1988,32.51,-90.56,205.49,1
1989,32.52,-9.44,-31.43,1
1990,32.53,-101.53,0.65,1
1991,32.54,9.02,-303.12,1
1992,32.56,175.04,79.15,1
1993,32.57,-35.72,-133.45,1
1994,32.59,-150.92,297.94,1
1995,32.6,-21.81,-304.48,1
1996,32.61,73.74,-100.2,1
1997,32.63,168.0,266.52,1
1998,32.64,-128.54,216.12,1
1999,32.65,26.13,-125.62,1
2000,32.67,-55.61,58.84,1
2001,32.68,195.27,129.7,1
2002,32.69,183.68,112.79,1
2003,32.71,-20.97,331.52,1
2004,32.72,29.87,-156.42,1
2005,32.73,-106.49,-58.13,1
2006,32.75,52.03,69.48,1
2007,32.76,128.99,312.75,1
2008,32.77,206.58,126.64,1
2009,32.79,116.27,-9.37,1
2010,32.8,5.38,-9.21,1
2011,32.81,87.33,-0.04,1
2012,32.83,147.78,326.4,1
2013,32.84,73.14,-218.02,1
2014,32.85,-117.4,97.5,1
2015,32.87,-156.23,14.49,1
2016,32.88,-96.69,-165.53,1
2017,32.89,165.98,-216.08,1
2018,32.91,-92.73,-19.06,0
2019,32.92,36.61,-35.21,0
2020,32.93,-56.23,-23.72,0
2021,32.95,98.0,-144.97,0
2022,32.96,-28.83,-40.93,0
2023,32.97,18.24,-138.89,0
2024,32.99,-26.2,-151.64,0
2025,33.0,-11.86,22.9,0
2026,33.01,-59.38,108.45,0
2027,33.03,-67.3,175.13,0
2028,33.04,-116.46,74.56,0
2029,33.05,-123.6,-61.12,0
2030,33.06,-101.86,-49.71,0
2031,33.08,-34.37,1.38,0
2032,33.09,7.17,-261.05,0
2033,33.11,71.06,-196.61,0
2034,33.12,78.66,-180.09,0
2035,33.13,98.7,-196.79,0
2036,33.15,104.63,-150.04,0
2037,33.16,100.71,-111.33,0
2038,33.17,89.85,-55.04,0
2039,33.19,100.19,19.37,0
2040,33.2,97.07,68.53,0
2041,33.21,67.56,124.96,0
2042,33.22,65.96,139.06,0
2043,33.24,51.88,118.18,0
2044,33.25,28.93,143.98,0
2045,33.27,24.52,151.23,0
2046,33.28,2.58,100.84,0
2047,33.29,0.51,88.16,0
2048,33.31,-1.43,104.41,0
2049,33.32,-16.33,86.26,0
2050,33.33,-23.91,111.97,0
2051,33.35,-32.73,90.89,0
2052,33.36,-42.77,73.48,0
2053,33.37,-51.67,48.77,0
2054,33.39,-53.2,34.73,0
2055,33.4,-40.68,12.93,0
2056,33.41,-47.14,44.33,0
2057,33.43,-58.38,2.99,0
2058,33.44,-71.88,2.98,0
2059,33.45,-63.2,-27.67,0
2060,33.47,-66.29,-36.01,0
2061,33.48,-63.36,-42.88,0
2062,33.49,-50.63,-10.3,0
2063,33.51,-48.83,-44.3,0
2064,33.52,-44.9,-65.92,0
2065,33.53,-46.63,-83.84,0
2066,33.55,-53.72,-13.91,0
2067,33.56,-33.58,-100.44,0
2068,33.57,-26.59,-58.63,0
2069,33.59,-25.13,-64.21,0
2070,33.6,-29.16,-29.81,0
2071,33.61,-24.67,-46.07,0
2072,33.63,-27.38,-35.13,0
2073,33.64,-14.67,-23.16,0
2074,33.65,-10.73,-38.81,0
2075,33.67,-7.28,-33.73,0
2076,33.68,-10.67,-59.75,0
2077,33.69,-8.91,-29.01,0
2078,33.71,-8.97,-22.22,0
2079,33.72,-7.83,-28.96,0
2080,33.73,-9.06,-20.73,0
2081,33.75,-1.27,-56.14,0
2082,33.76,7.56,-7.53,0
2083,33.77,14.02,-2.04,0
2084,33.79,31.17,-6.29,0
2085,33.8,25.38,-5.43,0
2086,33.81,12.12,2.75,0
2087,33.83,27.76,6.06,0
2088,33.84,11.32,-26.17,0
2089,33.85,32.73,42.2,0
2090,33.87,26.33,-20.28,0
2091,33.88,17.65,37.54,0
2092,33.89,25.56,6.77,0
2093,33.9,18.83,4.59,0
2094,33.92,22.33,7.59,0
2095,33.93,16.39,2.01,0
2096,33.95,16.72,47.18,0
2097,33.96,27.13,18.02,0
2098,33.97,26.53,15.28,0
2099,33.99,31.57,-3.92,0
2100,34.0,9.59,54.8,0
2101,34.01,18.67,32.51,0
2102,34.03,26.08,25.79,0
2103,34.04,17.97,25.62,0
2104,34.05,-1.94,30.06,0
2105,34.07,32.09,7.72,0
2106,34.08,21.57,31.26,0
2107,34.09,11.43,33.05,0
2108,34.11,19.98,-81.18,1
2109,34.12,-6.27,-126.71,1
2110,34.13,71.33,-82.24,1
2111,34.15,-136.01,72.16,1
2112,34.16,-5.8,402.85,1
2113,34.17,-29.18,382.21,1
2114,34.19,280.16,68.2,1
2115,34.2,142.83,-70.99,1
2116,34.21,31.03,63.87,1
2117,34.23,96.67,344.93,1
2118,34.24,126.49,93.12,1
2119,34.25,186.83,16.27,1
2120,34.27,-50.74,-392.32,1
2121,34.28,216.4,-339.21,1
2122,34.29,64.78,44.4,1
2123,34.31,-29.09,-428.33,1
2124,34.32,22.51,-5.46,1
2125,34.33,-300.69,170.78,1
2126,34.35,-248.53,-123.52,1
2127,34.36,-309.21,-219.12,1
2128,34.37,-113.53,377.1,1
2129,34.38,-254.02,-17.9,1
2130,34.4,-260.88,-17.92,1
2131,34.41,-268.06,-369.79,1
2132,34.43,21.31,-7.99,1
2133,34.44,-382.04,234.96,1
2134,34.45,-78.24,48.05,1
2135,34.47,-43.97,29.4,1
2136,34.48,50.66,-311.64,1
2137,34.49,-73.71,42.33,1
2138,34.51,254.76,-46.72,1
2139,34.52,78.63,-236.96,1
2140,34.53,207.66,74.37,1
2141,34.54,-6.11,107.75,1
2142,34.56,-56.22,33.41,1
2143,34.57,-39.69,-187.83,1
2144,34.59,114.16,-462.38,1
2145,34.6,-229.7,-106.21,1
2146,34.61,122.02,379.58,1
2147,34.63,101.04,-170.81,1
2148,34.64,-48.37,154.9,1
2149,34.65,542.73,78.41,1
2150,34.67,106.74,171.47,1
2151,34.68,213.93,-35.53,1
2152,34.69,112.06,109.48,1
2153,34.71,174.91,-34.37,1
2154,34.72,102.87,-146.25,1
2155,34.73,-16.86,239.02,1
2156,34.75,-0.3,85.99,1
2157,34.76,-120.63,169.24,1
2158,34.77,-30.65,365.97,1
2159,34.79,104.09,-57.93,1
2160,34.8,-198.81,-31.36,1
2161,34.81,114.55,8.87,1
2162,34.83,9.55,-148.5,1
2163,34.84,-110.94,19.05,1
2164,34.85,308.52,-198.62,1
2165,34.87,-170.66,-43.9,1
2166,34.88,158.26,-123.11,1
2167,34.89,20.76,51.28,1
2168,34.91,6.97,222.8,0
2169,34.92,-8.78,-55.18,0
2170,34.93,17.42,146.88,0
2171,34.95,-33.97,-120.07,0
2172,34.96,-146.93,22.36,0
2173,34.97,70.58,28.25,0
2174,34.99,-147.0,-24.09,0
2175,35.0,-60.95,-96.52,0
2176,35.01,-213.56,-70.45,0
2177,35.03,-158.64,51.11,0
2178,35.04,-208.21,1.7,0
2179,35.05,-178.2,82.7,0
2180,35.06,-183.54,159.07,0
2181,35.08,-194.36,102.06,0
2182,35.09,-105.96,18.35,0
2183,35.11,-29.73,64.17,0
2184,35.12,30.92,43.72,0
2185,35.13,97.42,-146.35,0
2186,35.15,83.38,-177.38,0
2187,35.16,116.88,-139.73,0
2188,35.17,113.0,-49.5,0
2189,35.19,123.44,-33.07,0
2190,35.2,104.78,-20.01,0
2191,35.21,108.62,25.62,0
2192,35.22,112.06,7.61,0
2193,35.24,101.14,65.93,0
2194,35.25,110.61,102.26,0
2195,35.27,88.3,108.44,0
2196,35.28,67.11,123.96,0
2197,35.29,66.0,78.49,0
2198,35.31,49.05,47.74,0
2199,35.32,34.64,59.27,0
2200,35.33,26.97,4.82,0
2201,35.35,17.91,20.95,0
2202,35.36,25.64,26.66,0
2203,35.37,-2.84,19.38,0
2204,35.39,-1.55,-8.4,0
2205,35.4,-4.52,35.59,0
2206,35.41,-18.99,3.89,0
2207,35.43,-27.94,-5.69,0
2208,35.44,-30.99,-41.45,0
2209,35.45,-32.87,25.82,0
2210,35.47,-24.2,0.73,0
2211,35.48,-41.78,-11.11,0
2212,35.49,-35.3,-31.98,0
2213,35.51,-38.44,-20.97,0
2214,35.52,-35.97,-64.96,0
2215,35.53,-52.04,-42.99,0
2216,35.55,-40.54,-61.18,0
2217,35.56,-50.19,-54.48,0
2218,35.57,-40.55,-54.59,0
2219,35.59,-47.62,-60.57,0
2220,35.6,-34.67,-58.5,0
2221,35.61,-43.11,-48.88,0
2222,35.63,-46.04,-40.39,0
2223,35.64,-33.27,-42.58,0
2224,35.65,-51.98,-34.96,0
2225,35.67,-11.93,-48.04,0
2226,35.68,-14.04,-52.17,0
2227,35.69,-40.01,-54.5,0
2228,35.71,-18.39,-29.97,0
2229,35.72,-21.95,-23.89,0
2230,35.73,-19.44,-12.49,0
2231,35.75,-16.37,-4.48,0
2232,35.76,-3.31,-13.25,0
2233,35.77,3.68,-37.35,0
2234,35.79,-0.71,12.13,0
2235,35.8,11.35,-8.02,0
2236,35.81,11.92,13.58,0
2237,35.83,6.51,-4.49,0
2238,35.84,5.11,-8.17,0
2239,35.85,-2.11,-8.04,0
2240,35.87,1.88,-21.73,0
2241,35.88,3.7,-8.89,0
2242,35.89,20.05,18.18,0
2243,35.9,16.0,20.63,0
2244,35.92,6.64,8.33,0
2245,35.93,37.72,-1.53,0
2246,35.95,15.36,-17.53,0
2247,35.96,16.84,-9.29,0
2248,35.97,4.58,19.18,0
2249,35.99,15.36,34.93,0
2250,36.0,17.59,20.59,0
2251,36.01,1.61,29.56,0
2252,36.03,28.58,21.32,0
2253,36.04,19.69,-0.16,0
2254,36.05,12.37,21.65,0
2255,36.07,23.12,-6.05,0
2256,36.08,15.23,25.0,0
2257,36.09,38.55,54.7,0
2258,36.11,21.08,38.15,1
2259,36.12,14.84,47.42,1
2260,36.13,34.0,50.85,1
2261,36.15,18.35,74.07,1
2262,36.16,25.38,250.95,1
2263,36.17,26.61,364.71,1
2264,36.19,67.69,155.37,1
2265,36.2,86.64,194.12,1
2266,36.21,162.45,166.93,1
2267,36.23,33.39,85.96,1
2268,36.24,-14.06,-201.91,1
2269,36.25,39.49,-181.71,1
2270,36.27,137.94,142.18,1
2271,36.28,54.75,-187.04,1
2272,36.29,58.94,-329.81,1
2273,36.31,54.13,-117.5,1
2274,36.32,-94.52,-516.86,1
2275,36.33,64.62,-93.46,1
2276,36.35,-114.74,-446.14,1
2277,36.36,-95.01,-10.1,1
2278,36.37,-157.99,-430.13,1
2279,36.38,-139.52,16.6,1
2280,36.4,-200.84,-290.65,1
2281,36.41,-112.04,-3.22,1
2282,36.43,-381.8,-41.53,1
2283,36.44,-99.97,290.62,1
2284,36.45,-137.24,469.77,1
2285,36.47,-295.46,199.19,1
2286,36.48,-295.02,-67.84,1
2287,36.49,240.25,-183.12,1
2288,36.51,-47.0,501.82,1
2289,36.52,111.59,158.75,1
2290,36.53,56.48,175.78,1
2291,36.54,238.95,259.48,1
2292,36.56,114.49,92.47,1
2293,36.57,178.21,46.71,1
2294,36.59,42.72,-363.17,1
2295,36.6,-24.53,-284.91,1
2296,36.61,101.87,-297.21,1
2297,36.63,-250.18,348.58,1
2298,36.64,258.8,11.47,1
2299,36.65,-61.48,355.21,1
2300,36.67,202.2,-122.34,1
2301,36.68,-171.2,-12.52,1
2302,36.69,244.17,309.22,1
2303,36.71,-135.91,22.86,1
2304,36.72,-59.54,-71.71,1
2305,36.73,120.38,-234.84,1
2306,36.75,-8.19,-75.65,1
2307,36.76,83.81,-203.13,1
2308,36.77,101.96,14.59,1
2309,36.79,20.74,-367.17,1
2310,36.8,184.79,237.08,1
2311,36.81,-82.68,51.6,1
2312,36.83,294.29,-3.67,1
2313,36.84,-126.74,213.46,1
2314,36.85,16.4,111.36,1
2315,36.87,46.35,186.48,1
2316,36.88,209.78,-170.51,1
2317,36.89,-19.18,162.54,1
2318,36.9,-161.32,-85.35,1
2319,36.92,-12.66,-124.58,0
2320,36.93,-165.54,-407.86,0
2321,36.95,-33.41,140.94,0
2322,36.96,28.54,-61.96,0
2323,36.97,71.68,-269.87,0
2324,36.99,14.0,-51.0,0
2325,37.0,21.98,-252.53,0
2326,37.01,-187.5,137.19,0
2327,37.03,-105.13,81.77,0
2328,37.04,-195.39,23.29,0
2329,37.05,-192.28,527.12,0
2330,37.06,-197.08,273.96,0
2331,37.08,-226.32,263.48,0
2332,37.09,-281.0,77.24,0
2333,37.11,-197.0,33.82,0
2334,37.12,-116.95,-284.21,0
2335,37.13,-0.14,-363.77,0
2336,37.15,86.57,-358.1,0
2337,37.16,157.8,-246.23,0
2338,37.17,174.74,-161.04,0
2339,37.19,218.03,-59.96,0
2340,37.2,215.53,74.14,0
2341,37.21,217.09,81.22,0
2342,37.22,210.93,149.78,0
2343,37.24,212.03,185.07,0
2344,37.25,188.88,159.55,0
2345,37.27,157.42,153.1,0
2346,37.28,119.36,168.28,0
2347,37.29,106.81,153.86,0
2348,37.31,86.01,140.29,0
2349,37.32,71.28,146.25,0
2350,37.33,60.7,120.97,0
2351,37.35,39.56,117.05,0
2352,37.36,18.46,49.86,0
2353,37.37,-11.52,19.51,0
2354,37.39,-24.7,38.7,0
2355,37.4,-25.43,10.8,0
2356,37.41,-33.77,59.38,0
2357,37.43,-37.75,-4.05,0
2358,37.44,-37.58,-19.06,0
2359,37.45,-55.52,-28.93,0
2360,37.47,-86.7,-46.1,0
2361,37.48,-96.58,-46.8,0
2362,37.49,-92.18,-3.8,0
2363,37.51,-62.64,-84.54,0
2364,37.52,-74.92,-56.52,0
2365,37.53,-91.85,-76.65,0
2366,37.54,-66.8,-64.85,0
2367,37.56,-88.08,-94.12,0
2368,37.57,-62.52,-50.28,0
2369,37.59,-64.02,-63.28,0
2370,37.6,-56.81,-66.51,0
2371,37.61,-45.78,-95.58,0
2372,37.63,-48.72,-99.89,0
2373,37.64,-47.45,-88.33,0
2374,37.65,-42.86,-87.76,0
2375,37.67,-53.54,-48.84,0
2376,37.68,-29.81,-67.62,0
2377,37.69,-32.47,-56.04,0
2378,37.71,-33.23,-57.65,0
2379,37.72,-21.87,-91.29,0
2380,37.73,-36.16,-69.87,0
2381,37.75,-21.82,-20.16,0
2382,37.76,-15.98,-13.26,0
2383,37.77,3.31,-42.14,0
2384,37.79,1.43,-14.75,0
2385,37.8,1.06,-13.59,0
2386,37.81,-9.9,-3.36,0
2387,37.83,-0.6,7.48,0
2388,37.84,-15.01,-8.17,0
2389,37.85,4.02,11.36,0
2390,37.87,-1.9,-3.8,0
2391,37.88,7.32,2.57,0
2392,37.89,22.64,8.03,0
2393,37.91,11.42,11.15,0
2394,37.92,15.41,14.91,0
2395,37.93,23.3,-13.76,0
2396,37.95,19.06,16.34,0
2397,37.96,13.7,28.36,0
2398,37.97,31.04,39.15,0
2399,37.99,27.43,44.62,0
2400,38.0,33.01,57.0,0
2401,38.01,15.99,21.43,0
2402,38.03,29.84,78.62,0
2403,38.04,27.96,29.17,0
2404,38.05,29.08,25.91,0
2405,38.07,10.21,62.88,0
2406,38.08,31.24,17.63,0
2407,38.09,26.82,9.66,0
2408,38.11,33.23,37.2,1
2409,38.12,27.56,135.24,1
2410,38.13,15.77,-40.69,1
2411,38.15,-35.29,-54.86,1
2412,38.16,-193.85,418.43,1
2413,38.17,-77.61,356.73,1
2414,38.19,88.93,269.2,1
2415,38.2,264.1,189.62,1
2416,38.21,63.83,38.57,1
2417,38.22,184.04,-321.22,1
2418,38.24,2.07,-121.78,1
2419,38.25,79.33,188.99,1
2420,38.27,-60.57,79.4,1
2421,38.28,126.2,-68.14,1
2422,38.29,120.07,-369.74,1
2423,38.31,23.82,-163.86,1
2424,38.32,-78.31,109.86,1
2425,38.33,200.93,-173.95,1
2426,38.35,-61.6,-624.63,1
2427,38.36,254.0,-413.82,1
2428,38.37,-199.1,-19.64,1
2429,38.38,68.48,-479.46,1
2430,38.4,-111.8,232.54,1
2431,38.41,15.46,-96.71,1
2432,38.43,122.18,50.31,1
2433,38.44,-111.45,155.24,1
2434,38.45,-174.15,-69.3,1
2435,38.47,101.49,15.02,1
2436,38.48,-166.13,-361.84,1
2437,38.49,30.83,188.97,1
2438,38.51,-285.07,-75.06,1
2439,38.52,-68.03,310.29,1
2440,38.53,-73.82,-179.75,1
2441,38.55,-136.72,137.88,1
2442,38.56,-182.28,269.55,1
2443,38.57,-294.4,-403.3,1
2444,38.59,-15.4,-49.75,1
2445,38.6,-131.85,36.36,1
2446,38.61,-128.79,332.11,1
2447,38.63,68.82,223.42,1
2448,38.64,61.28,68.13,1
2449,38.65,58.45,-11.38,1
2450,38.67,-8.99,262.02,1
2451,38.68,-19.53,486.59,1
2452,38.69,-162.34,263.57,1
2453,38.71,-74.18,196.04,1
2454,38.72,-47.58,-25.15,1
2455,38.73,-29.98,-232.89,1
2456,38.75,-63.09,200.11,1
2457,38.76,-61.47,14.82,1
2458,38.77,163.88,-249.47,1
2459,38.79,259.39,130.2,1
2460,38.8,67.99,304.27,1
2461,38.81,206.0,-17.08,1
2462,38.83,233.04,-136.75,1
2463,38.84,173.0,-180.71,1
2464,38.85,76.29,-16.76,1
2465,38.87,120.69,72.52,1
2466,38.88,24.97,-7.78,1
2467,38.89,-79.01,-255.54,1
2468,38.9,67.3,-84.74,1
2469,38.92,-7.28,-170.95,0
2470,38.93,8.81,-89.31,0
2471,38.95,23.02,-91.35,0
2472,38.96,-51.08,-35.23,0
2473,38.97,-39.88,55.08,0
2474,38.99,-37.42,90.36,0
2475,39.0,-60.51,307.56,0
2476,39.01,-47.2,68.72,0
2477,39.03,-109.67,15.15,0
2478,39.04,-34.0,-9.02,0
2479,39.05,40.93,-89.16,0
2480,39.06,102.34,-172.59,0
2481,39.08,112.9,-208.66,0
2482,39.09,70.23,-242.86,0
2483,39.11,96.41,-215.1,0
2484,39.12,103.78,-187.09,0
2485,39.13,103.98,-126.52,0
2486,39.15,91.58,-47.85,0
2487,39.16,104.37,32.35,0
2488,39.17,99.17,74.77,0
2489,39.19,71.08,85.77,0
2490,39.2,44.61,72.98,0
2491,39.21,37.77,117.64,0
2492,39.23,7.02,111.14,0
2493,39.24,19.79,115.83,0
2494,39.25,0.61,140.38,0
2495,39.27,-12.29,98.09,0
2496,39.28,-15.15,40.53,0
2497,39.29,-43.16,99.44,0
2498,39.31,-47.38,91.57,0
2499,39.32,-43.26,51.49,0
2500,39.33,-57.11,38.75,0
2501,39.35,-62.38,18.46,0
2502,39.36,-55.3,27.91,0
2503,39.37,-63.87,16.17,0
2504,39.39,-95.48,8.11,0
2505,39.4,-70.64,6.92,0
2506,39.41,-84.02,2.42,0
2507,39.43,-84.53,33.11,0
2508,39.44,-87.58,-13.61,0
2509,39.45,-69.75,-16.75,0
2510,39.47,-63.8,-37.65,0
2511,39.48,-59.43,-13.67,0
2512,39.49,-56.43,-29.31,0
2513,39.51,-53.09,-16.13,0
2514,39.52,-45.64,-46.03,0
2515,39.53,-56.21,-32.95,0
2516,39.54,-64.23,-62.61,0
2517,39.56,-39.89,-61.79,0
2518,39.57,-38.5,-50.12,0
2519,39.59,-21.22,-68.13,0
2520,39.6,-18.21,-11.23,0
2521,39.61,-23.82,-64.34,0
2522,39.63,-9.67,-20.28,0
2523,39.64,12.51,-33.12,0
2524,39.65,-3.98,-7.71,0
2525,39.67,-5.52,-47.04,0
2526,39.68,-16.18,-44.17,0
2527,39.69,8.75,-33.99,0
2528,39.71,7.78,-26.87,0
2529,39.72,14.78,-2.46,0
2530,39.73,17.93,-12.54,0
2531,39.75,18.99,-25.09,0
2532,39.76,3.06,-7.5,0
2533,39.77,28.04,-6.21,0
2534,39.79,32.16,-11.13,0
2535,39.8,20.95,-40.0,0
2536,39.81,33.07,-3.94,0
2537,39.83,32.61,11.17,0
2538,39.84,42.04,4.16,0
2539,39.85,34.23,9.29,0
2540,39.87,24.96,5.24,0
2541,39.88,0.54,26.73,0
2542,39.89,19.47,5.71,0
2543,39.91,24.84,12.51,0
2544,39.92,45.56,26.96,0
2545,39.93,45.51,16.04,0
2546,39.95,31.15,-20.8,0
2547,39.96,-4.84,58.95,0
2548,39.97,26.81,64.52,0
2549,39.99,4.22,18.7,0
2550,40.0,31.8,29.73,0
2551,40.01,12.46,-1.97,0
2552,40.03,-10.36,9.73,0
2553,40.04,-2.48,68.24,0
2554,40.05,44.41,214.26,0
2555,40.07,48.83,264.61,0
2556,40.08,107.91,-118.85,0
2557,40.09,63.42,197.28,0
2558,40.11,-58.53,288.47,1
2559,40.12,280.72,200.37,1
2560,40.13,243.09,105.21,1
2561,40.15,77.74,-3.32,1
2562,40.16,149.35,-107.1,1
2563,40.17,-177.82,-242.06,1
2564,40.19,-137.29,-247.77,1
2565,40.2,-201.01,-186.56,1
2566,40.21,113.42,-157.91,1
2567,40.22,-2.67,-724.11,1
2568,40.24,72.29,-242.66,1
2569,40.25,-37.64,-510.22,1
2570,40.27,-219.88,-143.21,1
2571,40.28,-172.31,-28.29,1
2572,40.29,-243.02,366.32,1
2573,40.31,-230.84,-126.13,1
2574,40.32,-125.89,312.06,1
2575,40.33,-22.11,-304.0,1
2576,40.35,-44.85,-1.21,1
2577,40.36,-108.18,58.98,1
2578,40.37,-89.16,-101.44,1
2579,40.38,111.02,110.09,1
2580,40.4,-107.93,466.28,1
2581,40.41,-164.09,-7.66,1
2582,40.43,41.16,270.85,1
2583,40.44,200.13,271.42,1
2584,40.45,164.48,394.99,1
2585,40.47,-91.59,76.36,1
2586,40.48,24.19,454.83,1
2587,40.49,185.75,12.36,1
2588,40.51,317.78,36.7,1
2589,40.52,131.33,-201.04,1
2590,40.53,-60.39,-302.64,1
2591,40.55,-86.91,-360.99,1
2592,40.56,-184.77,-141.76,1
2593,40.57,-52.31,303.92,1
2594,40.59,22.72,287.29,1
2595,40.6,188.29,279.52,1
2596,40.61,63.64,159.62,1
2597,40.63,-5.83,-289.1,1
2598,40.64,47.62,194.69,1
2599,40.65,0.18,-109.29,1
2600,40.67,57.63,-354.55,1
2601,40.68,-24.23,245.47,1
2602,40.69,-159.62,-153.25,1
2603,40.71,47.17,211.08,1
2604,40.72,-150.22,217.9,1
2605,40.73,-165.72,-142.25,1
2606,40.75,192.11,73.9,1
2607,40.76,-64.59,169.55,1
2608,40.77,-66.61,-147.76,1
2609,40.79,255.52,-200.01,1
2610,40.8,-41.5,-283.98,1
2611,40.81,-55.44,-339.97,1
2612,40.83,-43.55,55.15,1
2613,40.84,104.02,-84.41,1
2614,40.85,-206.95,267.02,1
2615,40.87,77.19,-3.22,1
2616,40.88,95.57,-172.67,1
2617,40.89,-69.04,-372.42,1
2618,40.9,209.5,-160.47,1
2619,40.92,-41.71,54.33,0
2620,40.93,88.96,-108.89,0
2621,40.95,-3.16,182.64,0
2622,40.96,12.71,288.3,0
2623,40.97,-65.43,109.72,0
2624,40.99,-27.84,167.03,0
2625,41.0,-55.82,46.44,0
2626,41.01,-100.07,111.33,0
2627,41.03,-173.84,-92.45,0
2628,41.04,-120.32,-189.98,0
2629,41.05,-52.0,-399.37,0
2630,41.06,42.33,-453.5,0
2631,41.08,98.93,-367.31,0
2632,41.09,110.39,-248.67,0
2633,41.11,136.49,-135.2,0
2634,41.12,133.56,-53.72,0
2635,41.13,117.24,22.07,0
2636,41.15,124.92,124.94,0
2637,41.16,109.76,162.52,0
2638,41.17,109.29,181.56,0
2639,41.19,84.89,209.93,0
2640,41.2,79.11,219.0,0
2641,41.21,60.88,198.83,0
2642,41.23,35.56,183.16,0
2643,41.24,42.4,184.33,0
2644,41.25,23.32,214.41,0
2645,41.27,-1.05,175.6,0
2646,41.28,-13.63,135.66,0
2647,41.29,-17.3,124.22,0
2648,41.31,-36.2,111.04,0
2649,41.32,-56.04,57.85,0
2650,41.33,-46.21,110.76,0
2651,41.35,-69.66,70.24,0
2652,41.36,-60.42,25.04,0
2653,41.37,-83.32,-3.87,0
2654,41.38,-74.82,30.19,0
2655,41.4,-66.86,1.47,0
2656,41.41,-62.29,-5.64,0
2657,41.43,-61.45,-6.36,0
2658,41.44,-45.17,-36.69,0
2659,41.45,-51.23,-34.67,0
2660,41.47,-64.42,-47.8,0
2661,41.48,-68.82,-50.84,0
2662,41.49,-59.66,-42.84,0
2663,41.51,-52.73,-70.95,0
2664,41.52,-58.65,-65.93,0
2665,41.53,-37.11,-52.43,0
2666,41.54,-36.96,-35.79,0
2667,41.56,-33.24,-54.03,0
2668,41.57,-30.74,-67.21,0
2669,41.59,-28.39,-48.9,0
2670,41.6,-29.74,-74.04,0
2671,41.61,-28.47,-86.41,0
2672,41.63,-18.09,-59.1,0
2673,41.64,-11.75,-36.82,0
2674,41.65,-13.55,-75.27,0
2675,41.67,1.65,-58.34,0
2676,41.68,-6.46,-71.33,0
2677,41.69,-4.84,-51.31,0
2678,41.71,3.54,-29.96,0
2679,41.72,8.95,-41.97,0
2680,41.73,25.83,-19.38,0
2681,41.75,7.94,7.29,0
2682,41.76,8.03,5.91,0
2683,41.77,16.06,-25.33,0
2684,41.79,26.77,-43.05,0
2685,41.8,29.55,-30.58,0
2686,41.81,32.84,-13.59,0
2687,41.83,23.5,-15.68,0
2688,41.84,32.3,20.3,0
2689,41.85,9.08,-0.42,0
2690,41.87,17.39,-17.47,0
2691,41.88,9.95,-0.58,0
2692,41.89,19.29,16.85,0
2693,41.91,28.74,15.16,0
2694,41.92,38.67,6.48,0
2695,41.93,37.61,2.07,0
2696,41.95,33.92,-1.04,0
2697,41.96,36.98,30.68,0
2698,41.97,18.78,41.51,0
2699,41.99,34.48,31.9,0
2700,42.0,17.67,23.74,0
2701,42.01,21.63,14.4,0
2702,42.03,-3.09,32.73,0
2703,42.04,16.56,15.09,0
2704,42.05,5.76,26.35,0
2705,42.06,-2.01,30.32,0
2706,42.08,5.57,26.11,0
2707,42.09,22.9,24.68,0
2708,42.11,-1.09,56.97,1
2709,42.12,-3.96,65.85,1
2710,42.13,17.84,127.0,1
2711,42.15,2.38,77.41,1
2712,42.16,30.73,-16.98,1
2713,42.17,49.34,170.8,1
2714,42.19,-63.16,167.83,1
2715,42.2,-196.23,-41.03,1
2716,42.21,10.19,-300.75,1
2717,42.22,15.74,-215.19,1
2718,42.24,-212.4,109.25,1
2719,42.25,84.29,109.95,1
2720,42.27,120.9,83.25,1
2721,42.28,230.4,373.72,1
2722,42.29,87.64,-15.72,1
2723,42.31,181.79,-371.72,1
2724,42.32,262.67,-252.38,1
2725,42.33,80.48,-320.59,1
2726,42.35,64.76,322.7,1
2727,42.36,112.09,-221.19,1
2728,42.37,-30.0,-52.28,1
2729,42.38,-26.52,-402.58,1
2730,42.4,-244.82,-407.18,1
2731,42.41,-266.86,-158.4,1
2732,42.43,-220.6,199.03,1
2733,42.44,-122.81,21.09,1
2734,42.45,-226.27,27.12,1
2735,42.47,-164.59,125.42,1
2736,42.48,145.78,78.61,1
2737,42.49,-190.29,170.9,1
2738,42.51,185.6,-74.49,1
2739,42.52,-105.15,106.87,1
2740,42.53,-106.11,126.03,1
2741,42.55,-2.36,344.82,1
2742,42.56,-96.82,121.27,1
2743,42.57,-42.56,-76.05,1
2744,42.59,-15.61,167.97,1
2745,42.6,2.27,1.2,1
2746,42.61,61.69,104.03,1
2747,42.63,132.36,-83.27,1
2748,42.64,-42.53,282.69,1
2749,42.65,126.15,96.26,1
2750,42.67,-45.03,236.39,1
2751,42.68,2.31,-372.11,1
2752,42.69,31.08,-146.0,1
2753,42.71,247.23,-230.34,1
2754,42.72,-165.16,-61.68,1
2755,42.73,215.91,136.34,1
2756,42.75,-86.76,156.15,1
2757,42.76,34.73,299.37,1
2758,42.77,-125.87,417.57,1
2759,42.79,83.12,89.07,1
2760,42.8,-300.35,185.55,1
2761,42.81,-149.65,-247.32,1
2762,42.83,-124.26,-98.85,1
2763,42.84,137.74,32.85,1
2764,42.85,-30.14,-259.57,1
2765,42.87,209.62,49.91,1
2766,42.88,63.45,109.27,1
2767,42.89,97.57,-228.79,1
2768,42.9,96.65,-197.75,1
2769,42.92,11.25,-204.24,0
2770,42.93,67.8,-141.51,0
2771,42.95,22.84,-64.41,0
2772,42.96,-10.17,162.17,0
2773,42.97,-2.27,81.81,0
2774,42.99,-54.14,-73.36,0
2775,43.0,-53.76,-5.47,0
2776,43.01,-57.89,48.56,0
2777,43.03,-6.83,-269.31,0
2778,43.04,56.27,-283.91,0
2779,43.05,68.82,-314.06,0
2780,43.06,75.15,-241.83,0
2781,43.08,79.7,-219.13,0
2782,43.09,80.36,-143.32,0
2783,43.11,83.03,-123.89,0
2784,43.12,85.05,-12.51,0
2785,43.13,93.22,32.2,0
2786,43.15,69.97,117.95,0
2787,43.16,70.19,174.75,0
2788,43.17,43.23,229.88,0
2789,43.19,44.44,187.97,0
2790,43.2,44.66,134.43,0
2791,43.21,31.35,104.61,0
2792,43.23,11.97,162.82,0
2793,43.24,-11.49,119.12,0
2794,43.25,-16.28,110.73,0
2795,43.27,-19.98,111.89,0
2796,43.28,-28.44,92.36,0
2797,43.29,-54.17,128.92,0
2798,43.31,-37.21,51.68,0
2799,43.32,-59.04,61.17,0
2800,43.33,-48.34,22.81,0
2801,43.35,-58.58,13.17,0
2802,43.36,-48.55,29.42,0
2803,43.37,-57.65,16.23,0
2804,43.38,-59.67,-3.06,0
2805,43.4,-56.86,-8.38,0
2806,43.41,-55.67,-30.91,0
2807,43.43,-58.87,0.1,0
2808,43.44,-61.53,-13.8,0
2809,43.45,-69.98,-23.08,0
2810,43.47,-62.07,-64.69,0
2811,43.48,-37.16,-34.22,0
2812,43.49,-49.68,-42.48,0
2813,43.51,-34.06,-48.03,0
2814,43.52,-26.07,-61.91,0
2815,43.53,-31.14,-62.0,0
2816,43.54,-28.87,-51.19,0
2817,43.56,-33.03,-43.63,0
2818,43.57,-28.73,-18.8,0
2819,43.59,-25.02,-32.59,0
2820,43.6,-16.67,-62.68,0
2821,43.61,-22.51,-54.97,0
2822,43.63,-15.59,-20.69,0
2823,43.64,-8.87,-38.55,0
2824,43.65,2.9,-6.72,0
2825,43.67,-5.8,-3.58,0
2826,43.68,2.37,8.7,0
2827,43.69,6.33,-2.63,0
2828,43.71,6.39,-12.7,0
2829,43.72,5.55,-8.29,0
2830,43.73,7.67,4.09,0
2831,43.75,14.57,0.87,0
2832,43.76,23.41,21.08,0
2833,43.77,1.34,-17.6,0
2834,43.79,23.67,33.26,0
2835,43.8,27.02,2.08,0
2836,43.81,37.7,19.3,0
2837,43.83,23.23,13.15,0
2838,43.84,21.94,-1.82,0
2839,43.85,24.42,0.48,0
2840,43.87,31.41,-10.33,0
2841,43.88,33.95,17.79,0
2842,43.89,17.51,17.06,0
2843,43.91,34.5,-16.08,0
2844,43.92,39.07,-5.69,0
2845,43.93,29.75,12.2,0
2846,43.95,10.26,1.56,0
2847,43.96,9.63,27.77,0
2848,43.97,13.13,17.65,0
2849,43.99,14.88,15.56,0
2850,44.0,11.79,19.64,0
2851,44.01,19.43,-2.62,0
2852,44.03,13.23,-7.65,0
2853,44.04,17.57,22.94,0
2854,44.05,25.02,16.81,0
2855,44.06,4.38,27.66,0
2856,44.08,10.07,38.63,0
2857,44.09,15.58,65.34,0
2858,44.11,8.1,173.31,1
2859,44.12,29.03,288.26,1
2860,44.13,28.98,187.88,1
2861,44.15,23.42,155.01,1
2862,44.16,118.32,174.21,1
2863,44.17,-44.32,-18.75,1
2864,44.19,-144.58,55.5,1
2865,44.2,203.9,-24.2,1
2866,44.21,-137.96,-248.12,1
2867,44.22,240.04,-405.6,1
2868,44.24,-16.73,-291.95,1
2869,44.25,-66.27,44.51,1
2870,44.27,150.54,-363.02,1
2871,44.28,193.91,-276.27,1
2872,44.29,-25.2,-112.55,1
2873,44.31,-32.8,118.63,1
2874,44.32,95.98,-142.17,1
2875,44.33,-214.58,-218.94,1
2876,44.35,-226.7,-94.3,1
2877,44.36,-85.74,-115.57,1
2878,44.37,12.38,176.15,1
2879,44.385000000000005,-105.07,114.92,1
2880,44.4,-295.85,11.86,1
2881,44.41,-314.09,226.5,1
2882,44.43,-72.65,-39.69,1
2883,44.44,-110.35,-87.58,1
2884,44.45,-246.11,154.28,1
2885,44.47,-72.52,129.58,1
2886,44.48,65.05,94.51,1
2887,44.49,134.36,207.77,1
2888,44.51,120.08,-147.71,1
2889,44.52,246.19,197.18,1
2890,44.53,-59.59,48.56,1
2891,44.55,67.64,-347.4,1
2892,44.56,-62.89,-10.61,1
2893,44.57,-51.61,103.65,1
2894,44.59,-149.67,-326.38,1
2895,44.6,11.01,158.0,1
2896,44.61,-70.07,-10.92,1
2897,44.63,54.93,272.49,1
2898,44.64,191.71,-107.48,1
2899,44.65,-107.03,-63.43,1
2900,44.67,146.98,3.8,1
2901,44.68,265.97,411.06,1
2902,44.69,44.62,171.19,1
2903,44.71,206.04,-7.91,1
2904,44.72,-55.22,-91.77,1
2905,44.73,-75.55,1.69,1
2906,44.75,453.41,182.09,1
2907,44.76,-7.2,-196.08,1
2908,44.77,232.29,-156.76,1
2909,44.79,14.91,-205.94,1
2910,44.8,80.49,221.66,1
2911,44.81,117.31,-258.07,1
2912,44.83,-35.71,-99.35,1
2913,44.84,-257.76,-374.07,1
2914,44.85,61.05,82.41,1
2915,44.87,50.25,-24.57,1
2916,44.88,-78.13,19.65,1
2917,44.89,-31.06,-19.57,1
2918,44.9,-43.95,-44.67,1
2919,44.92,-108.06,27.12,0
2920,44.93,-74.72,242.65,0
2921,44.95,-80.61,290.2,0
2922,44.96,-107.77,228.24,0
2923,44.97,-112.65,43.11,0
2924,44.99,-95.91,152.63,0
2925,45.0,-60.22,118.11,0
2926,45.01,3.59,-22.52,0
2927,45.03,23.9,-132.25,0
2928,45.04,13.62,-228.9,0
2929,45.05,26.33,-205.74,0
2930,45.07,19.65,-91.09,0
2931,45.08,22.83,-29.96,0
2932,45.09,28.11,17.41,0
2933,45.11,29.56,1.74,0
2934,45.12,22.16,56.36,0
2935,45.13,42.26,75.33,0
2936,45.15,37.44,130.52,0
2937,45.16,29.86,200.96,0
2938,45.17,7.78,155.5,0
2939,45.19,14.2,156.62,0
2940,45.2,-3.23,125.48,0
2941,45.21,-4.94,87.71,0
2942,45.22,-8.72,64.02,0
2943,45.24,8.35,64.76,0
2944,45.25,-11.34,20.99,0
2945,45.27,-13.48,59.79,0
2946,45.28,-8.82,-6.59,0
2947,45.29,-15.13,-27.14,0
2948,45.31,-10.95,-5.57,0
2949,45.32,-27.04,-25.5,0
2950,45.33,-13.37,-38.62,0
2951,45.35,-34.98,-75.31,0
2952,45.36,-1.11,-33.15,0
2953,45.37,-14.9,-82.69,0
2954,45.38,-29.14,-60.97,0
2955,45.4,-24.84,-64.96,0
2956,45.41,-15.05,-66.15,0
2957,45.43,-27.87,-59.2,0
2958,45.44,-2.08,-94.15,0
2959,45.45,-18.15,-86.83,0
2960,45.47,-19.43,-52.58,0
2961,45.48,-25.73,-65.95,0
2962,45.49,-23.63,-67.29,0
2963,45.51,-8.21,-73.38,0
2964,45.52,-16.48,-56.84,0
2965,45.53,8.94,-86.31,0
2966,45.54,-5.08,-77.82,0
2967,45.56,-3.98,-47.07,0
2968,45.57,-12.94,-47.72,0
2969,45.59,1.2,-47.0,0
2970,45.6,-5.31,-37.59,0
2971,45.61,-13.82,-31.78,0
2972,45.63,5.33,-42.13,0
2973,45.64,-1.69,16.63,0
2974,45.65,9.39,-31.89,0
2975,45.67,-2.84,-23.67,0
2976,45.68,-0.15,8.73,0
2977,45.69,8.19,-7.71,0
2978,45.71,9.08,-14.15,0
2979,45.72,10.51,3.15,0
2980,45.73,14.04,-0.88,0
2981,45.75,24.19,1.62,0
2982,45.76,16.19,0.53,0
2983,45.77,18.76,24.94,0
2984,45.79,13.18,1.24,0
2985,45.8,1.2,21.87,0
2986,45.81,8.4,24.76,0
2987,45.83,-1.2,46.3,0
2988,45.84,9.74,44.91,0
2989,45.85,-2.99,29.7,0
2990,45.87,1.49,-5.07,0
2991,45.88,14.31,27.23,0
2992,45.89,4.97,29.45,0
2993,45.9,10.12,41.76,0
2994,45.92,16.11,8.0,0
2995,45.93,15.23,46.1,0
2996,45.95,7.56,0.43,0
2997,45.96,13.11,28.35,0
2998,45.97,7.9,21.51,0
2999,45.99,10.28,23.55,0
3000,46.0,12.88,48.23,0
3001,46.01,12.75,28.49,0
3002,46.03,20.89,28.23,0
3003,46.04,11.09,8.11,0
3004,46.05,13.22,31.86,0
3005,46.06,-4.93,83.84,0
3006,46.08,-1.92,110.69,0
3007,46.09,-22.29,122.32,0
3008,46.11,6.35,166.84,1
3009,46.12,19.17,275.31,1
3010,46.13,-59.5,22.38,1
3011,46.15,3.91,187.06,1
3012,46.16,35.82,164.92,1
3013,46.17,203.83,-175.14,1
3014,46.19,33.99,-423.12,1
3015,46.2,155.37,294.03,1
3016,46.21,94.78,-197.59,1
3017,46.22,37.69,-445.1,1
3018,46.24,172.16,-337.91,1
3019,46.25,30.21,-213.55,1
3020,46.27,155.28,-200.71,1
3021,46.28,22.5,-544.88,1
3022,46.29,-170.51,2.14,1
3023,46.31,-186.96,51.18,1
3024,46.32,-130.25,-348.06,1
3025,46.33,-194.86,17.42,1
3026,46.35,-65.87,63.14,1
3027,46.36,-153.12,433.27,1
3028,46.37,44.42,-290.27,1
3029,46.39,-364.92,253.63,1
3030,46.4,-28.26,224.09,1
3031,46.41,-146.13,528.67,1
3032,46.43,-37.15,48.88,1
3033,46.44,-160.67,160.47,1
3034,46.45,-0.44,258.76,1
3035,46.47,-478.91,-5.13,1
3036,46.48,-91.73,135.01,1
3037,46.49,-179.64,17.2,1
3038,46.51,-2.8,-171.11,1
3039,46.52,-92.14,232.8,1
3040,46.53,138.91,330.08,1
3041,46.54,90.48,148.2,1
3042,46.56,198.85,56.93,1
3043,46.57,37.22,-606.99,1
3044,46.59,150.18,-194.93,1
3045,46.6,35.86,131.88,1
3046,46.61,145.93,-126.27,1
3047,46.63,195.32,-175.07,1
3048,46.64,189.66,-32.86,1
3049,46.65,183.68,167.81,1
3050,46.67,212.46,-130.18,1
3051,46.68,74.15,2.53,1
3052,46.69,-163.05,75.58,1
3053,46.71,186.96,120.18,1
3054,46.72,50.17,85.69,1
3055,46.73,84.88,364.92,1
3056,46.75,119.31,59.49,1
3057,46.76,133.79,-363.09,1
3058,46.77,-82.35,-404.99,1
3059,46.79,-157.03,-59.52,1
3060,46.8,-55.6,-168.59,1
3061,46.81,-19.38,329.07,1
3062,46.83,-158.8,-153.76,1
3063,46.84,111.71,-10.15,1
3064,46.85,98.61,112.02,1
3065,46.87,97.37,-326.61,1
3066,46.88,-77.07,-78.88,1
3067,46.89,134.99,-117.8,1
3068,46.9,157.69,-55.55,1
3069,46.92,0.08,-31.04,0
3070,46.93,51.75,53.42,0
3071,46.95,-18.73,39.65,0
3072,46.96,-35.58,193.75,0
3073,46.97,-68.4,159.88,0
3074,46.99,-44.4,103.19,0
3075,47.0,-102.77,20.99,0
3076,47.01,-124.15,12.63,0
3077,47.03,-124.49,56.19,0
3078,47.04,-81.57,-115.2,0
3079,47.05,-27.91,-207.38,0
3080,47.07,21.51,-205.5,0
3081,47.08,2.5,-147.92,0
3082,47.09,4.75,-102.03,0
3083,47.11,15.55,-106.89,0
3084,47.12,22.86,-50.22,0
3085,47.13,-31.33,27.78,0
3086,47.15,-28.4,33.09,0
3087,47.16,14.04,68.78,0
3088,47.17,30.56,60.34,0
3089,47.19,49.44,46.61,0
3090,47.2,37.97,72.53,0
3091,47.21,31.5,78.45,0
3092,47.22,23.37,154.98,0
3093,47.24,15.29,101.88,0
3094,47.25,16.48,83.27,0
3095,47.27,30.19,95.49,0
3096,47.28,11.23,72.01,0
3097,47.29,-5.61,63.35,0
3098,47.31,-31.59,156.66,0
3099,47.32,-38.91,55.57,0
3100,47.33,-54.96,86.11,0
3101,47.35,-54.97,41.32,0
3102,47.36,-50.09,62.0,0
3103,47.37,-46.75,48.77,0
3104,47.38,-50.07,15.87,0
3105,47.4,-47.07,54.72,0
3106,47.41,-38.51,-11.39,0
3107,47.43,-33.0,39.54,0
3108,47.44,-41.1,-13.15,0
3109,47.45,-47.06,-5.48,0
3110,47.47,-35.86,-10.62,0
3111,47.48,-44.18,-14.37,0
3112,47.49,-34.87,-24.18,0
3113,47.51,-12.01,-17.43,0
3114,47.52,-21.22,-44.02,0
3115,47.53,-17.19,-46.27,0
3116,47.54,-10.66,-63.46,0
3117,47.56,-15.16,-65.84,0
3118,47.57,-11.6,-48.56,0
3119,47.59,-13.42,-58.82,0
3120,47.6,-2.31,-19.88,0
3121,47.61,12.93,-43.15,0
3122,47.63,11.76,-36.54,0
3123,47.64,-7.79,-27.51,0
3124,47.65,0.81,-46.71,0
3125,47.67,33.02,-46.46,0
3126,47.68,15.91,-47.25,0
3127,47.69,16.75,-53.43,0
3128,47.71,9.63,-41.46,0
3129,47.72,31.08,-58.75,0
3130,47.73,10.6,-74.48,0
3131,47.75,14.21,-41.96,0
3132,47.76,19.74,-22.17,0
3133,47.77,29.96,-7.09,0
3134,47.79,20.02,3.95,0
3135,47.8,31.48,-36.47,0
3136,47.81,20.61,-14.75,0
3137,47.83,18.51,21.25,0
3138,47.84,34.3,17.43,0
3139,47.85,36.94,-13.18,0
3140,47.87,21.1,7.92,0
3141,47.88,35.16,11.9,0
3142,47.89,19.01,2.71,0
3143,47.9,15.57,18.87,0
3144,47.92,18.65,-0.75,0
3145,47.93,15.7,16.6,0
3146,47.95,3.65,0.96,0
3147,47.96,-0.55,2.66,0
3148,47.97,-0.6,-16.67,0
3149,47.99,12.03,4.23,0
3150,48.0,5.16,3.82,0
3151,48.01,6.49,-7.08,0
3152,48.03,9.79,14.04,0
3153,48.04,10.38,3.58,0
3154,48.05,18.12,-1.76,0
3155,48.06,-3.67,23.72,0
3156,48.08,6.67,18.42,0
3157,48.09,4.58,45.82,0
3158,48.11,-25.43,63.76,1
3159,48.12,5.7,199.73,1
3160,48.13,16.12,367.38,1
3161,48.15,7.1,327.64,1
3162,48.16,67.77,243.1,1
3163,48.17,-58.04,170.41,1
3164,48.19,144.82,119.81,1
3165,48.2,-54.76,-167.32,1
3166,48.21,285.33,-357.28,1
3167,48.22,99.93,143.09,1
3168,48.24,-133.56,-236.44,1
3169,48.25,-92.18,29.23,1
3170,48.27,-103.98,-127.9,1
3171,48.28,174.17,-322.84,1
3172,48.29,-443.23,-55.82,1
3173,48.31,322.24,-605.12,1
3174,48.32,-209.15,-636.1,1
3175,48.33,323.58,-433.03,1
3176,48.35,-27.87,83.24,1
3177,48.36,57.38,212.29,1
3178,48.37,-225.5,141.36,1
3179,48.39,-166.97,268.34,1
3180,48.4,27.57,62.33,1
3181,48.41,-1.8,-204.77,1
3182,48.43,-287.04,-183.0,1
3183,48.44,-343.1,-196.39,1
3184,48.45,-46.4,73.74,1
3185,48.47,-259.43,190.32,1
3186,48.48,-62.45,-140.27,1
3187,48.49,279.25,-124.1,1
3188,48.51,-123.47,357.3,1
3189,48.52,-19.81,173.68,1
3190,48.53,48.29,465.97,1
3191,48.54,403.48,-113.3,1
3192,48.56,140.74,-118.89,1
3193,48.57,-38.04,-108.27,1
3194,48.59,91.07,-187.21,1
3195,48.6,71.51,252.71,1
3196,48.61,32.24,197.81,1
3197,48.63,-88.73,485.73,1
3198,48.64,-111.19,122.33,1
3199,48.65,234.77,531.7,1
3200,48.67,-138.92,214.94,1
3201,48.68,-11.09,263.92,1
3202,48.69,128.38,63.03,1
3203,48.71,-39.81,72.5,1
3204,48.72,-22.77,-215.05,1
3205,48.73,92.57,188.77,1
3206,48.75,20.0,-345.12,1
3207,48.76,-75.34,-96.95,1
3208,48.77,-9.75,-2.22,1
3209,48.79,-218.78,-480.39,1
3210,48.8,-167.14,-72.84,1
3211,48.81,39.14,-101.4,1
3212,48.83,-78.79,-18.31,1
3213,48.84,26.67,-556.54,1
3214,48.85,82.65,-196.22,1
3215,48.87,-12.91,185.35,1
3216,48.88,158.12,-19.03,1
3217,48.89,3.21,-127.44,1
3218,48.9,137.13,-179.76,1
3219,48.92,190.38,-65.05,0
3220,48.93,68.69,-105.5,0
3221,48.95,2.41,127.92,0
3222,48.96,5.83,238.04,0
3223,48.97,-50.44,353.06,0
3224,48.99,-1.36,297.5,0
3225,49.0,1.03,158.12,0
3226,49.01,-13.63,139.88,0
3227,49.03,-38.19,2.98,0
3228,49.04,-45.7,-198.94,0
3229,49.05,-49.16,-345.76,0
3230,49.06,-27.7,-281.75,0
3231,49.08,-45.54,-222.23,0
3232,49.09,-25.93,-126.23,0
3233,49.11,-31.6,-26.7,0
3234,49.12,25.7,25.14,0
3235,49.13,10.81,89.48,0
3236,49.15,56.79,110.42,0
3237,49.16,35.2,170.17,0
3238,49.17,49.06,177.63,0
3239,49.19,42.96,152.26,0
3240,49.2,39.77,134.44,0
3241,49.21,37.16,168.0,0
3242,49.22,43.54,116.6,0
3243,49.24,33.89,71.77,0
3244,49.25,26.88,81.29,0
3245,49.27,29.39,90.55,0
3246,49.28,13.38,43.99,0
3247,49.29,17.3,-5.97,0
3248,49.31,-1.28,35.6,0
3249,49.32,7.85,28.39,0
3250,49.33,-12.67,-15.09,0
3251,49.35,-10.22,-14.15,0
3252,49.36,-11.33,-49.58,0
3253,49.37,-18.01,-82.43,0
3254,49.38,-16.92,16.63,0
3255,49.4,-15.5,-66.69,0
3256,49.41,-33.35,-46.51,0
3257,49.43,-27.09,-64.19,0
3258,49.44,-30.14,-39.03,0
3259,49.45,-24.25,-37.53,0
3260,49.47,-20.12,-81.42,0
3261,49.48,-25.99,-62.44,0
3262,49.49,-29.05,-90.76,0
3263,49.51,-21.04,-68.33,0
3264,49.52,-37.01,-80.07,0
3265,49.53,-25.6,-79.05,0
3266,49.54,-33.15,-44.45,0
3267,49.56,-22.58,-35.93,0
3268,49.57,-9.0,-52.57,0
3269,49.59,-18.48,-40.61,0
3270,49.6,-23.62,-62.59,0
3271,49.61,-10.74,-41.29,0
3272,49.63,3.64,-54.52,0
3273,49.64,-16.73,-46.02,0
3274,49.65,-13.65,-30.14,0
3275,49.67,-24.25,-62.09,0
3276,49.68,-12.95,-41.52,0
3277,49.69,-17.92,-33.08,0
3278,49.71,-12.81,-13.47,0
3279,49.72,-3.08,-22.48,0
3280,49.73,-10.59,-2.79,0
3281,49.75,-4.96,31.3,0
3282,49.76,-0.45,16.97,0
3283,49.77,-4.35,28.83,0
3284,49.79,11.7,6.43,0
3285,49.8,-0.16,19.29,0
3286,49.81,18.67,34.93,0
3287,49.83,9.55,16.48,0
3288,49.84,7.66,-0.58,0
3289,49.85,-5.76,8.08,0
3290,49.87,6.73,35.62,0
3291,49.88,8.98,50.46,0
3292,49.89,17.0,51.12,0
3293,49.9,-3.84,28.05,0
3294,49.92,18.12,47.43,0
3295,49.93,2.74,70.98,0
3296,49.95,10.1,40.88,0
3297,49.96,4.63,30.52,0
3298,49.97,17.4,69.43,0
3299,49.99,19.98,79.51,0
3300,50.0,5.1,43.04,0
3301,50.01,10.57,67.82,0
3302,50.03,12.44,137.67,0
3303,50.04,4.4,22.83,0
3304,50.05,13.62,170.79,0
3305,50.06,6.81,139.97,0
3306,50.08,-16.94,278.9,0
3307,50.09,152.41,284.19,0
3308,50.11,-47.75,-49.48,1
3309,50.12,49.66,-456.23,1
3310,50.13,137.19,-100.55,1
3311,50.15,46.47,-166.09,1
3312,50.16,-47.0,9.23,1
3313,50.17,133.11,-156.5,1
3314,50.19,-182.88,-247.06,1
3315,50.2,-115.43,-33.52,1
3316,50.21,41.09,93.93,1
3317,50.22,250.35,-452.23,1
3318,50.24,-2.85,39.69,1
3319,50.25,85.73,-399.8,1
3320,50.27,-94.26,-190.0,1
3321,50.28,205.78,41.3,1
3322,50.29,-209.78,-131.89,1
3323,50.31,-19.81,208.94,1
3324,50.32,-376.46,-406.24,1
3325,50.33,32.07,103.79,1
3326,50.35,-171.79,310.55,1
3327,50.36,-86.05,141.97,1
3328,50.37,-108.0,193.13,1
3329,50.38,120.29,-5.23,1
3330,50.4,17.6,447.26,1
3331,50.41,-43.26,440.32,1
3332,50.43,-155.09,390.01,1
3333,50.44,-144.66,154.69,1
3334,50.45,-103.23,73.48,1
3335,50.47,254.98,-31.46,1
3336,50.48,31.93,23.01,1
3337,50.49,33.44,-223.72,1
3338,50.51,-109.82,-212.74,1
3339,50.52,193.23,-65.71,1
3340,50.53,109.63,-165.3,1
3341,50.54,-4.35,58.27,1
3342,50.56,-50.76,189.46,1
3343,50.57,61.42,-207.53,1
3344,50.59,-79.0,-30.58,1
3345,50.6,152.78,-406.03,1
3346,50.61,1.01,202.87,1
3347,50.63,-212.92,174.89,1
3348,50.64,123.99,-147.65,1
3349,50.65,-43.21,104.82,1
3350,50.67,110.22,286.45,1
3351,50.68,61.6,-135.26,1
3352,50.69,143.65,-615.5,1
3353,50.71,198.44,-350.15,1
3354,50.72,-13.19,-503.51,1
3355,50.73,-15.28,59.45,1
3356,50.75,62.25,390.79,1
3357,50.76,-66.39,4.37,1
3358,50.77,52.54,432.86,1
3359,50.79,206.7,40.17,1
3360,50.8,-197.35,-47.26,1
3361,50.81,136.87,-169.55,1
3362,50.83,61.56,-111.33,1
3363,50.84,-67.07,-128.43,1
3364,50.85,-93.29,26.59,1
3365,50.87,-118.97,84.87,1
3366,50.88,-144.16,123.69,1
3367,50.89,-111.75,304.06,1
3368,50.91,-125.79,145.54,0
3369,50.92,-138.36,-32.02,0
3370,50.93,-143.56,-50.2,0
3371,50.95,-125.62,122.17,0
3372,50.96,-52.64,-26.11,0
3373,50.97,9.86,-177.82,0
3374,50.99,40.85,-199.6,0
3375,51.0,46.2,-235.14,0
3376,51.01,76.99,-255.67,0
3377,51.03,68.88,-127.61,0
3378,51.04,75.45,-55.4,0
3379,51.05,85.42,3.73,0
3380,51.06,93.58,76.86,0
3381,51.08,56.95,84.94,0
3382,51.09,48.52,116.38,0
3383,51.11,67.0,157.96,0
3384,51.12,60.91,133.43,0
3385,51.13,77.64,118.79,0
3386,51.15,60.91,85.37,0
3387,51.16,66.94,78.83,0
3388,51.17,47.42,105.52,0
3389,51.19,28.44,139.17,0
3390,51.2,35.42,107.58,0
3391,51.21,5.56,88.3,0
3392,51.22,13.16,103.35,0
3393,51.24,52.33,45.97,0
3394,51.25,36.53,46.53,0
3395,51.27,-3.32,89.98,0
3396,51.28,-11.2,36.17,0
3397,51.29,-22.95,58.56,0
3398,51.31,-41.58,17.47,0
3399,51.32,-39.98,55.35,0
3400,51.33,-29.37,0.62,0
3401,51.35,-47.32,-4.4,0
3402,51.36,-53.14,-12.77,0
3403,51.37,-43.7,-16.23,0
3404,51.38,-54.22,-42.71,0
3405,51.4,-49.17,-60.08,0
3406,51.41,-43.46,-65.07,0
3407,51.43,-46.53,-62.02,0
3408,51.44,-45.3,-42.79,0
3409,51.45,-38.0,-47.32,0
3410,51.47,-31.95,-64.12,0
3411,51.48,-25.18,-66.74,0
3412,51.49,-32.54,-80.27,0
3413,51.51,-29.61,-84.58,0
3414,51.52,-29.05,-65.33,0
3415,51.53,-35.94,-65.88,0
3416,51.55,-15.08,-88.81,0
3417,51.56,-25.89,-37.79,0
3418,51.57,-10.88,-62.44,0
3419,51.59,-6.72,-49.76,0
3420,51.6,-5.46,-44.38,0
3421,51.61,-18.59,-47.24,0
3422,51.63,-11.1,-21.45,0
3423,51.64,-4.93,-43.95,0
3424,51.65,18.32,-15.12,0
3425,51.67,-4.16,-36.06,0
3426,51.68,14.19,-14.35,0
3427,51.69,27.46,-4.68,0
3428,51.71,5.08,-22.06,0
3429,51.72,4.13,-27.78,0
3430,51.73,-3.77,10.43,0
3431,51.75,-5.27,-16.05,0
3432,51.76,8.82,-25.18,0
3433,51.77,11.25,13.21,0
3434,51.79,11.93,9.5,0
3435,51.8,19.47,17.15,0
3436,51.81,18.66,28.29,0
3437,51.83,16.21,2.35,0
3438,51.84,6.9,-33.97,0
3439,51.85,1.65,29.87,0
3440,51.87,13.55,22.66,0
3441,51.88,8.98,18.84,0
3442,51.89,14.06,36.89,0
3443,51.9,9.12,38.18,0
3444,51.92,13.73,50.68,0
3445,51.93,20.58,26.09,0
3446,51.95,15.5,8.23,0
3447,51.96,21.31,37.75,0
3448,51.97,21.61,52.24,0
3449,51.99,17.49,50.83,0
3450,52.0,11.69,43.91,0
3451,52.01,11.01,74.66,0
3452,52.03,6.29,47.76,0
3453,52.04,0.95,48.29,0
3454,52.05,-5.47,175.55,0
3455,52.06,-3.25,288.67,0
3456,52.08,16.52,287.75,0
3457,52.09,33.76,134.82,0
3458,52.11,-76.36,93.84,1
3459,52.12,72.08,-254.88,1
3460,52.13,-69.47,116.6,1
3461,52.15,181.69,-53.59,1
3462,52.16,-312.89,-210.64,1
3463,52.17,335.8,-77.31,1
3464,52.19,50.97,1.85,1
3465,52.2,164.76,-425.61,1
3466,52.21,48.64,-341.88,1
3467,52.23,-155.87,-238.62,1
3468,52.24,27.48,-127.92,1
3469,52.25,3.4,75.56,1
3470,52.27,-209.7,-73.2,1
3471,52.28,62.5,210.42,1
3472,52.29,-150.48,-353.91,1
3473,52.31,-66.14,-190.68,1
3474,52.32,10.23,77.16,1
3475,52.33,50.22,392.7,1
3476,52.35,-274.25,49.62,1
3477,52.36,148.49,-257.43,1
3478,52.37,121.61,-51.28,1
3479,52.38,59.24,183.39,1
3480,52.4,-22.58,-28.98,1
3481,52.41,-7.78,-170.29,1
3482,52.43,-155.13,-79.81,1
3483,52.44,126.67,-8.58,1
3484,52.45,-37.67,329.26,1
3485,52.47,40.7,-138.89,1
3486,52.48,-5.47,-13.2,1
3487,52.49,44.92,-213.35,1
3488,52.51,-140.39,328.91,1
3489,52.52,228.32,96.18,1
3490,52.53,-143.36,261.39,1
3491,52.54,62.04,-278.72,1
3492,52.56,-0.83,194.15,1
3493,52.57,83.49,-161.9,1
3494,52.59,-3.63,-189.21,1
3495,52.6,65.13,-183.53,1
3496,52.61,-28.54,98.12,1
3497,52.63,-100.06,-189.73,1
3498,52.64,-135.41,148.35,1
3499,52.65,-16.2,58.78,1
3500,52.67,-96.23,184.56,1
3501,52.68,-139.02,440.27,1
3502,52.69,-5.36,554.46,1
3503,52.71,-91.26,295.86,1
3504,52.72,64.88,-118.85,1
3505,52.73,220.75,-216.96,1
3506,52.75,-36.99,-162.95,1
3507,52.76,-115.07,8.65,1
3508,52.77,-151.42,1.32,1
3509,52.79,-50.36,56.97,1
3510,52.8,-110.04,19.26,1
3511,52.81,-72.96,2.71,1
3512,52.83,-95.33,100.26,1
3513,52.84,-78.05,239.68,1
3514,52.85,-120.75,114.0,1
3515,52.87,-72.86,-3.25,1
3516,52.88,-81.06,-76.18,1
3517,52.89,0.02,6.87,1
3518,52.9,38.65,-63.51,1
3519,52.92,119.31,-290.11,0
3520,52.93,130.56,-265.47,0
3521,52.95,159.74,-178.72,0
3522,52.96,151.32,-79.78,0
3523,52.97,170.55,-44.94,0
3524,52.99,84.31,-79.77,0
3525,53.0,97.03,-67.2,0
3526,53.01,112.39,26.52,0
3527,53.03,160.33,26.48,0
3528,53.04,159.0,22.42,0
3529,53.05,155.51,73.09,0
3530,53.06,132.27,51.96,0
3531,53.08,133.13,44.34,0
3532,53.09,92.76,33.51,0
3533,53.11,87.21,19.74,0
3534,53.12,56.46,26.73,0
3535,53.13,55.43,44.03,0
3536,53.15,19.04,-32.0,0
3537,53.16,22.1,-31.28,0
3538,53.17,-4.93,28.93,0
3539,53.19,-5.46,66.25,0
3540,53.2,-21.56,-26.77,0
3541,53.21,-39.56,-20.59,0
3542,53.22,-48.47,-27.55,0
3543,53.24,-36.53,-16.86,0
3544,53.25,-72.67,-21.79,0
3545,53.27,-65.39,16.41,0
3546,53.28,-78.3,-11.97,0
3547,53.29,-64.71,-17.91,0
3548,53.31,-83.32,-18.96,0
3549,53.32,-70.59,-23.44,0
3550,53.33,-71.94,-25.97,0
3551,53.35,-81.98,7.83,0
3552,53.36,-64.8,-14.64,0
3553,53.37,-71.38,-21.29,0
3554,53.38,-60.7,-39.16,0
3555,53.4,-69.76,-32.96,0
3556,53.41,-52.24,-29.79,0
3557,53.43,-74.1,-4.51,0
3558,53.44,-57.54,-24.52,0
3559,53.45,-62.25,-45.65,0
3560,53.47,-45.91,-43.08,0
3561,53.48,-53.16,-3.58,0
3562,53.49,-27.97,-12.1,0
3563,53.51,-31.47,-21.7,0
3564,53.52,-27.33,-19.69,0
3565,53.53,-22.87,2.35,0
3566,53.54,-42.21,-13.94,0
3567,53.56,-28.59,13.6,0
3568,53.57,-18.62,-13.1,0
3569,53.59,-2.95,6.71,0
3570,53.6,8.85,7.2,0
3571,53.61,-6.74,-1.46,0
3572,53.63,-1.64,8.39,0
3573,53.64,-4.11,7.45,0
3574,53.65,12.38,36.26,0
3575,53.67,0.53,11.81,0
3576,53.68,13.53,9.35,0
3577,53.69,30.82,0.63,0
3578,53.71,26.69,8.24,0
3579,53.72,20.62,52.46,0
3580,53.73,12.96,36.76,0
3581,53.75,5.11,31.63,0
3582,53.76,27.7,11.25,0
3583,53.77,35.58,0.07,0
3584,53.79,19.91,-0.77,0
3585,53.8,22.69,6.0,0
3586,53.81,24.05,21.87,0
3587,53.83,26.26,12.73,0
3588,53.84,26.65,-12.18,0
3589,53.85,27.73,-21.83,0
3590,53.87,24.77,26.7,0
3591,53.88,28.14,-7.14,0
3592,53.89,27.52,-5.35,0
3593,53.9,24.73,39.95,0
3594,53.92,34.98,7.14,0
3595,53.93,34.49,11.48,0
3596,53.95,26.04,25.71,0
3597,53.96,24.32,5.48,0
3598,53.97,-0.52,-9.37,0
3599,53.99,8.58,6.81,0
3600,54.0,21.52,23.66,0
3601,54.01,29.9,29.04,0
3602,54.03,30.08,23.57,0
3603,54.04,13.27,-17.93,0
3604,54.05,5.45,-14.62,0
3605,54.06,19.75,-48.22,0
3606,54.08,-16.86,-16.95,0
3607,54.09,-7.25,15.54,0
3608,54.11,-17.83,81.18,1
3609,54.12,-12.5,95.25,1
3610,54.13,7.26,237.15,1
3611,54.15,-17.06,292.92,1
3612,54.16,-10.69,-3.78,1
3613,54.17,-82.4,-192.54,1
3614,54.19,79.99,-40.1,1
3615,54.2,22.63,342.12,1
3616,54.21,343.18,125.46,1
3617,54.22,55.53,98.25,1
3618,54.24,268.68,-47.25,1
3619,54.25,-19.16,-438.46,1
3620,54.27,180.86,-101.22,1
3621,54.28,-246.37,45.77,1
3622,54.29,-45.98,-199.52,1
3623,54.31,-61.36,130.56,1
3624,54.32,-138.96,-114.31,1
3625,54.33,-125.63,-504.11,1
3626,54.35,113.44,-465.31,1
3627,54.36,-163.16,-318.68,1
3628,54.37,-117.0,-126.25,1
3629,54.38,-257.22,245.16,1
3630,54.4,-151.83,-156.87,1
3631,54.41,-142.16,124.23,1
3632,54.43,-111.02,-478.07,1
3633,54.44,113.14,-238.01,1
3634,54.45,20.28,-383.55,1
3635,54.47,-114.14,-161.99,1
3636,54.48,68.88,7.65,1
3637,54.49,-229.11,83.49,1
3638,54.51,-21.08,60.98,1
3639,54.52,-42.32,335.15,1
3640,54.53,16.57,460.16,1
3641,54.54,-158.04,461.98,1
3642,54.56,14.92,506.39,1
3643,54.57,42.36,-126.32,1
3644,54.59,189.72,29.18,1
3645,54.6,101.29,344.81,1
3646,54.61,11.89,158.72,1
3647,54.63,-81.04,187.15,1
3648,54.64,51.97,260.1,1
3649,54.65,6.27,545.0,1
3650,54.67,120.31,191.94,1
3651,54.68,193.71,263.86,1
3652,54.69,-57.11,-203.79,1
3653,54.71,-36.78,117.55,1
3654,54.72,78.76,-155.2,1
3655,54.73,54.24,-612.42,1
3656,54.75,35.2,-371.1,1
3657,54.76,151.11,-209.81,1
3658,54.77,133.8,185.56,1
3659,54.79,249.11,15.69,1
3660,54.8,79.26,221.09,1
3661,54.81,35.53,-346.63,1
3662,54.83,-0.68,179.53,1
3663,54.84,149.36,-24.86,1
3664,54.85,-51.37,44.18,1
3665,54.87,218.3,-90.3,1
3666,54.88,-255.31,108.01,1
3667,54.89,176.77,151.61,1
3668,54.9,-476.76,111.65,1
3669,54.92,142.2,-34.86,0
3670,54.93,-99.66,-67.33,0
3671,54.95,9.95,-60.59,0
3672,54.96,-135.74,-123.24,0
3673,54.97,-116.75,-104.92,0
3674,54.99,-88.76,-51.66,0
3675,55.0,-153.8,144.34,0
3676,55.01,-192.65,112.77,0
3677,55.03,-217.83,107.78,0
3678,55.04,-201.01,-7.86,0
3679,55.05,-254.73,-80.73,0
3680,55.06,-172.13,-108.82,0
3681,55.08,-129.89,-303.29,0
3682,55.09,-61.69,-264.43,0
3683,55.11,44.99,-336.64,0
3684,55.12,152.28,-316.04,0
3685,55.13,214.21,-281.37,0
3686,55.15,233.56,-228.19,0
3687,55.16,242.41,-157.68,0
3688,55.17,224.39,-82.29,0
3689,55.19,228.96,4.89,0
3690,55.2,208.8,48.67,0
3691,55.21,186.21,59.38,0
3692,55.22,185.98,115.96,0
3693,55.24,163.16,181.06,0
3694,55.25,142.29,165.53,0
3695,55.27,108.77,162.01,0
3696,55.28,95.48,130.05,0
3697,55.29,70.35,137.99,0
3698,55.31,40.85,145.75,0
3699,55.32,17.88,107.79,0
3700,55.33,-1.55,96.96,0
3701,55.35,-15.29,130.73,0
3702,55.36,-33.52,127.04,0
3703,55.37,-36.0,75.34,0
3704,55.38,-55.86,88.39,0
3705,55.4,-61.01,32.99,0
3706,55.41,-108.28,22.07,0
3707,55.43,-131.7,43.69,0
3708,55.44,-97.49,12.63,0
3709,55.45,-95.49,47.56,0
3710,55.47,-80.17,36.83,0
3711,55.48,-72.85,-13.39,0
3712,55.49,-75.47,-37.9,0
3713,55.51,-63.36,-7.78,0
3714,55.52,-80.89,34.19,0
3715,55.53,-62.3,-48.37,0
3716,55.54,-51.85,-20.08,0
3717,55.56,-55.98,-10.38,0
3718,55.57,-64.61,-20.59,0
3719,55.59,-58.17,-27.55,0
3720,55.6,-65.81,-1.82,0
3721,55.61,-62.41,-42.84,0
3722,55.63,-62.96,-51.97,0
3723,55.64,-51.29,-16.5,0
3724,55.65,-30.21,-18.82,0
3725,55.67,-37.83,-57.54,0
3726,55.68,-38.35,-48.0,0
3727,55.69,-18.34,-6.8,0
3728,55.71,-21.96,-70.07,0
3729,55.72,-22.1,-27.79,0
3730,55.73,-16.68,-29.63,0
3731,55.75,-24.0,-51.12,0
3732,55.76,-7.07,-30.9,0
3733,55.77,-0.8,0.87,0
3734,55.79,1.65,-6.78,0
3735,55.8,2.57,-27.58,0
3736,55.81,11.09,-32.19,0
3737,55.83,-3.72,-28.14,0
3738,55.84,11.57,-27.24,0
3739,55.85,19.09,15.78,0
3740,55.87,22.15,1.59,0
3741,55.88,18.33,8.63,0
3742,55.89,27.7,-37.41,0
3743,55.9,21.55,-10.38,0
3744,55.92,27.56,44.76,0
3745,55.93,38.85,29.66,0
3746,55.95,12.46,-0.84,0
3747,55.96,28.31,-10.9,0
3748,55.97,31.61,12.34,0
3749,55.99,48.51,32.87,0
3750,56.0,34.42,-11.48,0
3751,56.01,31.79,-8.44,0
3752,56.03,37.97,3.32,0
3753,56.04,20.65,-6.52,0
3754,56.05,37.2,71.88,0
3755,56.06,31.87,39.3,0
3756,56.08,4.56,3.18,0
3757,56.09,12.11,36.87,0
3758,56.11,30.96,90.8,1
3759,56.12,46.67,122.97,1
3760,56.13,20.93,245.02,1
3761,56.15,29.32,351.65,1
3762,56.16,41.85,122.3,1
3763,56.17,115.42,-103.69,1
3764,56.19,112.43,-235.19,1
3765,56.2,20.28,-358.12,1
3766,56.21,-176.59,350.3,1
3767,56.22,122.72,-111.1,1
3768,56.24,290.08,-30.01,1
3769,56.25,61.15,-58.27,1
3770,56.27,-210.5,-133.52,1
3771,56.28,48.41,-106.03,1
3772,56.29,-21.0,-456.62,1
3773,56.31,98.61,-195.72,1
3774,56.32,37.76,-6.56,1
3775,56.33,-0.32,-7.63,1
3776,56.35,-130.28,250.8,1
3777,56.36,-86.11,-196.87,1
3778,56.37,-195.28,74.08,1
3779,56.38,-181.88,-28.38,1
3780,56.4,-50.89,-87.79,1
3781,56.41,-188.04,-77.47,1
3782,56.43,29.31,-4.7,1
3783,56.44,176.08,-169.72,1
3784,56.45,37.2,-22.23,1
3785,56.47,9.59,-362.14,1
3786,56.48,-131.97,-239.57,1
3787,56.49,-79.48,29.51,1
3788,56.51,-36.7,100.4,1
3789,56.52,100.05,74.35,1
3790,56.53,-102.28,82.55,1
3791,56.54,61.06,-64.11,1
3792,56.56,-39.32,237.17,1
3793,56.57,-22.48,-60.13,1
3794,56.59,-134.83,364.87,1
3795,56.6,-281.87,457.01,1
3796,56.61,139.83,273.62,1
3797,56.63,-111.6,-43.35,1
3798,56.64,27.16,346.49,1
3799,56.65,50.98,174.62,1
3800,56.67,76.37,327.69,1
3801,56.68,-68.53,126.29,1
3802,56.69,25.37,234.61,1
3803,56.71,141.61,-199.33,1
3804,56.72,270.9,347.73,1
3805,56.73,-72.88,-254.04,1
3806,56.75,140.33,141.35,1
3807,56.76,-59.42,-275.67,1
3808,56.77,6.67,-15.98,1
3809,56.79,-16.29,-217.42,1
3810,56.8,230.08,-32.54,1
3811,56.81,109.82,-136.99,1
3812,56.83,-91.05,-86.29,1
3813,56.84,-47.84,-149.65,1
3814,56.85,-43.37,-84.59,1
3815,56.87,-83.67,-26.75,1
3816,56.88,-97.8,125.44,1
3817,56.89,-118.26,89.85,1
3818,56.9,-124.58,3.29,1
3819,56.92,-146.61,27.21,0
3820,56.93,-130.44,134.02,0
3821,56.95,-47.19,-186.28,0
3822,56.96,6.59,-304.78,0
3823,56.97,83.65,-228.61,0
3824,56.99,99.19,-361.54,0
3825,57.0,119.19,-321.88,0
3826,57.01,113.99,-184.61,0
3827,57.03,106.55,-146.14,0
3828,57.04,113.9,-30.99,0
3829,57.05,98.66,36.12,0
3830,57.06,111.59,41.19,0
3831,57.08,128.54,164.67,0
3832,57.09,109.27,148.05,0
3833,57.11,103.26,202.39,0
3834,57.12,79.51,178.09,0
3835,57.13,75.82,149.03,0
3836,57.15,63.72,109.92,0
3837,57.16,28.23,148.51,0
3838,57.17,28.08,122.75,0
3839,57.19,4.58,110.65,0
3840,57.2,3.9,97.01,0
3841,57.21,-19.53,82.97,0
3842,57.22,3.68,59.14,0
3843,57.24,-9.15,6.42,0
3844,57.25,-39.68,11.12,0
3845,57.27,-58.08,2.93,0
3846,57.28,-48.19,13.85,0
3847,57.29,-63.56,-14.43,0
3848,57.31,-47.64,-27.49,0
3849,57.32,-53.25,-23.19,0
3850,57.33,-63.76,-22.82,0
3851,57.35,-48.48,-35.11,0
3852,57.36,-62.51,-37.04,0
3853,57.37,-55.89,-37.15,0
3854,57.38,-60.27,-44.81,0
3855,57.4,-68.16,-60.22,0
3856,57.41,-60.15,-51.08,0
3857,57.43,-49.58,-35.85,0
3858,57.44,-47.74,-55.22,0
3859,57.45,-42.51,-52.67,0
3860,57.47,-45.68,-48.34,0
3861,57.48,-56.59,-36.5,0
3862,57.49,-48.3,-43.98,0
3863,57.51,-34.05,-67.98,0
3864,57.52,-41.51,-60.37,0
3865,57.53,-28.84,-33.62,0
3866,57.54,-34.66,-56.41,0
3867,57.56,-27.02,-7.35,0
3868,57.57,-17.85,-25.46,0
3869,57.59,-13.57,-63.03,0
3870,57.6,-7.43,-5.83,0
3871,57.61,-20.02,-9.17,0
3872,57.63,-7.47,-9.05,0
3873,57.64,15.2,21.66,0
3874,57.65,12.16,-4.17,0
3875,57.67,8.79,6.7,0
3876,57.68,17.56,-12.69,0
3877,57.69,14.15,-6.32,0
3878,57.71,27.26,-6.36,0
3879,57.72,16.34,-11.01,0
3880,57.73,-2.19,25.95,0
3881,57.75,34.35,-28.93,0
3882,57.76,12.81,-2.08,0
3883,57.77,21.16,19.85,0
3884,57.79,18.96,36.11,0
3885,57.8,15.94,37.75,0
3886,57.81,20.49,29.34,0
3887,57.83,40.23,44.99,0
3888,57.84,36.13,30.16,0
3889,57.85,17.74,-3.93,0
3890,57.87,19.76,60.37,0
3891,57.88,16.99,41.47,0
3892,57.89,12.98,33.45,0
3893,57.9,11.77,27.76,0
3894,57.92,16.48,27.6,0
3895,57.93,12.64,5.81,0
3896,57.95,17.26,52.48,0
3897,57.96,16.04,11.24,0
3898,57.97,13.71,16.79,0
3899,57.99,22.53,31.29,0
3900,58.0,-5.38,12.41,0
3901,58.01,13.93,8.72,0
3902,58.025000000000006,15.88,2.27,0
3903,58.04,4.76,-44.43,0
3904,58.05,15.95,34.07,0
3905,58.06,23.76,12.23,0
3906,58.08,6.75,22.14,0
3907,58.09,-3.27,-12.59,0
3908,58.11,17.8,19.63,1
3909,58.12,-16.33,53.09,1
3910,58.13,-2.53,-114.58,1
3911,58.15,-2.82,-290.29,1
3912,58.16,0.93,-266.04,1
3913,58.17,36.08,-21.85,1
3914,58.19,160.25,246.07,1
3915,58.2,230.87,320.14,1
3916,58.21,184.76,-312.55,1
3917,58.22,191.8,152.09,1
3918,58.24,-184.76,274.25,1
3919,58.25,-198.68,335.09,1
3920,58.27,-212.57,36.92,1
3921,58.28,-79.99,81.1,1
3922,58.29,-91.85,225.85,1
3923,58.31,143.09,187.47,1
3924,58.32,186.63,133.08,1
3925,58.33,62.29,-101.04,1
3926,58.35,131.31,129.25,1
3927,58.36,-58.02,-337.09,1
3928,58.37,-100.54,-263.62,1
3929,58.38,-185.96,-377.99,1
3930,58.4,-352.73,130.92,1
3931,58.41,-521.83,-610.1,1
3932,58.43,-368.68,-192.13,1
3933,58.44,-58.42,-198.37,1
3934,58.45,-89.33,-32.18,1
3935,58.47,64.98,-107.67,1
3936,58.48,-3.86,160.35,1
3937,58.49,50.99,-43.42,1
3938,58.51,192.29,153.13,1
3939,58.52,38.74,433.38,1
3940,58.53,94.55,-71.24,1
3941,58.54,-182.55,-353.73,1
3942,58.56,0.55,-237.22,1
3943,58.57,132.29,-284.54,1
3944,58.59,132.24,-37.22,1
3945,58.6,245.09,194.87,1
3946,58.61,210.67,81.33,1
3947,58.63,147.93,570.52,1
3948,58.64,7.36,-152.66,1
3949,58.65,348.63,33.82,1
3950,58.66,-71.9,437.81,1
3951,58.68,111.74,-53.45,1
3952,58.69,173.42,255.49,1
3953,58.71,-98.28,403.07,1
3954,58.72,29.19,-28.37,1
3955,58.73,-126.16,-442.47,1
3956,58.75,-185.87,147.43,1
3957,58.76,-252.22,-25.97,1
3958,58.77,8.09,-183.07,1
3959,58.79,41.85,-141.83,1
3960,58.8,27.3,108.63,1
3961,58.81,68.65,272.2,1
3962,58.83,-31.12,174.79,1
3963,58.84,-120.03,-199.75,1
3964,58.85,40.17,-105.26,1
3965,58.87,14.57,-200.58,1
3966,58.88,66.27,-235.22,1
3967,58.89,191.11,-71.63,1
3968,58.9,-19.44,348.11,1
3969,58.92,184.65,-29.83,0
3970,58.93,-115.42,-517.53,0
3971,58.95,-109.09,-83.86,0
3972,58.96,87.61,469.27,0
3973,58.97,98.88,226.25,0
3974,58.99,-24.74,-95.41,0
3975,59.0,18.42,-427.42,0
3976,59.01,25.88,-89.72,0
3977,59.03,-166.09,-69.69,0
3978,59.04,106.7,-56.64,0
3979,59.05,62.33,115.94,0
3980,59.06,-43.1,2.65,0
3981,59.08,-129.97,41.49,0
3982,59.09,-111.36,73.0,0
3983,59.11,-182.29,5.73,0
3984,59.12,7.87,89.98,0
3985,59.13,-157.05,144.12,0
3986,59.15,-100.83,271.76,0
3987,59.16,-160.76,120.54,0
3988,59.17,-138.07,39.42,0
3989,59.19,-169.46,98.14,0
3990,59.2,-147.0,43.34,0
3991,59.21,-84.96,-183.08,0
3992,59.22,-23.23,-294.21,0
3993,59.24,53.89,-264.22,0
3994,59.25,107.95,-203.78,0
3995,59.27,142.75,-135.9,0
3996,59.28,108.56,-146.28,0
3997,59.29,148.31,-60.47,0
3998,59.3,114.01,46.8,0
3999,59.32,129.61,82.99,0
4000,59.33,116.45,132.72,0
4001,59.35,105.34,144.88,0
4002,59.36,104.02,150.21,0
4003,59.37,109.64,139.65,0
4004,59.38,91.16,118.82,0
4005,59.4,75.64,109.31,0
4006,59.41,57.86,80.95,0
4007,59.43,58.52,95.37,0
4008,59.44,34.56,77.86,0
4009,59.45,26.75,56.81,0
4010,59.47,2.02,59.84,0
4011,59.48,20.8,18.85,0
4012,59.49,-6.12,75.96,0
4013,59.51,-1.37,28.63,0
4014,59.52,-35.38,54.47,0
4015,59.53,-26.53,9.86,0
4016,59.54,-43.2,-8.79,0
4017,59.56,-18.81,29.46,0
4018,59.57,-20.05,1.53,0
4019,59.59,-41.92,-52.41,0
4020,59.6,-42.69,-39.62,0
4021,59.61,-34.23,-25.33,0
4022,59.63,-35.67,-34.69,0
4023,59.64,-41.01,-70.76,0
4024,59.65,-46.96,-64.46,0
4025,59.67,-57.7,-27.88,0
4026,59.68,-52.31,-73.43,0
4027,59.69,-40.91,-54.0,0
4028,59.71,-43.03,-83.32,0
4029,59.72,-57.5,-52.6,0
4030,59.73,-57.91,-48.12,0
4031,59.75,-26.66,-54.01,0
4032,59.76,-25.51,-42.03,0
4033,59.77,-29.95,-87.91,0
4034,59.79,-26.66,-56.63,0
4035,59.8,-25.93,-42.52,0
4036,59.81,-13.75,-31.59,0
4037,59.83,-10.36,-32.22,0
4038,59.84,-9.44,-75.21,0
4039,59.85,-10.5,-5.94,0
4040,59.87,-13.51,-36.64,0
4041,59.88,-7.57,15.18,0
4042,59.89,5.89,-26.16,0
4043,59.9,-10.44,-14.92,0
4044,59.92,8.1,13.01,0
4045,59.93,-4.82,11.52,0
4046,59.94,6.17,-1.2,0
4047,59.96,8.75,14.4,0
4048,59.97,10.06,-4.19,0
4049,59.985,-3.78,-2.49,0
4050,60.0,14.11,9.14,0
