,Timestamp,Data1,Data2,Label
0,6.0,-0.49,19.93,0
1,6.01,11.13,-33.58,0
2,6.03,-8.66,30.74,0
3,6.04,-9.44,15.06,0
4,6.05,-2.34,-16.42,0
5,6.07,5.2,7.35,0
6,6.08,2.3,-14.02,0
7,6.09,13.73,-45.99,0
8,6.11,1.72,16.22,1
9,6.12,-14.52,-8.84,1
10,6.13,15.24,-1.05,1
11,6.15,-2.17,37.9,1
12,6.16,-2.47,35.6,1
13,6.17,-14.53,53.98,1
14,6.19,-42.74,163.01,1
15,6.2,-238.35,285.43,1
16,6.21,308.06,316.21,1
17,6.23,-31.7,232.5,1
18,6.24,-127.02,165.89,1
19,6.25,171.22,-162.23,1
20,6.27,-280.09,-616.08,1
21,6.28,-215.91,-280.55,1
22,6.29,44.38,-273.65,1
23,6.31,-179.58,-230.1,1
24,6.32,174.35,287.19,1
25,6.33,203.96,-109.87,1
26,6.35,-240.77,405.41,1
27,6.36,-5.63,143.75,1
28,6.37,433.41,-21.85,1
29,6.39,-259.45,-426.82,1
30,6.4,214.81,-248.43,1
31,6.41,333.33,-28.71,1
32,6.43,299.2,121.4,1
33,6.44,330.66,-125.98,1
34,6.45,236.16,71.21,1
35,6.47,-119.61,-187.08,1
36,6.48,-384.45,294.29,1
37,6.49,-230.43,128.15,1
38,6.51,-128.69,160.92,1
39,6.52,-376.79,88.47,1
40,6.53,-259.89,80.17,1
41,6.55,-158.33,-70.27,1
42,6.56,239.92,-305.41,1
43,6.57,166.55,-213.66,1
44,6.59,141.06,119.68,1
45,6.6,367.96,-2.33,1
46,6.61,9.26,-227.62,1
47,6.63,-54.04,-229.83,1
48,6.64,-192.54,-304.04,1
49,6.65,9.46,-6.31,1
50,6.67,-82.86,-155.6,1
51,6.68,26.63,-123.95,1
52,6.69,199.85,-124.98,1
53,6.71,-254.9,-118.81,1
54,6.72,166.42,26.61,1
55,6.73,-11.97,184.93,1
56,6.75,-194.82,424.71,1
57,6.76,-323.68,366.42,1
58,6.77,48.53,166.93,1
59,6.79,334.71,163.72,1
60,6.8,-224.43,352.25,1
61,6.81,26.53,84.53,1
62,6.83,141.99,16.79,1
63,6.84,-69.71,255.66,1
64,6.85,-38.17,124.38,1
65,6.87,-248.87,117.83,1
66,6.88,168.29,-26.14,1
67,6.89,33.98,-202.06,1
68,6.91,25.6,-302.22,0
69,6.92,-17.1,-381.77,0
70,6.93,22.8,-358.69,0
71,6.95,26.49,-570.26,0
72,6.96,166.21,-293.96,0
73,6.97,195.96,-363.1,0
74,6.99,213.75,-190.88,0
75,7.0,129.54,-108.55,0
76,7.01,82.37,-36.8,0
77,7.03,-3.92,34.3,0
78,7.04,-64.49,108.77,0
79,7.05,-109.54,134.09,0
80,7.07,-129.17,179.43,0
81,7.08,-153.0,225.45,0
82,7.09,-131.38,226.46,0
83,7.11,-141.95,247.48,0
84,7.12,-117.54,272.99,0
85,7.13,-99.03,268.31,0
86,7.15,-93.64,340.44,0
87,7.16,-96.3,441.77,0
88,7.17,-66.25,431.3,0
89,7.19,-50.07,421.2,0
90,7.2,-55.7,419.2,0
91,7.21,-37.33,343.76,0
92,7.23,-21.44,281.17,0
93,7.24,-17.79,236.82,0
94,7.25,0.17,143.21,0
95,7.27,15.71,124.48,0
96,7.28,-0.01,90.91,0
97,7.29,1.77,29.42,0
98,7.31,13.05,-4.67,0
99,7.32,20.27,-37.4,0
100,7.33,48.36,-121.96,0
101,7.35,61.54,-148.02,0
102,7.36,39.05,-117.55,0
103,7.37,58.52,-194.52,0
104,7.39,74.49,-192.27,0
105,7.4,61.27,-185.55,0
106,7.41,65.86,-224.52,0
107,7.43,66.64,-218.2,0
108,7.44,41.9,-225.44,0
109,7.45,41.42,-216.63,0
110,7.47,52.42,-239.71,0
111,7.48,44.31,-203.7,0
112,7.49,59.46,-216.79,0
113,7.51,54.66,-222.0,0
114,7.52,19.77,-196.84,0
115,7.53,31.44,-198.39,0
116,7.55,35.41,-191.45,0
117,7.56,15.86,-170.2,0
118,7.57,34.03,-165.86,0
119,7.59,39.96,-152.68,0
120,7.6,16.8,-111.49,0
121,7.61,9.72,-131.0,0
122,7.63,5.69,-121.18,0
123,7.64,0.37,-58.64,0
124,7.65,0.71,-99.72,0
125,7.67,2.07,-66.52,0
126,7.68,-8.29,-35.41,0
127,7.69,-3.44,-68.77,0
128,7.71,3.29,-20.04,0
129,7.72,-34.94,31.4,0
130,7.73,-6.99,5.29,0
131,7.75,-11.97,12.89,0
132,7.76,-34.26,59.43,0
133,7.77,-7.3,18.6,0
134,7.79,-3.26,28.21,0
135,7.8,-23.06,71.3,0
136,7.81,-20.53,41.74,0
137,7.83,-7.66,51.66,0
138,7.84,-35.06,130.38,0
139,7.85,-18.43,65.54,0
140,7.87,-4.6,51.92,0
141,7.88,-18.13,107.78,0
142,7.89,-18.8,64.76,0
143,7.91,10.24,65.37,0
144,7.92,-25.51,97.7,0
145,7.93,-9.5,73.83,0
146,7.95,6.29,67.76,0
147,7.96,-28.83,107.17,0
148,7.97,-28.35,88.23,0
149,7.99,4.43,69.41,0
150,8.0,-28.44,74.37,0
151,8.01,-29.48,42.08,0
152,8.03,-25.47,23.66,0
153,8.04,-33.23,110.95,0
154,8.05,-3.2,45.17,0
155,8.07,12.85,45.39,0
156,8.08,-6.72,75.57,0
157,8.09,4.72,44.43,0
158,8.11,13.54,44.05,1
159,8.12,-19.21,74.57,1
160,8.13,-12.49,39.88,1
161,8.15,5.25,62.92,1
162,8.16,-131.74,209.9,1
163,8.17,-338.15,229.88,1
164,8.19,-232.95,281.8,1
165,8.2,-198.82,261.94,1
166,8.21,26.38,24.01,1
167,8.23,255.08,90.38,1
168,8.24,47.34,181.46,1
169,8.25,-129.32,64.16,1
170,8.27,160.57,21.44,1
171,8.28,186.54,-11.64,1
172,8.29,103.17,-68.21,1
173,8.31,120.04,-107.89,1
174,8.32,330.42,-111.82,1
175,8.33,-53.83,-153.9,1
176,8.35,153.72,-174.69,1
177,8.36,-178.64,-164.91,1
178,8.37,224.39,-192.36,1
179,8.39,-30.44,-200.48,1
180,8.4,77.43,-179.3,1
181,8.41,86.85,-195.73,1
182,8.43,383.81,-195.71,1
183,8.44,-34.96,-165.84,1
184,8.45,94.77,-175.88,1
185,8.47,99.94,-176.17,1
186,8.48,341.72,-159.19,1
187,8.49,20.56,-124.78,1
188,8.51,-168.79,-139.99,1
189,8.52,105.54,-123.15,1
190,8.53,-350.59,-233.16,1
191,8.55,245.13,-482.88,1
192,8.56,-35.12,-270.07,1
193,8.57,-47.28,-255.98,1
194,8.59,-282.74,13.31,1
195,8.6,-515.09,156.96,1
196,8.61,-238.52,-55.21,1
197,8.63,-280.62,27.12,1
198,8.64,-341.47,93.98,1
199,8.65,-261.26,331.49,1
200,8.67,298.52,13.81,1
201,8.68,163.19,-292.84,1
202,8.69,55.55,-133.3,1
203,8.71,181.96,-121.29,1
204,8.72,-119.97,153.59,1
205,8.73,124.13,-20.87,1
206,8.75,120.38,63.52,1
207,8.76,-327.94,351.26,1
208,8.77,-110.79,510.98,1
209,8.79,213.06,-15.44,1
210,8.8,-110.54,93.18,1
211,8.81,-57.04,537.27,1
212,8.83,52.45,496.41,1
213,8.84,-239.18,312.78,1
214,8.85,-251.85,326.45,1
215,8.87,128.51,117.75,1
216,8.88,-105.19,150.94,1
217,8.89,42.59,-73.12,1
218,8.91,94.9,-123.51,0
219,8.92,190.26,-57.32,0
220,8.93,261.41,-130.13,0
221,8.95,362.96,-59.36,0
222,8.96,285.66,-7.58,0
223,8.97,200.2,29.62,0
224,8.99,173.77,40.31,0
225,9.0,11.32,88.02,0
226,9.01,-35.84,96.84,0
227,9.03,-53.01,94.35,0
228,9.04,-149.29,122.02,0
229,9.05,-119.05,119.57,0
230,9.07,-92.09,103.51,0
231,9.08,-130.33,121.82,0
232,9.09,-132.63,113.43,0
233,9.11,-92.64,128.53,0
234,9.12,-135.59,243.29,0
235,9.13,-100.83,269.88,0
236,9.15,-63.61,243.19,0
237,9.16,-87.4,231.88,0
238,9.17,-43.79,151.54,0
239,9.19,-5.85,128.32,0
240,9.2,-38.93,79.97,0
241,9.21,-32.24,11.16,0
242,9.23,14.65,-41.26,0
243,9.24,-13.18,-25.32,0
244,9.25,19.49,-90.05,0
245,9.27,35.13,-160.98,0
246,9.28,30.23,-170.33,0
247,9.29,28.58,-189.5,0
248,9.31,32.25,-217.62,0
249,9.32,13.0,-204.61,0
250,9.33,31.54,-220.27,0
251,9.35,59.07,-242.7,0
252,9.36,30.97,-208.33,0
253,9.37,45.73,-217.77,0
254,9.39,63.14,-230.02,0
255,9.4,32.93,-221.56,0
256,9.41,33.27,-213.3,0
257,9.43,63.49,-233.66,0
258,9.44,26.78,-184.63,0
259,9.45,44.59,-190.95,0
260,9.47,68.42,-195.26,0
261,9.48,16.21,-148.48,0
262,9.49,22.74,-171.59,0
263,9.51,44.46,-184.84,0
264,9.52,21.43,-131.43,0
265,9.53,16.61,-97.67,0
266,9.55,56.47,-140.44,0
267,9.56,13.44,-94.01,0
268,9.57,13.08,-58.68,0
269,9.59,34.61,-80.41,0
270,9.6,-16.55,-29.36,0
271,9.61,-3.21,-18.3,0
272,9.63,22.4,-30.95,0
273,9.64,-1.79,-6.1,0
274,9.65,-1.67,23.62,0
275,9.67,19.52,17.93,0
276,9.68,-43.02,41.79,0
277,9.69,-5.1,52.71,0
278,9.71,18.8,38.52,0
279,9.72,-20.4,58.5,0
280,9.73,-13.96,100.54,0
281,9.75,9.55,44.68,0
282,9.76,-26.93,69.61,0
283,9.77,-30.67,98.12,0
284,9.79,-1.13,82.49,0
285,9.8,-30.93,109.04,0
286,9.81,-36.25,117.05,0
287,9.83,-5.69,87.46,0
288,9.84,-47.28,122.54,0
289,9.85,-39.93,121.34,0
290,9.87,1.28,90.63,0
291,9.88,-35.37,103.13,0
292,9.89,-19.83,128.54,0
293,9.91,-0.25,78.39,0
294,9.92,-22.79,76.0,0
295,9.93,-14.63,122.12,0
296,9.95,24.4,86.15,0
297,9.96,-21.14,86.67,0
298,9.97,-7.35,92.52,0
299,9.99,5.85,59.75,0
300,10.0,-24.12,73.15,0
301,10.01,-13.28,80.95,0
302,10.03,3.6,48.7,0
303,10.04,-40.59,38.99,0
304,10.05,-28.6,84.19,0
305,10.07,5.47,44.45,0
306,10.08,-37.57,47.32,0
307,10.09,-10.9,127.65,0
308,10.11,17.87,161.42,1
309,10.12,-192.65,195.78,1
310,10.13,34.91,128.54,1
311,10.15,-313.02,49.07,1
312,10.16,52.25,148.02,1
313,10.17,-225.67,243.3,1
314,10.19,322.16,106.13,1
315,10.2,-248.01,70.37,1
316,10.21,-115.7,23.37,1
317,10.23,-110.39,-42.93,1
318,10.24,252.62,-83.21,1
319,10.25,-152.01,-98.25,1
320,10.27,247.92,-151.4,1
321,10.28,85.66,-168.38,1
322,10.29,250.42,-166.78,1
323,10.31,-55.95,-203.39,1
324,10.32,297.63,-205.93,1
325,10.33,279.25,-191.12,1
326,10.35,10.24,-214.28,1
327,10.36,-140.81,-208.39,1
328,10.37,-39.73,-183.28,1
329,10.39,189.0,-199.54,1
330,10.4,330.14,-185.66,1
331,10.41,-31.12,-178.02,1
332,10.43,-47.47,-249.58,1
333,10.44,196.56,-357.97,1
334,10.45,44.45,-639.68,1
335,10.47,64.69,-278.1,1
336,10.48,-143.12,-224.02,1
337,10.49,370.24,218.73,1
338,10.51,-343.16,-203.16,1
339,10.52,163.55,-197.73,1
340,10.53,131.63,-147.38,1
341,10.55,-420.75,268.97,1
342,10.56,-78.89,-21.18,1
343,10.57,281.55,184.4,1
344,10.59,96.96,-100.84,1
345,10.6,-105.05,407.67,1
346,10.61,-34.11,209.35,1
347,10.63,-252.92,48.5,1
348,10.64,-92.47,59.17,1
349,10.65,-347.95,106.19,1
350,10.67,-180.1,-304.88,1
351,10.68,-121.87,150.08,1
352,10.69,-94.25,335.76,1
353,10.71,-34.07,199.4,1
354,10.72,-119.13,328.39,1
355,10.73,-254.94,67.96,1
356,10.75,-266.1,465.52,1
357,10.76,-145.46,465.75,1
358,10.77,348.27,-100.36,1
359,10.79,303.88,322.0,1
360,10.8,-17.66,414.45,1
361,10.81,302.78,-27.8,1
362,10.83,22.81,315.84,1
363,10.84,113.33,-48.05,1
364,10.85,-314.6,378.84,1
365,10.87,195.98,66.91,1
366,10.88,83.46,370.48,1
367,10.89,-137.06,-34.98,1
368,10.91,49.61,-81.18,0
369,10.92,108.07,-133.46,0
370,10.93,173.26,-288.58,0
371,10.95,224.0,-387.39,0
372,10.96,139.76,-292.81,0
373,10.97,172.94,-218.05,0
374,10.99,84.49,-177.49,0
375,11.0,-49.89,-134.38,0
376,11.01,-42.19,-64.05,0
377,11.03,-69.04,-49.61,0
378,11.04,-152.61,-24.56,0
379,11.05,-154.56,25.9,0
380,11.07,-140.18,24.77,0
381,11.08,-168.03,35.05,0
382,11.09,-138.16,72.86,0
383,11.11,-83.79,59.47,0
384,11.12,-165.39,59.1,0
385,11.13,-101.77,87.21,0
386,11.15,-84.85,66.57,0
387,11.16,-92.12,58.85,0
388,11.17,-62.71,125.53,0
389,11.19,-40.64,197.37,0
390,11.2,-53.1,222.47,0
391,11.21,-6.61,278.2,0
392,11.23,16.13,199.97,0
393,11.24,12.68,155.87,0
394,11.25,23.25,178.79,0
395,11.27,61.28,92.64,0
396,11.28,35.28,32.82,0
397,11.29,47.86,30.99,0
398,11.31,67.27,-30.51,0
399,11.32,54.65,-96.41,0
400,11.33,73.75,-98.77,0
401,11.35,89.04,-147.28,0
402,11.36,43.06,-165.1,0
403,11.37,52.55,-147.68,0
404,11.39,86.29,-218.41,0
405,11.4,55.58,-209.27,0
406,11.41,72.2,-187.28,0
407,11.43,64.26,-212.55,0
408,11.44,32.35,-210.09,0
409,11.45,69.6,-202.41,0
410,11.47,74.48,-214.46,0
411,11.48,30.8,-194.38,0
412,11.49,40.65,-176.27,0
413,11.51,65.6,-175.14,0
414,11.52,13.26,-178.6,0
415,11.53,34.93,-139.23,0
416,11.55,42.08,-118.05,0
417,11.56,2.0,-115.71,0
418,11.57,20.32,-86.77,0
419,11.59,29.7,-89.05,0
420,11.6,9.67,-82.77,0
421,11.61,2.27,-56.04,0
422,11.63,18.55,-77.74,0
423,11.64,-18.01,-36.99,0
424,11.65,-0.12,-16.68,0
425,11.67,8.62,-6.19,0
426,11.68,-14.38,12.18,0
427,11.69,-0.67,43.59,0
428,11.71,-4.69,30.96,0
429,11.72,-23.29,5.33,0
430,11.73,-0.52,61.65,0
431,11.75,4.3,64.92,0
432,11.76,-28.92,22.26,0
433,11.77,-22.14,88.31,0
434,11.79,-12.86,61.07,0
435,11.8,-40.44,78.27,0
436,11.81,-27.62,91.69,0
437,11.83,-8.1,88.71,0
438,11.84,-41.06,73.79,0
439,11.85,-41.68,87.9,0
440,11.87,-19.34,114.93,0
441,11.88,-40.27,83.95,0
442,11.89,-18.85,80.98,0
443,11.91,-13.43,72.23,0
444,11.92,-30.59,71.54,0
445,11.93,-38.03,90.12,0
446,11.95,-21.94,90.0,0
447,11.96,-23.55,57.39,0
448,11.97,-20.69,100.22,0
449,11.99,-12.31,76.32,0
450,12.0,-41.4,64.16,0
451,12.01,-18.74,107.34,0
452,12.03,5.51,74.87,0
453,12.04,-25.08,65.56,0
454,12.05,-16.59,92.14,0
455,12.07,8.86,75.74,0
456,12.08,-17.73,62.14,0
457,12.09,13.78,122.04,0
458,12.11,45.42,215.38,1
459,12.12,150.52,212.1,1
460,12.13,51.84,418.93,1
461,12.15,-0.33,259.45,1
462,12.16,-106.4,201.41,1
463,12.17,-394.93,131.54,1
464,12.19,-310.01,62.58,1
465,12.2,-245.25,-13.02,1
466,12.21,-202.08,-42.67,1
467,12.23,-31.25,-89.74,1
468,12.24,47.61,-138.41,1
469,12.25,232.21,-148.36,1
470,12.27,60.26,-175.73,1
471,12.28,105.2,-206.81,1
472,12.29,507.89,-202.42,1
473,12.31,-148.29,-212.41,1
474,12.32,627.73,-230.37,1
475,12.33,149.5,-214.09,1
476,12.35,58.86,-212.98,1
477,12.36,355.56,-221.6,1
478,12.37,-213.98,-225.45,1
479,12.39,-195.08,-218.82,1
480,12.4,178.17,-231.02,1
481,12.41,-208.01,-445.95,1
482,12.43,341.82,-553.68,1
483,12.44,-338.12,-154.65,1
484,12.45,253.66,-182.37,1
485,12.47,-62.52,-324.43,1
486,12.48,-158.1,-60.34,1
487,12.49,-5.21,-542.34,1
488,12.51,125.43,-210.07,1
489,12.52,309.62,72.79,1
490,12.53,-31.42,51.07,1
491,12.55,-60.13,222.84,1
492,12.56,2.13,444.55,1
493,12.57,-136.93,62.27,1
494,12.59,-504.54,517.43,1
495,12.6,-303.11,479.46,1
496,12.61,46.09,313.72,1
497,12.63,207.98,274.98,1
498,12.64,125.95,145.84,1
499,12.65,-99.81,-152.27,1
500,12.67,-27.22,125.36,1
501,12.68,-348.17,248.44,1
502,12.69,297.35,-142.74,1
503,12.71,-496.07,104.98,1
504,12.72,-197.02,-79.13,1
505,12.73,-152.16,161.87,1
506,12.75,99.95,609.05,1
507,12.76,-132.36,-1.91,1
508,12.77,19.44,-149.31,1
509,12.79,-130.95,-19.4,1
510,12.8,237.35,172.92,1
511,12.81,233.79,87.2,1
512,12.83,34.43,-12.41,1
513,12.84,143.64,43.86,1
514,12.85,154.74,-87.14,1
515,12.87,158.24,-130.24,1
516,12.88,193.4,-151.34,1
517,12.89,226.24,-73.53,1
518,12.91,258.75,-21.53,0
519,12.92,207.56,-0.22,0
520,12.93,111.06,41.94,0
521,12.95,63.91,76.04,0
522,12.96,-13.42,76.43,0
523,12.97,-101.41,100.85,0
524,12.99,-116.71,120.11,0
525,13.0,-132.67,105.82,0
526,13.01,-153.14,116.51,0
527,13.03,-144.6,127.01,0
528,13.04,-134.82,102.41,0
529,13.05,-132.82,105.43,0
530,13.07,-117.87,107.91,0
531,13.08,-116.06,79.15,0
532,13.09,-108.68,105.0,0
533,13.11,-89.74,224.45,0
534,13.12,-93.09,276.06,0
535,13.13,-81.12,221.55,0
536,13.15,-38.48,227.7,0
537,13.16,-33.66,179.67,0
538,13.17,-36.62,114.96,0
539,13.19,-45.75,85.63,0
540,13.2,-35.6,26.43,0
541,13.21,-15.24,-58.3,0
542,13.23,14.24,-55.67,0
543,13.24,31.76,-133.91,0
544,13.25,29.28,-157.48,0
545,13.27,46.35,-168.51,0
546,13.28,48.89,-191.17,0
547,13.29,35.42,-240.96,0
548,13.31,49.6,-225.97,0
549,13.32,34.4,-246.94,0
550,13.33,37.81,-231.33,0
551,13.35,54.52,-241.25,0
552,13.36,54.81,-272.09,0
553,13.37,65.78,-253.31,0
554,13.39,62.84,-221.04,0
555,13.4,52.24,-229.36,0
556,13.41,18.49,-220.13,0
557,13.43,39.91,-202.59,0
558,13.44,22.79,-207.67,0
559,13.45,27.92,-182.57,0
560,13.47,39.54,-140.23,0
561,13.48,39.87,-147.12,0
562,13.49,32.45,-128.39,0
563,13.51,39.33,-88.96,0
564,13.52,32.29,-94.14,0
565,13.53,23.88,-97.67,0
566,13.55,19.19,-55.43,0
567,13.56,27.16,-39.82,0
568,13.57,12.16,-23.41,0
569,13.59,12.36,30.35,0
570,13.6,-3.91,15.43,0
571,13.61,-10.64,22.06,0
572,13.63,2.3,66.2,0
573,13.64,8.73,46.1,0
574,13.65,-17.82,38.04,0
575,13.67,13.27,50.52,0
576,13.68,-2.88,68.13,0
577,13.69,-1.26,46.77,0
578,13.71,-23.38,105.9,0
579,13.72,-15.55,99.94,0
580,13.73,-25.29,86.59,0
581,13.75,-7.68,106.72,0
582,13.76,-7.41,104.24,0
583,13.77,-28.46,88.03,0
584,13.79,-8.52,134.91,0
585,13.8,-6.08,104.83,0
586,13.81,-18.31,94.0,0
587,13.83,-3.67,128.04,0
588,13.84,2.64,88.49,0
589,13.85,-25.56,86.21,0
590,13.87,-25.88,102.89,0
591,13.88,-7.81,92.4,0
592,13.89,-23.39,71.37,0
593,13.91,-22.7,94.0,0
594,13.92,4.69,45.85,0
595,13.93,-33.72,56.79,0
596,13.95,-20.31,99.67,0
597,13.96,-9.22,61.1,0
598,13.97,7.01,42.48,0
599,13.99,-11.3,68.69,0
600,14.0,13.07,57.71,0
601,14.01,-14.15,39.67,0
602,14.03,-18.7,44.18,0
603,14.04,-6.56,16.37,0
604,14.05,-19.23,21.91,0
605,14.07,-6.05,47.92,0
606,14.08,19.33,8.45,0
607,14.09,-30.92,-5.93,0
608,14.11,-5.85,36.5,1
609,14.12,19.09,29.99,1
610,14.13,-15.03,170.15,1
611,14.15,-47.7,296.52,1
612,14.16,137.04,286.2,1
613,14.17,196.7,242.01,1
614,14.19,-434.23,179.29,1
615,14.2,-198.2,86.74,1
616,14.21,-319.92,21.16,1
617,14.23,-138.82,-10.74,1
618,14.24,-126.22,-79.39,1
619,14.25,43.4,-118.91,1
620,14.27,-91.96,-129.32,1
621,14.28,11.51,-175.98,1
622,14.29,12.53,-196.63,1
623,14.31,609.35,-189.41,1
624,14.32,117.26,-219.88,1
625,14.33,473.68,-225.62,1
626,14.35,308.2,-206.23,1
627,14.36,397.42,-224.8,1
628,14.37,-149.26,-221.22,1
629,14.39,29.02,-192.01,1
630,14.4,-61.66,-201.6,1
631,14.41,353.12,-193.26,1
632,14.43,-32.2,-157.91,1
633,14.44,267.9,-219.07,1
634,14.45,-448.82,-401.3,1
635,14.47,-162.73,-323.09,1
636,14.48,-55.37,-137.23,1
637,14.49,110.19,-172.87,1
638,14.51,122.17,-36.57,1
639,14.52,-0.98,-412.67,1
640,14.53,-119.48,-353.97,1
641,14.55,-102.15,-99.85,1
642,14.56,-401.76,-301.95,1
643,14.57,-78.91,41.32,1
644,14.59,-434.93,13.44,1
645,14.6,-42.11,313.27,1
646,14.61,-291.75,283.6,1
647,14.63,-29.75,410.55,1
648,14.64,228.74,221.24,1
649,14.65,256.89,485.88,1
650,14.67,-99.03,141.34,1
651,14.68,358.22,256.84,1
652,14.69,-110.51,169.51,1
653,14.71,-28.17,221.94,1
654,14.72,-110.01,191.25,1
655,14.73,178.99,137.12,1
656,14.75,-200.17,-2.8,1
657,14.76,-125.43,328.38,1
658,14.77,174.95,389.45,1
659,14.79,-149.07,-111.61,1
660,14.8,-168.78,319.84,1
661,14.81,161.09,256.49,1
662,14.83,-39.21,51.09,1
663,14.84,-100.35,110.85,1
664,14.85,65.14,239.56,1
665,14.87,-199.92,70.48,1
666,14.88,-119.56,-81.57,1
667,14.89,27.67,116.73,1
668,14.91,79.82,0.26,0
669,14.92,42.75,-122.45,0
670,14.93,106.6,-166.56,0
671,14.95,134.03,-233.31,0
672,14.96,172.19,-318.5,0
673,14.97,100.45,-234.1,0
674,14.99,88.7,-162.93,0
675,15.0,124.09,-112.4,0
676,15.01,52.62,-82.2,0
677,15.03,30.17,-15.76,0
678,15.04,61.32,4.85,0
679,15.05,9.1,19.39,0
680,15.07,-19.01,62.8,0
681,15.08,-1.56,70.45,0
682,15.09,-42.81,67.86,0
683,15.11,-24.05,100.36,0
684,15.12,-0.47,95.02,0
685,15.13,-45.56,82.66,0
686,15.15,-46.96,104.33,0
687,15.16,-14.15,93.22,0
688,15.17,-57.86,88.18,0
689,15.19,-43.27,174.29,0
690,15.2,-18.22,235.41,0
691,15.21,-39.59,237.79,0
692,15.23,-33.42,250.96,0
693,15.24,2.7,178.11,0
694,15.25,-33.51,133.24,0
695,15.27,-14.04,131.64,0
696,15.28,13.26,66.25,0
697,15.29,-24.44,-10.4,0
698,15.31,-4.55,0.72,0
699,15.32,37.84,-33.11,0
700,15.33,-28.4,-84.98,0
701,15.35,-18.91,-139.15,0
702,15.36,32.01,-128.23,0
703,15.37,-0.98,-149.98,0
704,15.39,4.15,-183.05,0
705,15.4,21.89,-204.41,0
706,15.41,-20.76,-201.97,0
707,15.43,5.05,-209.95,0
708,15.44,14.99,-201.31,0
709,15.45,7.0,-214.73,0
710,15.47,16.77,-203.05,0
711,15.48,38.43,-197.77,0
712,15.49,-0.51,-196.55,0
713,15.51,9.21,-188.18,0
714,15.52,38.73,-166.17,0
715,15.53,-0.9,-157.36,0
716,15.55,-4.89,-173.13,0
717,15.56,29.23,-136.54,0
718,15.57,-14.59,-143.7,0
719,15.59,-3.58,-102.87,0
720,15.6,9.44,-94.72,0
721,15.61,-18.55,-71.21,0
722,15.63,-3.26,-73.18,0
723,15.64,20.69,-30.76,0
724,15.65,-11.01,-39.59,0
725,15.67,-4.26,-40.0,0
726,15.68,7.5,4.19,0
727,15.69,-18.52,-11.32,0
728,15.71,-11.48,9.57,0
729,15.72,29.86,16.29,0
730,15.73,-25.87,23.82,0
731,15.75,-17.75,48.67,0
732,15.76,24.86,73.19,0
733,15.77,-17.48,66.04,0
734,15.79,-1.7,59.65,0
735,15.8,29.59,88.61,0
736,15.81,-9.71,86.29,0
737,15.83,-11.44,70.56,0
738,15.84,33.81,83.8,0
739,15.85,-10.66,77.68,0
740,15.87,-13.06,89.02,0
741,15.88,32.93,113.69,0
742,15.89,-20.37,96.5,0
743,15.91,-12.0,73.52,0
744,15.92,7.43,120.22,0
745,15.93,-16.19,86.41,0
746,15.95,-15.69,64.75,0
747,15.96,23.54,86.67,0
748,15.97,-12.75,66.77,0
749,15.99,-5.0,66.59,0
750,16.0,5.38,91.4,0
751,16.01,-30.6,89.15,0
752,16.03,-1.02,66.85,0
753,16.04,15.1,77.41,0
754,16.05,-16.72,42.34,0
755,16.07,3.85,35.11,0
756,16.08,20.51,52.36,0
757,16.09,-27.55,34.46,0
758,16.11,1.62,5.23,1
759,16.12,4.78,64.06,1
760,16.13,16.48,90.48,1
761,16.15,128.37,271.29,1
762,16.16,41.28,464.0,1
763,16.17,235.26,263.73,1
764,16.19,-30.13,243.31,1
765,16.2,-127.59,163.68,1
766,16.21,-450.65,76.66,1
767,16.23,-132.26,20.39,1
768,16.24,138.08,-14.97,1
769,16.25,-129.87,-85.28,1
770,16.27,-188.34,-114.83,1
771,16.28,-270.74,-129.08,1
772,16.29,20.87,-178.61,1
773,16.31,319.11,-191.32,1
774,16.32,19.11,-186.72,1
775,16.33,-204.18,-219.33,1
776,16.35,157.62,-218.41,1
777,16.36,-150.18,-202.59,1
778,16.37,-94.98,-223.32,1
779,16.39,199.03,-213.17,1
780,16.4,472.29,-188.08,1
781,16.41,-149.0,-221.33,1
782,16.42,-53.82,-207.15,1
783,16.44,-64.71,-153.52,1
784,16.45,73.77,-393.48,1
785,16.47,84.43,-530.38,1
786,16.48,-51.8,-149.72,1
787,16.49,183.95,28.28,1
788,16.51,-46.3,-2.79,1
789,16.52,11.51,-156.63,1
790,16.53,-81.07,-281.04,1
791,16.55,154.41,-257.56,1
792,16.56,264.87,-33.5,1
793,16.57,242.51,74.45,1
794,16.59,85.52,271.56,1
795,16.6,-166.0,-9.44,1
796,16.61,96.71,175.86,1
797,16.63,229.99,-52.48,1
798,16.64,308.04,-18.97,1
799,16.65,-69.05,511.51,1
800,16.67,-56.01,85.17,1
801,16.68,-172.62,112.58,1
802,16.69,-230.78,161.18,1
803,16.71,-101.73,441.89,1
804,16.72,18.94,206.57,1
805,16.73,-3.31,156.63,1
806,16.75,421.52,-27.71,1
807,16.76,45.89,66.23,1
808,16.77,117.72,-104.66,1
809,16.79,-252.22,-10.09,1
810,16.8,-347.43,457.43,1
811,16.81,-222.75,483.37,1
812,16.83,253.08,241.12,1
813,16.84,-363.7,141.17,1
814,16.85,248.34,167.12,1
815,16.87,-9.4,-267.38,1
816,16.88,157.97,341.48,1
817,16.89,103.45,-140.61,1
818,16.91,-263.54,-183.51,0
819,16.92,142.31,-275.4,0
820,16.93,-460.66,-128.36,0
821,16.95,162.46,-276.77,0
822,16.96,-258.76,-148.91,0
823,16.97,-37.83,52.81,0
824,16.99,-176.19,-98.82,0
825,17.0,-35.7,-88.22,0
826,17.01,-75.68,-145.77,0
827,17.03,2.98,-68.5,0
828,17.04,76.28,-4.26,0
829,17.05,57.86,19.02,0
830,17.06,43.61,47.42,0
831,17.08,24.02,101.43,0
832,17.09,-71.29,97.07,0
833,17.11,-63.97,109.27,0
834,17.12,-70.15,145.64,0
835,17.13,-96.75,127.58,0
836,17.15,-81.81,127.1,0
837,17.16,-56.73,151.28,0
838,17.17,-74.4,124.96,0
839,17.19,-58.45,115.77,0
840,17.2,-37.11,133.46,0
841,17.21,-44.5,141.07,0
842,17.23,-26.01,216.27,0
843,17.24,11.52,251.02,0
844,17.25,-35.77,230.12,0
845,17.27,12.76,188.64,0
846,17.28,25.48,172.49,0
847,17.29,14.08,104.74,0
848,17.31,37.24,80.48,0
849,17.32,53.1,57.0,0
850,17.33,28.19,-14.43,0
851,17.35,42.23,-39.2,0
852,17.36,71.02,-58.24,0
853,17.37,37.99,-112.23,0
854,17.39,75.15,-135.74,0
855,17.4,66.72,-136.41,0
856,17.41,42.28,-172.28,0
857,17.43,88.55,-192.21,0
858,17.44,93.22,-187.55,0
859,17.45,53.96,-206.88,0
860,17.47,63.14,-202.92,0
861,17.48,81.63,-196.08,0
862,17.49,49.59,-212.18,0
863,17.51,49.28,-231.66,0
864,17.52,82.78,-204.48,0
865,17.53,32.29,-206.76,0
866,17.55,43.09,-191.62,0
867,17.56,61.92,-179.52,0
868,17.57,10.49,-189.03,0
869,17.59,39.35,-188.84,0
870,17.6,48.15,-122.87,0
871,17.61,0.03,-153.6,0
872,17.63,20.7,-136.7,0
873,17.64,34.24,-82.46,0
874,17.65,-20.71,-71.11,0
875,17.67,4.88,-82.89,0
876,17.68,20.04,-68.53,0
877,17.69,-19.01,-57.7,0
878,17.7,-2.46,-38.43,0
879,17.72,0.17,-1.6,0
880,17.73,-36.87,-19.11,0
881,17.75,-21.47,-10.23,0
882,17.76,8.55,30.75,0
883,17.77,-36.0,23.82,0
884,17.79,-16.87,26.09,0
885,17.8,-3.96,83.7,0
886,17.81,-30.53,68.61,0
887,17.83,-20.66,48.75,0
888,17.84,-5.15,79.78,0
889,17.85,-48.34,91.23,0
890,17.87,-15.15,79.96,0
891,17.88,-6.44,91.49,0
892,17.89,-26.36,104.79,0
893,17.91,-12.12,57.22,0
894,17.92,-10.66,92.58,0
895,17.93,-30.15,61.97,0
896,17.95,-24.4,44.33,0
897,17.96,-6.36,93.47,0
898,17.97,-29.31,85.12,0
899,17.99,-29.58,80.07,0
900,18.0,3.02,103.77,0
901,18.01,-56.05,99.99,0
902,18.03,-19.09,76.26,0
903,18.04,-32.31,71.96,0
904,18.05,-23.73,99.59,0
905,18.07,-18.62,80.83,0
906,18.08,-8.23,66.39,0
907,18.09,-31.19,40.09,0
908,18.11,-22.22,63.33,1
909,18.12,12.92,76.32,1
910,18.13,-13.65,48.91,1
911,18.15,-13.72,37.72,1
912,18.16,1.43,53.07,1
913,18.17,-15.33,58.61,1
914,18.19,-7.25,64.46,1
915,18.2,-19.09,141.44,1
916,18.21,-108.89,262.59,1
917,18.23,165.66,406.8,1
918,18.24,253.0,280.21,1
919,18.25,-150.17,225.19,1
920,18.27,53.95,117.82,1
921,18.28,-402.68,77.56,1
922,18.29,-105.8,6.25,1
923,18.31,-114.47,-53.44,1
924,18.32,410.51,-78.6,1
925,18.33,-72.0,-120.5,1
926,18.34,-151.55,-160.86,1
927,18.36,-241.6,-166.29,1
928,18.37,-164.37,-189.55,1
929,18.39,-37.54,-214.67,1
930,18.4,-93.81,-204.34,1
931,18.41,162.38,-213.95,1
932,18.43,186.66,-226.0,1
933,18.44,414.64,-205.57,1
934,18.45,250.0,-204.41,1
935,18.47,134.59,-208.97,1
936,18.48,41.89,-182.09,1
937,18.49,68.51,-199.8,1
938,18.51,290.61,-204.81,1
939,18.52,-43.98,-188.93,1
940,18.53,48.04,-271.96,1
941,18.55,-34.6,-393.18,1
942,18.56,-40.1,-396.71,1
943,18.57,-68.67,-136.64,1
944,18.59,-111.65,-422.63,1
945,18.6,106.46,-444.1,1
946,18.61,-21.67,-214.2,1
947,18.63,102.52,154.89,1
948,18.64,-277.58,203.76,1
949,18.65,-161.15,285.52,1
950,18.67,81.83,190.44,1
951,18.68,214.41,260.29,1
952,18.69,-74.31,380.59,1
953,18.71,181.78,-52.16,1
954,18.72,107.65,390.47,1
955,18.73,-61.33,85.62,1
956,18.75,164.6,362.86,1
957,18.76,179.28,-52.2,1
958,18.77,-92.45,518.63,1
959,18.79,-4.4,-156.45,1
960,18.8,-142.65,250.26,1
961,18.81,-4.79,373.63,1
962,18.83,-200.09,298.33,1
963,18.84,60.53,264.28,1
964,18.85,-197.73,84.41,1
965,18.87,9.77,76.59,1
966,18.88,-243.16,415.67,1
967,18.89,-101.96,-103.14,1
968,18.91,-145.36,-83.34,0
969,18.92,270.94,-299.54,0
970,18.93,178.71,-46.09,0
971,18.95,-143.95,78.27,0
972,18.96,-97.67,-46.43,0
973,18.97,-143.2,-167.44,0
974,18.98,-112.35,-279.48,0
975,19.0,-87.3,-158.5,0
976,19.01,-54.87,-110.04,0
977,19.025,-28.93,-68.46,0
978,19.04,-9.05,-14.63,0
979,19.05,-46.08,33.14,0
980,19.07,-12.54,43.54,0
981,19.08,-13.47,82.17,0
982,19.09,-30.68,106.31,0
983,19.11,-42.2,99.63,0
984,19.12,-33.28,119.77,0
985,19.13,-23.28,133.7,0
986,19.15,-24.08,115.21,0
987,19.16,-2.68,124.08,0
988,19.17,-6.63,129.03,0
989,19.19,12.88,111.77,0
990,19.2,23.38,179.41,0
991,19.21,12.13,276.23,0
992,19.23,11.53,267.18,0
993,19.24,44.74,229.65,0
994,19.25,24.3,213.1,0
995,19.27,30.02,166.52,0
996,19.28,46.19,110.76,0
997,19.29,33.4,88.42,0
998,19.31,31.25,33.84,0
999,19.32,56.27,-33.43,0
1000,19.33,47.17,-28.18,0
1001,19.35,31.29,-90.86,0
1002,19.36,39.97,-131.35,0
1003,19.37,48.48,-128.91,0
1004,19.39,40.88,-160.24,0
1005,19.4,41.14,-207.52,0
1006,19.41,28.95,-202.59,0
1007,19.43,9.3,-216.45,0
1008,19.44,33.05,-220.92,0
1009,19.45,33.25,-212.66,0
1010,19.47,29.57,-229.44,0
1011,19.48,36.46,-230.41,0
1012,19.49,36.52,-197.13,0
1013,19.51,24.33,-215.59,0
1014,19.52,27.59,-217.58,0
1015,19.53,27.51,-193.13,0
1016,19.55,13.12,-183.55,0
1017,19.56,12.71,-179.5,0
1018,19.57,24.29,-155.96,0
1019,19.59,14.28,-148.1,0
1020,19.6,16.33,-151.41,0
1021,19.61,9.08,-105.29,0
1022,19.62,-1.4,-91.39,0
1023,19.64,11.4,-102.97,0
1024,19.65,2.33,-67.7,0
1025,19.67,-2.7,-35.48,0
1026,19.68,5.62,-44.02,0
1027,19.69,2.53,-11.14,0
1028,19.71,-18.55,-3.05,0
1029,19.72,-6.83,-7.58,0
1030,19.73,-10.82,10.05,0
1031,19.75,-17.82,34.07,0
1032,19.76,8.87,19.9,0
1033,19.77,-20.3,70.62,0
1034,19.79,-26.71,53.67,0
1035,19.8,-15.67,58.84,0
1036,19.81,4.59,85.55,0
1037,19.83,-31.01,76.2,0
1038,19.84,-23.38,62.19,0
1039,19.85,-18.29,101.51,0
1040,19.87,-17.3,89.86,0
1041,19.88,-14.02,73.46,0
1042,19.89,-10.41,93.61,0
1043,19.91,-28.18,99.87,0
1044,19.92,-8.08,75.25,0
1045,19.93,-3.04,105.05,0
1046,19.95,-24.66,97.73,0
1047,19.96,-11.15,72.65,0
1048,19.97,-3.41,91.79,0
1049,19.99,-25.65,64.12,0
1050,20.0,-5.57,72.93,0
1051,20.01,-17.56,114.07,0
1052,20.03,-33.58,92.97,0
1053,20.04,-23.36,46.61,0
1054,20.05,26.43,79.71,0
1055,20.07,-11.49,86.29,0
1056,20.08,7.13,47.72,0
1057,20.09,4.98,78.32,0
1058,20.11,-20.03,51.29,1
1059,20.12,5.37,31.41,1
1060,20.13,-2.3,60.52,1
1061,20.15,-19.71,32.84,1
1062,20.16,0.47,37.37,1
1063,20.17,19.89,94.48,1
1064,20.19,-70.67,137.01,1
1065,20.2,23.46,284.92,1
1066,20.21,-124.67,396.05,1
1067,20.23,331.96,240.69,1
1068,20.24,-284.26,185.43,1
1069,20.25,-34.2,122.87,1
1070,20.26,-182.66,39.16,1
1071,20.28,-174.23,-17.34,1
1072,20.29,353.22,-42.3,1
1073,20.3,-302.11,-105.33,1
1074,20.32,261.41,-138.09,1
1075,20.33,-364.98,-144.03,1
1076,20.35,-73.68,-186.39,1
1077,20.36,139.43,-201.96,1
1078,20.37,-7.36,-190.6,1
1079,20.39,-76.48,-218.3,1
1080,20.4,389.63,-221.34,1
1081,20.41,70.46,-198.44,1
1082,20.43,142.31,-217.09,1
1083,20.44,-79.97,-210.84,1
1084,20.45,200.37,-184.85,1
1085,20.47,213.66,-302.95,1
1086,20.48,260.12,-414.3,1
1087,20.49,60.22,-405.87,1
1088,20.51,330.11,-568.63,1
1089,20.52,75.9,128.33,1
1090,20.53,143.06,-333.44,1
1091,20.55,8.87,-68.29,1
1092,20.56,-23.28,37.86,1
1093,20.57,174.12,-61.74,1
1094,20.59,-175.59,51.0,1
1095,20.6,28.56,-185.5,1
1096,20.61,7.05,237.54,1
1097,20.63,-161.91,-232.62,1
1098,20.64,74.14,-66.64,1
1099,20.65,-361.29,65.69,1
1100,20.67,103.39,-39.54,1
1101,20.68,-260.48,166.8,1
1102,20.69,-397.36,394.86,1
1103,20.71,-371.25,247.42,1
1104,20.72,-136.76,428.28,1
1105,20.73,-34.24,242.57,1
1106,20.75,-294.96,7.77,1
1107,20.76,-9.2,65.05,1
1108,20.77,99.0,159.04,1
1109,20.79,123.86,226.51,1
1110,20.8,-36.32,346.59,1
1111,20.81,-386.23,168.55,1
1112,20.83,-320.32,317.73,1
1113,20.84,90.99,106.84,1
1114,20.85,284.42,59.89,1
1115,20.87,-353.7,154.89,1
1116,20.88,-131.55,-295.45,1
1117,20.89,56.7,52.8,1
1118,20.9,-62.43,-89.14,1
1119,20.92,456.07,22.02,0
1120,20.93,-84.58,260.88,0
1121,20.94,489.58,450.81,0
1122,20.96,-167.25,241.56,0
1123,20.97,96.82,8.18,0
1124,20.99,315.08,-118.98,0
1125,21.0,59.62,54.41,0
1126,21.01,64.89,-152.17,0
1127,21.03,10.23,-119.96,0
1128,21.04,69.57,-212.54,0
1129,21.05,138.42,-102.1,0
1130,21.07,180.13,-101.92,0
1131,21.08,122.93,-72.68,0
1132,21.09,81.96,-23.58,0
1133,21.11,31.0,-12.8,0
1134,21.12,3.26,-9.51,0
1135,21.13,12.56,30.21,0
1136,21.15,-55.3,27.31,0
1137,21.16,-33.41,21.21,0
1138,21.17,-33.93,50.85,0
1139,21.19,-65.67,43.82,0
1140,21.2,-47.64,74.37,0
1141,21.21,-27.9,177.49,0
1142,21.23,-69.41,181.43,0
1143,21.24,-39.41,211.87,0
1144,21.25,-29.39,176.0,0
1145,21.27,-60.37,133.33,0
1146,21.28,-50.46,124.08,0
1147,21.29,-4.28,96.07,0
1148,21.31,-46.62,76.0,0
1149,21.32,-22.24,-15.05,0
1150,21.33,13.58,-27.02,0
1151,21.35,-20.94,-78.26,0
1152,21.36,-20.54,-100.97,0
1153,21.37,-3.06,-137.59,0
1154,21.39,-32.68,-146.18,0
1155,21.4,-6.53,-157.59,0
1156,21.41,9.52,-173.68,0
1157,21.43,-26.25,-160.2,0
1158,21.44,0.97,-175.01,0
1159,21.45,27.23,-197.7,0
1160,21.47,-9.77,-214.32,0
1161,21.48,-7.54,-215.27,0
1162,21.49,19.65,-201.68,0
1163,21.51,-4.41,-174.19,0
1164,21.52,10.92,-173.26,0
1165,21.53,33.87,-147.71,0
1166,21.54,6.33,-127.69,0
1167,21.56,18.92,-116.18,0
1168,21.57,42.08,-100.74,0
1169,21.58,1.93,-85.64,0
1170,21.6,1.14,-93.05,0
1171,21.61,20.96,-78.2,0
1172,21.625,-11.96,-59.41,0
1173,21.64,-0.29,-51.67,0
1174,21.65,26.08,-40.84,0
1175,21.67,-20.11,-51.9,0
1176,21.68,8.14,-20.87,0
1177,21.69,34.89,-35.53,0
1178,21.71,-23.64,-10.2,0
1179,21.72,-9.69,2.25,0
1180,21.73,19.05,14.3,0
1181,21.75,-15.71,30.26,0
1182,21.76,7.93,27.81,0
1183,21.77,28.41,10.46,0
1184,21.79,-20.97,49.12,0
1185,21.8,-5.05,39.07,0
1186,21.81,24.34,36.43,0
1187,21.83,-31.46,45.99,0
1188,21.84,-2.75,79.55,0
1189,21.85,13.63,50.77,0
1190,21.87,-21.47,84.25,0
1191,21.88,-18.91,113.87,0
1192,21.89,18.19,75.34,0
1193,21.91,-4.27,118.92,0
1194,21.92,2.6,95.48,0
1195,21.93,17.71,68.99,0
1196,21.95,-18.37,89.25,0
1197,21.96,-4.98,90.98,0
1198,21.97,21.72,70.09,0
1199,21.99,-28.27,75.66,0
1200,22.0,-14.06,61.15,0
1201,22.01,7.27,50.75,0
1202,22.03,-33.29,84.22,0
1203,22.04,-26.02,83.96,0
1204,22.05,16.34,48.29,0
1205,22.07,-20.87,64.73,0
1206,22.08,2.85,42.34,0
1207,22.09,19.78,26.55,0
1208,22.11,-5.36,66.25,1
1209,22.12,-7.39,30.51,1
1210,22.13,12.54,26.5,1
1211,22.15,-18.35,76.04,1
1212,22.16,0.49,197.92,1
1213,22.17,167.99,379.89,1
1214,22.18,-35.37,339.37,1
1215,22.2,141.2,235.47,1
1216,22.21,-84.94,172.4,1
1217,22.22,-193.31,114.33,1
1218,22.24,-141.69,32.94,1
1219,22.25,-151.91,-11.83,1
1220,22.26,-270.62,-43.66,1
1221,22.28,60.5,-104.67,1
1222,22.29,-176.7,-126.8,1
1223,22.31,-147.78,-138.71,1
1224,22.32,-42.83,-181.41,1
1225,22.33,22.13,-186.87,1
1226,22.35,144.74,-183.8,1
1227,22.36,-69.67,-212.23,1
1228,22.37,615.08,-205.82,1
1229,22.39,329.54,-188.47,1
1230,22.4,-107.13,-209.08,1
1231,22.41,158.52,-196.13,1
1232,22.43,205.33,-179.16,1
1233,22.44,67.09,-305.52,1
1234,22.45,72.34,-293.35,1
1235,22.47,-33.32,-156.38,1
1236,22.48,23.05,-458.93,1
1237,22.49,342.09,-381.92,1
1238,22.51,-34.77,-466.17,1
1239,22.52,69.92,-240.42,1
1240,22.53,-35.11,-335.05,1
1241,22.55,-172.47,-69.37,1
1242,22.56,74.34,109.17,1
1243,22.57,132.61,78.15,1
1244,22.59,-285.81,-85.32,1
1245,22.6,-169.4,4.96,1
1246,22.61,-111.84,5.66,1
1247,22.63,-183.62,47.26,1
1248,22.64,-74.62,457.32,1
1249,22.65,8.91,137.13,1
1250,22.67,-145.34,254.09,1
1251,22.68,-57.61,453.15,1
1252,22.69,87.3,420.77,1
1253,22.71,-235.46,249.59,1
1254,22.72,124.17,146.99,1
1255,22.73,-243.44,463.76,1
1256,22.75,-13.49,163.77,1
1257,22.76,-2.7,243.14,1
1258,22.77,208.29,152.15,1
1259,22.79,-81.16,424.11,1
1260,22.8,-166.72,535.52,1
1261,22.81,-58.52,299.81,1
1262,22.82,-50.28,140.24,1
1263,22.84,242.84,-61.34,1
1264,22.85,4.77,-128.61,1
1265,22.86,-201.72,347.83,1
1266,22.88,252.88,13.04,1
1267,22.89,229.59,-152.66,1
1268,22.9,11.06,-84.93,1
1269,22.92,107.91,-175.75,0
1270,22.93,-35.37,50.91,0
1271,22.95,-86.47,-33.94,0
1272,22.96,-65.99,-113.9,0
1273,22.97,58.35,-108.67,0
1274,22.99,-17.17,-100.1,0
1275,23.0,44.49,-209.71,0
1276,23.01,43.99,-337.91,0
1277,23.03,19.07,-265.31,0
1278,23.04,59.84,-243.11,0
1279,23.05,92.5,-187.74,0
1280,23.07,45.04,-118.94,0
1281,23.08,56.13,-99.57,0
1282,23.09,43.6,-66.74,0
1283,23.11,-29.53,-13.01,0
1284,23.12,-25.08,-10.46,0
1285,23.13,-7.21,9.21,0
1286,23.15,-66.87,49.47,0
1287,23.16,-51.38,58.63,0
1288,23.17,-38.29,123.72,0
1289,23.19,-72.44,211.61,0
1290,23.2,-51.05,232.11,0
1291,23.21,-30.05,196.09,0
1292,23.23,-70.84,235.4,0
1293,23.24,-56.7,188.68,0
1294,23.25,-16.53,160.25,0
1295,23.27,-54.0,141.18,0
1296,23.28,-31.7,92.68,0
1297,23.29,-12.71,28.68,0
1298,23.31,-42.26,25.22,0
1299,23.32,-35.31,-10.75,0
1300,23.33,11.33,-51.63,0
1301,23.35,-38.19,-34.57,0
1302,23.36,-6.29,-81.53,0
1303,23.37,35.6,-115.36,0
1304,23.39,-16.75,-118.97,0
1305,23.4,23.19,-120.01,0
1306,23.41,26.77,-148.25,0
1307,23.43,-6.4,-123.38,0
1308,23.44,31.14,-136.57,0
1309,23.45,54.91,-151.29,0
1310,23.46,-3.31,-139.3,0
1311,23.48,18.67,-130.77,0
1312,23.49,34.16,-134.3,0
1313,23.5,-0.99,-115.58,0
1314,23.52,32.72,-130.57,0
1315,23.53,51.26,-140.41,0
1316,23.54,7.47,-115.3,0
1317,23.56,35.78,-114.02,0
1318,23.57,41.52,-150.38,0
1319,23.59,4.76,-99.48,0
1320,23.6,24.02,-106.19,0
1321,23.61,24.77,-70.72,0
1322,23.63,-2.96,-52.61,0
1323,23.64,21.35,-42.82,0
1324,23.65,40.35,-17.53,0
1325,23.67,15.37,-10.5,0
1326,23.68,27.29,-5.57,0
1327,23.69,42.82,-2.08,0
1328,23.71,-15.61,18.17,0
1329,23.72,15.71,18.14,0
1330,23.73,18.76,18.98,0
1331,23.75,-20.81,44.39,0
1332,23.76,1.03,32.72,0
1333,23.77,9.45,31.29,0
1334,23.79,-11.3,46.35,0
1335,23.8,7.79,53.72,0
1336,23.81,33.69,62.74,0
1337,23.83,-34.38,66.12,0
1338,23.84,-4.29,52.45,0
1339,23.85,9.18,51.07,0
1340,23.87,-30.02,77.59,0
1341,23.88,-7.89,51.04,0
1342,23.89,6.73,76.13,0
1343,23.91,-35.42,75.25,0
1344,23.92,-16.66,64.63,0
1345,23.93,14.08,55.16,0
1346,23.95,-20.75,58.94,0
1347,23.96,-6.98,65.97,0
1348,23.97,3.86,32.45,0
1349,23.99,-41.34,86.82,0
1350,24.0,-12.22,68.02,0
1351,24.01,7.53,61.7,0
1352,24.03,-27.66,46.36,0
1353,24.04,-5.03,30.79,0
1354,24.05,-3.92,-19.66,0
1355,24.07,8.76,48.45,0
1356,24.08,-19.4,42.76,0
1357,24.09,-4.11,21.55,0
1358,24.1,-12.68,44.93,1
1359,24.12,-10.47,46.14,1
1360,24.13,25.87,84.68,1
1361,24.14,-13.41,189.2,1
1362,24.16,-6.37,273.34,1
1363,24.17,-162.62,287.67,1
1364,24.18,-199.03,213.08,1
1365,24.2,410.51,276.54,1
1366,24.21,10.17,141.55,1
1367,24.22,-145.57,121.77,1
1368,24.24,-183.11,36.63,1
1369,24.25,-327.63,-20.92,1
1370,24.27,-203.89,-47.96,1
1371,24.28,-15.47,-97.66,1
1372,24.29,477.8,-136.81,1
1373,24.31,-1.0,-141.82,1
1374,24.32,111.67,-174.37,1
1375,24.33,397.25,-196.85,1
1376,24.35,-97.46,-186.57,1
1377,24.36,419.98,-203.39,1
1378,24.37,-258.41,-214.3,1
1379,24.39,-76.2,-192.66,1
1380,24.4,303.54,-199.07,1
1381,24.41,16.14,-202.6,1
1382,24.43,51.66,-173.57,1
1383,24.44,-210.61,-173.38,1
1384,24.45,-88.26,-259.34,1
1385,24.47,222.76,-304.31,1
1386,24.48,-328.04,-165.86,1
1387,24.49,-92.52,-392.04,1
1388,24.51,-73.63,-120.27,1
1389,24.52,321.89,-405.17,1
1390,24.53,-75.37,-304.43,1
1391,24.55,326.75,84.63,1
1392,24.56,-262.29,-423.66,1
1393,24.57,8.81,-56.27,1
1394,24.59,-263.01,-242.15,1
1395,24.6,-131.56,211.32,1
1396,24.61,-36.31,-36.13,1
1397,24.63,-176.17,92.63,1
1398,24.64,141.33,355.96,1
1399,24.65,334.29,353.57,1
1400,24.67,167.46,512.81,1
1401,24.68,99.79,449.27,1
1402,24.69,-28.54,402.35,1
1403,24.71,108.76,125.56,1
1404,24.72,-340.33,219.88,1
1405,24.73,212.85,449.31,1
1406,24.75,-386.59,213.0,1
1407,24.76,111.38,473.99,1
1408,24.77,-52.61,224.3,1
1409,24.78,-87.15,39.22,1
1410,24.8,-336.07,-546.11,1
1411,24.81,-105.58,22.87,1
1412,24.82,-277.83,104.8,1
1413,24.84,-27.22,203.31,1
1414,24.85,208.84,-332.51,1
1415,24.86,-158.49,76.67,1
1416,24.88,-15.73,74.28,1
1417,24.89,243.82,-107.2,1
1418,24.91,1.67,-173.05,0
1419,24.92,124.09,-68.32,0
1420,24.93,117.92,-145.62,0
1421,24.95,76.8,-241.45,0
1422,24.96,152.0,-125.07,0
1423,24.97,102.13,-111.74,0
1424,24.99,62.67,-28.74,0
1425,25.0,-9.4,11.0,0
1426,25.01,-11.77,33.26,0
1427,25.03,-25.26,76.53,0
1428,25.04,-3.89,104.32,0
1429,25.05,3.47,101.37,0
1430,25.07,-10.44,129.02,0
1431,25.08,-9.25,141.39,0
1432,25.09,-9.04,126.38,0
1433,25.11,-26.91,140.06,0
1434,25.12,-31.8,179.87,0
1435,25.13,-16.15,239.27,0
1436,25.15,-12.92,288.14,0
1437,25.16,-19.38,311.38,0
1438,25.17,-7.73,266.64,0
1439,25.19,-15.84,254.55,0
1440,25.2,-10.14,209.32,0
1441,25.21,-3.89,147.74,0
1442,25.23,-16.81,84.91,0
1443,25.24,6.15,63.47,0
1444,25.25,24.48,6.01,0
1445,25.27,3.13,-48.4,0
1446,25.28,-1.26,-65.77,0
1447,25.29,31.07,-107.87,0
1448,25.31,11.75,-179.7,0
1449,25.32,38.72,-173.74,0
1450,25.33,25.73,-185.0,0
1451,25.35,23.3,-184.95,0
1452,25.36,13.01,-188.3,0
1453,25.37,17.74,-190.68,0
1454,25.38,-4.17,-224.72,0
1455,25.4,20.52,-226.93,0
1456,25.41,28.58,-207.08,0
1457,25.42,14.84,-266.68,0
1458,25.44,1.8,-221.65,0
1459,25.45,23.96,-236.02,0
1460,25.46,10.38,-208.04,0
1461,25.48,4.85,-162.15,0
1462,25.49,11.42,-178.2,0
1463,25.5,10.17,-157.3,0
1464,25.52,-5.45,-117.05,0
1465,25.53,3.08,-138.38,0
1466,25.55,-5.07,-126.72,0
1467,25.56,4.69,-90.39,0
1468,25.57,2.61,-101.62,0
1469,25.59,-2.6,-106.28,0
1470,25.6,-15.85,-66.86,0
1471,25.61,-12.55,-21.66,0
1472,25.63,-16.54,-44.5,0
1473,25.64,-19.06,15.31,0
1474,25.65,-16.82,9.96,0
1475,25.67,-26.22,1.45,0
1476,25.68,-15.44,24.2,0
1477,25.69,10.89,31.85,0
1478,25.71,-12.21,29.27,0
1479,25.72,-10.25,62.98,0
1480,25.73,-8.38,64.54,0
1481,25.75,-4.75,40.42,0
1482,25.76,-19.48,63.85,0
1483,25.77,10.43,78.63,0
1484,25.79,-2.21,61.62,0
1485,25.8,-8.79,86.38,0
1486,25.81,-5.13,69.84,0
1487,25.83,-13.54,82.35,0
1488,25.84,-15.72,101.91,0
1489,25.85,-14.44,108.01,0
1490,25.87,1.24,81.11,0
1491,25.88,-7.79,113.57,0
1492,25.89,2.59,103.22,0
1493,25.91,-14.86,60.4,0
1494,25.92,-19.23,87.77,0
1495,25.93,4.58,94.41,0
1496,25.95,-1.22,62.98,0
1497,25.96,-8.06,98.59,0
1498,25.97,5.75,88.9,0
1499,25.99,-1.71,24.53,0
1500,26.0,-9.19,39.81,0
1501,26.01,8.61,49.68,0
1502,26.02,-2.43,-1.83,0
1503,26.04,-16.27,69.83,0
1504,26.05,4.69,68.72,0
1505,26.06,1.64,35.99,0
1506,26.08,-6.26,50.16,0
1507,26.09,33.67,52.21,0
1508,26.1,0.5,34.56,1
1509,26.12,0.63,67.97,1
1510,26.13,23.14,30.21,1
1511,26.14,11.11,99.19,1
1512,26.16,-58.79,258.97,1
1513,26.17,-98.99,415.38,1
1514,26.19,205.58,256.92,1
1515,26.2,75.65,219.15,1
1516,26.21,-269.42,133.44,1
1517,26.23,200.12,61.45,1
1518,26.24,-300.01,26.54,1
1519,26.25,46.25,-49.76,1
1520,26.27,-1.42,-89.97,1
1521,26.28,-221.73,-106.13,1
1522,26.29,-81.93,-158.76,1
1523,26.31,-141.18,-179.44,1
1524,26.32,38.53,-175.71,1
1525,26.33,373.65,-212.39,1
1526,26.35,-84.82,-218.71,1
1527,26.36,-96.97,-201.53,1
1528,26.37,-149.82,-223.44,1
1529,26.39,214.71,-220.24,1
1530,26.4,5.46,-194.08,1
1531,26.41,554.28,-208.34,1
1532,26.43,307.71,-196.96,1
1533,26.44,-43.22,-202.28,1
1534,26.45,34.34,-308.36,1
1535,26.47,-127.47,-221.59,1
1536,26.48,139.88,-170.67,1
1537,26.49,51.62,-266.23,1
1538,26.51,363.91,-220.76,1
1539,26.52,-103.96,-212.57,1
1540,26.53,59.89,-195.37,1
1541,26.55,94.11,-549.96,1
1542,26.56,69.19,-291.55,1
1543,26.57,136.83,-304.2,1
1544,26.59,-12.09,70.21,1
1545,26.6,-317.61,294.25,1
1546,26.61,-73.52,389.53,1
1547,26.63,-420.59,-71.86,1
1548,26.64,-157.3,137.68,1
1549,26.65,150.15,100.73,1
1550,26.67,-242.1,473.98,1
1551,26.68,145.9,580.13,1
1552,26.69,38.86,518.84,1
1553,26.7,-109.12,116.62,1
1554,26.72,-21.44,194.25,1
1555,26.73,-149.82,145.82,1
1556,26.75,125.35,302.39,1
1557,26.76,-96.11,202.77,1
1558,26.77,104.01,-124.39,1
1559,26.78,-261.89,144.88,1
1560,26.8,-72.91,107.34,1
1561,26.81,-151.41,154.18,1
1562,26.83,-24.35,28.7,1
1563,26.84,-417.45,261.04,1
1564,26.85,-352.16,170.48,1
1565,26.87,-15.27,206.73,1
1566,26.88,-39.06,157.24,1
1567,26.89,46.18,45.14,1
1568,26.91,-22.17,-24.74,0
1569,26.92,-15.27,-148.44,0
1570,26.93,-11.55,-178.44,0
1571,26.95,22.13,-262.32,0
1572,26.96,9.92,-164.24,0
1573,26.97,37.75,-143.08,0
1574,26.99,86.19,-98.13,0
1575,27.0,41.59,-32.05,0
1576,27.01,64.26,-15.16,0
1577,27.03,92.45,3.36,0
1578,27.04,101.79,51.93,0
1579,27.05,120.12,53.58,0
1580,27.07,163.27,55.93,0
1581,27.08,124.54,89.83,0
1582,27.09,141.5,80.08,0
1583,27.11,153.8,71.75,0
1584,27.12,118.8,137.16,0
1585,27.13,104.82,224.77,0
1586,27.15,117.37,267.04,0
1587,27.16,81.6,235.35,0
1588,27.17,69.67,208.32,0
1589,27.19,67.18,175.58,0
1590,27.2,32.67,156.79,0
1591,27.21,55.1,109.19,0
1592,27.23,51.87,14.78,0
1593,27.24,22.4,12.49,0
1594,27.25,8.99,-41.51,0
1595,27.27,36.07,-66.09,0
1596,27.28,-5.38,-74.74,0
1597,27.29,-4.21,-91.84,0
1598,27.3,2.19,-109.53,0
1599,27.32,-7.83,-143.45,0
1600,27.33,-16.76,-159.47,0
1601,27.34,-17.91,-169.65,0
1602,27.36,-55.37,-176.47,0
1603,27.37,-38.86,-187.88,0
1604,27.38,-10.91,-212.1,0
1605,27.4,-54.19,-192.55,0
1606,27.41,-31.26,-230.12,0
1607,27.42,-28.08,-207.8,0
1608,27.44,-74.02,-191.02,0
1609,27.45,-45.63,-155.8,0
1610,27.46,-36.92,-170.18,0
1611,27.48,-47.29,-157.97,0
1612,27.49,-46.26,-164.65,0
1613,27.51,-32.66,-138.02,0
1614,27.52,-50.35,-119.43,0
1615,27.53,-32.82,-117.45,0
1616,27.55,-14.91,-98.09,0
1617,27.56,-55.12,-105.81,0
1618,27.57,-34.44,-80.41,0
1619,27.59,-17.38,-64.45,0
1620,27.6,-52.35,-83.31,0
1621,27.61,-33.13,-20.54,0
1622,27.63,-3.61,-15.91,0
1623,27.64,-30.21,-7.06,0
1624,27.65,-19.97,12.03,0
1625,27.67,-4.32,47.11,0
1626,27.68,-35.94,19.27,0
1627,27.69,-8.45,7.54,0
1628,27.71,10.84,48.35,0
1629,27.72,-30.33,31.09,0
1630,27.73,-23.76,53.23,0
1631,27.75,11.41,38.08,0
1632,27.76,-19.88,65.87,0
1633,27.77,-4.41,82.88,0
1634,27.79,12.78,84.89,0
1635,27.8,-15.54,71.57,0
1636,27.81,-7.02,89.51,0
1637,27.83,35.63,109.11,0
1638,27.84,-17.55,75.67,0
1639,27.85,9.87,69.46,0
1640,27.87,28.15,100.69,0
1641,27.88,2.28,96.55,0
1642,27.89,-10.43,83.19,0
1643,27.91,33.88,96.37,0
1644,27.92,-11.93,112.91,0
1645,27.93,17.7,99.45,0
1646,27.94,43.86,86.82,0
1647,27.96,-13.23,64.33,0
1648,27.97,6.98,66.65,0
1649,27.98,36.42,77.35,0
1650,28.0,-4.26,36.74,0
1651,28.01,8.87,46.41,0
1652,28.02,38.7,66.66,0
1653,28.04,-7.95,15.37,0
1654,28.05,7.21,49.59,0
1655,28.06,34.12,55.92,0
1656,28.08,4.84,22.35,0
1657,28.09,11.09,24.17,0
1658,28.1,52.51,14.33,1
1659,28.12,-1.96,3.39,1
1660,28.13,11.67,56.66,1
1661,28.15,41.96,135.39,1
1662,28.16,18.3,220.67,1
1663,28.17,14.71,323.99,1
1664,28.19,123.26,265.58,1
1665,28.2,-366.59,191.36,1
1666,28.21,-244.57,127.52,1
1667,28.23,-22.42,46.69,1
1668,28.24,-289.51,6.17,1
1669,28.25,19.63,-35.86,1
1670,28.27,199.15,-97.32,1
1671,28.28,-159.34,-119.43,1
1672,28.29,115.9,-138.54,1
1673,28.31,299.36,-182.15,1
1674,28.32,-37.34,-185.96,1
1675,28.33,-81.29,-187.94,1
1676,28.35,-59.44,-215.91,1
1677,28.36,172.58,-208.69,1
1678,28.37,-92.88,-198.63,1
1679,28.39,330.81,-216.06,1
1680,28.4,43.83,-199.83,1
1681,28.41,-113.75,-179.33,1
1682,28.43,-68.84,-214.17,1
1683,28.44,148.29,-370.95,1
1684,28.45,215.68,-444.21,1
1685,28.47,342.2,-446.04,1
1686,28.48,403.38,-837.13,1
1687,28.49,-213.53,-354.89,1
1688,28.51,562.77,-92.29,1
1689,28.52,166.23,77.09,1
1690,28.53,-92.27,65.65,1
1691,28.55,-257.88,186.08,1
1692,28.56,-306.29,156.96,1
1693,28.57,153.83,52.03,1
1694,28.58,-98.94,-116.07,1
1695,28.6,17.19,180.39,1
1696,28.61,-18.62,201.36,1
1697,28.62,-381.13,659.7,1
1698,28.64,-141.12,183.16,1
1699,28.65,-166.31,320.09,1
1700,28.67,-22.59,-0.65,1
1701,28.68,216.71,-177.55,1
1702,28.69,-55.05,173.23,1
1703,28.7,-332.28,296.68,1
1704,28.72,92.79,88.22,1
1705,28.73,-276.44,542.32,1
1706,28.75,8.6,98.77,1
1707,28.76,-155.22,44.98,1
1708,28.77,-254.61,227.12,1
1709,28.785,-67.33,502.4,1
1710,28.8,-205.85,37.3,1
1711,28.81,299.5,459.13,1
1712,28.83,12.31,56.43,1
1713,28.84,146.21,290.68,1
1714,28.85,133.79,-159.21,1
1715,28.87,46.28,-55.67,1
1716,28.88,171.37,-57.63,1
1717,28.89,-111.42,-189.91,1
1718,28.91,94.67,3.88,0
1719,28.92,-117.09,-109.25,0
1720,28.93,19.74,-105.39,0
1721,28.95,7.96,-230.71,0
1722,28.96,25.07,-106.95,0
1723,28.97,58.05,-141.73,0
1724,28.99,154.68,-89.87,0
1725,29.0,84.9,-69.25,0
1726,29.01,42.51,-11.9,0
1727,29.03,25.29,-13.14,0
1728,29.04,-42.95,9.97,0
1729,29.05,-49.12,45.07,0
1730,29.07,-63.22,34.22,0
1731,29.08,-96.72,43.8,0
1732,29.09,-95.5,69.58,0
1733,29.11,-64.66,51.76,0
1734,29.12,-95.87,98.83,0
1735,29.13,-78.69,232.54,0
1736,29.15,-34.77,270.92,0
1737,29.16,-67.47,207.88,0
1738,29.17,-36.54,174.76,0
1739,29.19,-21.01,159.81,0
1740,29.2,-38.97,145.97,0
1741,29.21,-22.1,95.84,0
1742,29.22,20.1,32.09,0
1743,29.24,-9.64,-16.28,0
1744,29.25,12.31,13.62,0
1745,29.26,42.75,-61.42,0
1746,29.28,-13.3,-112.07,0
1747,29.29,3.44,-113.91,0
1748,29.3,46.25,-124.37,0
1749,29.32,5.07,-155.32,0
1750,29.33,31.19,-153.13,0
1751,29.34,59.58,-178.38,0
1752,29.36,22.83,-213.05,0
1753,29.37,39.58,-174.25,0
1754,29.38,66.96,-189.19,0
1755,29.4,10.01,-208.44,0
1756,29.41,41.26,-188.68,0
1757,29.425,57.8,-186.31,0
1758,29.44,13.14,-201.95,0
1759,29.45,27.11,-153.14,0
1760,29.47,60.52,-146.57,0
1761,29.48,10.69,-171.12,0
1762,29.49,28.97,-125.14,0
1763,29.51,60.95,-111.35,0
1764,29.52,6.52,-95.62,0
1765,29.53,33.38,-88.48,0
1766,29.55,49.03,-81.44,0
1767,29.56,13.4,-69.1,0
1768,29.57,23.66,-59.66,0
1769,29.59,49.15,-49.32,0
1770,29.6,-1.12,-23.04,0
1771,29.61,20.92,-5.06,0
1772,29.63,29.72,-11.92,0
1773,29.64,-3.95,17.91,0
1774,29.65,9.01,26.26,0
1775,29.67,18.94,19.49,0
1776,29.68,-30.59,21.36,0
1777,29.69,0.39,50.2,0
1778,29.71,21.03,48.06,0
1779,29.72,-20.45,52.54,0
1780,29.73,-17.61,59.84,0
1781,29.75,19.32,70.42,0
1782,29.76,-24.05,72.02,0
1783,29.77,-6.62,94.26,0
1784,29.79,-1.86,83.19,0
1785,29.8,-44.16,83.05,0
1786,29.81,-13.43,104.7,0
1787,29.83,-0.76,60.32,0
1788,29.84,-26.17,94.84,0
1789,29.85,-13.94,95.14,0
1790,29.86,2.02,91.77,0
1791,29.88,-16.29,67.59,0
1792,29.89,-14.94,107.85,0
1793,29.9,-7.07,79.06,0
1794,29.92,-35.27,70.49,0
1795,29.93,-22.54,55.34,0
1796,29.94,-0.57,67.01,0
1797,29.96,-27.79,60.62,0
1798,29.97,-8.17,64.34,0
1799,29.98,-1.35,57.38,0
1800,30.0,-35.78,64.49,0
