,Timestamp,Data1,Data2,Label
0,6.0,24.68,-14.43,0
1,6.01,-16.31,8.52,0
2,6.03,-3.42,-3.84,0
3,6.04,28.63,-12.18,0
4,6.05,-17.9,31.86,0
5,6.07,7.46,-7.72,0
6,6.08,14.24,-19.48,0
7,6.09,-18.69,26.65,0
8,6.11,3.13,5.49,1
9,6.12,8.51,-24.15,1
10,6.13,-20.58,25.32,1
11,6.15,4.29,25.66,1
12,6.16,3.33,-1.28,1
13,6.17,-14.61,84.28,1
14,6.19,127.44,44.77,1
15,6.2,152.13,53.16,1
16,6.21,132.33,158.47,1
17,6.23,-383.97,151.96,1
18,6.24,-330.79,40.35,1
19,6.25,-103.35,187.05,1
20,6.27,133.95,150.66,1
21,6.28,-272.6,-13.27,1
22,6.29,-144.83,208.87,1
23,6.31,224.91,20.92,1
24,6.32,378.62,-36.09,1
25,6.33,-159.48,-191.02,1
26,6.35,12.75,85.59,1
27,6.36,-295.98,-88.29,1
28,6.37,-129.28,5.09,1
29,6.39,-26.56,-78.55,1
30,6.4,474.47,-93.02,1
31,6.41,109.13,-100.0,1
32,6.43,53.84,-124.25,1
33,6.44,116.05,-145.06,1
34,6.45,-112.16,-128.81,1
35,6.47,-48.96,-145.93,1
36,6.48,8.95,-153.43,1
37,6.49,152.34,-132.33,1
38,6.51,25.69,-139.36,1
39,6.52,135.65,-142.46,1
40,6.53,135.79,-114.3,1
41,6.55,97.04,-140.05,1
42,6.56,94.56,-258.72,1
43,6.57,-87.57,-285.81,1
44,6.59,130.53,-92.93,1
45,6.6,-169.01,-175.37,1
46,6.61,-140.84,-246.27,1
47,6.63,441.58,-304.53,1
48,6.64,133.02,-73.24,1
49,6.65,-70.94,149.2,1
50,6.67,264.81,-261.01,1
51,6.68,-411.2,-86.11,1
52,6.69,-50.07,-1.3,1
53,6.71,-215.8,60.52,1
54,6.72,-106.99,179.16,1
55,6.73,-164.67,370.16,1
56,6.75,106.62,31.57,1
57,6.76,82.24,472.08,1
58,6.77,220.24,276.59,1
59,6.79,-396.21,80.05,1
60,6.8,-306.37,410.96,1
61,6.81,-315.4,-72.66,1
62,6.83,-198.15,145.74,1
63,6.84,272.0,7.96,1
64,6.85,48.79,-248.1,1
65,6.87,289.24,272.31,1
66,6.88,245.38,132.88,1
67,6.89,-38.34,214.3,1
68,6.91,-76.27,167.88,0
69,6.92,-130.85,-111.37,0
70,6.93,-215.81,201.81,0
71,6.95,-139.0,136.81,0
72,6.96,63.2,138.42,0
73,6.97,107.18,25.84,0
74,6.99,63.4,44.36,0
75,7.0,179.88,-78.46,0
76,7.01,133.06,-94.03,0
77,7.03,165.3,-73.4,0
78,7.04,177.27,-44.63,0
79,7.05,93.44,10.99,0
80,7.07,0.48,45.18,0
81,7.08,-17.61,52.15,0
82,7.09,-79.28,87.48,0
83,7.11,-93.13,103.7,0
84,7.12,-102.81,95.26,0
85,7.13,-131.99,115.56,0
86,7.15,-129.35,119.57,0
87,7.16,-108.53,99.62,0
88,7.17,-138.3,110.77,0
89,7.19,-104.33,124.71,0
90,7.2,-76.93,169.15,0
91,7.21,-84.88,244.25,0
92,7.23,-61.27,245.3,0
93,7.24,-16.52,217.64,0
94,7.25,-53.35,188.62,0
95,7.27,-33.73,166.51,0
96,7.28,-14.4,82.12,0
97,7.29,-21.76,56.46,0
98,7.31,7.88,25.5,0
99,7.32,24.25,-26.26,0
100,7.33,4.62,-73.05,0
101,7.35,23.96,-91.79,0
102,7.36,42.62,-148.5,0
103,7.37,37.58,-123.58,0
104,7.39,36.69,-123.05,0
105,7.4,77.17,-185.35,0
106,7.41,41.58,-197.8,0
107,7.43,60.79,-208.71,0
108,7.44,70.76,-258.01,0
109,7.45,53.24,-251.59,0
110,7.47,54.98,-250.11,0
111,7.48,57.24,-250.76,0
112,7.49,40.79,-237.41,0
113,7.51,49.84,-228.81,0
114,7.52,60.66,-212.7,0
115,7.53,34.49,-191.26,0
116,7.55,43.43,-183.06,0
117,7.56,51.21,-200.51,0
118,7.57,29.35,-157.06,0
119,7.59,33.44,-161.95,0
120,7.6,40.92,-141.97,0
121,7.61,5.87,-133.59,0
122,7.63,5.89,-98.42,0
123,7.64,24.97,-106.89,0
124,7.65,10.2,-81.91,0
125,7.67,11.5,-35.05,0
126,7.68,26.86,-58.42,0
127,7.69,3.14,-28.4,0
128,7.71,-10.57,20.04,0
129,7.72,0.25,4.9,0
130,7.73,-1.51,30.11,0
131,7.75,11.6,17.97,0
132,7.76,3.11,35.33,0
133,7.77,-23.53,55.5,0
134,7.79,-5.94,83.95,0
135,7.8,-14.24,43.12,0
136,7.81,-25.0,67.67,0
137,7.83,-9.99,115.04,0
138,7.84,-2.92,71.52,0
139,7.85,-19.92,77.4,0
140,7.87,-30.71,106.24,0
141,7.88,-8.27,85.62,0
142,7.89,-23.07,84.37,0
143,7.91,-19.3,115.04,0
144,7.92,-0.21,65.83,0
145,7.93,-25.11,92.02,0
146,7.95,-36.84,106.98,0
147,7.96,-18.49,86.05,0
148,7.97,-4.15,88.43,0
149,7.99,-26.88,103.55,0
150,8.0,-7.79,73.69,0
151,8.01,-24.7,68.57,0
152,8.03,-17.34,98.99,0
153,8.04,-3.23,77.46,0
154,8.05,-19.67,68.61,0
155,8.07,5.92,84.71,0
156,8.08,3.1,61.14,0
157,8.09,3.4,47.8,0
158,8.11,-18.36,66.85,1
159,8.12,-5.92,49.15,1
160,8.13,-43.48,135.56,1
161,8.15,-42.9,223.12,1
162,8.16,-23.98,230.89,1
163,8.17,-213.11,398.55,1
164,8.19,-203.21,268.27,1
165,8.2,307.92,199.94,1
166,8.21,-371.25,113.77,1
167,8.23,-74.68,76.18,1
168,8.24,323.22,-6.87,1
169,8.25,-278.06,-50.71,1
170,8.27,-124.03,-72.1,1
171,8.28,-174.79,-127.56,1
172,8.29,-39.19,-151.89,1
173,8.31,78.26,-161.16,1
174,8.32,-93.17,-205.41,1
175,8.33,90.69,-194.8,1
176,8.35,20.1,-189.74,1
177,8.36,377.03,-269.97,1
178,8.37,399.19,-297.8,1
179,8.39,496.51,-181.93,1
180,8.4,391.41,-614.76,1
181,8.41,404.76,-628.25,1
182,8.43,-254.15,44.62,1
183,8.44,220.58,-458.25,1
184,8.45,-60.0,40.19,1
185,8.47,-10.56,-162.38,1
186,8.48,149.79,-222.92,1
187,8.49,-220.95,57.18,1
188,8.51,-212.1,160.75,1
189,8.52,-14.69,-164.61,1
190,8.53,33.84,-104.77,1
191,8.55,45.58,165.73,1
192,8.56,-297.51,-60.34,1
193,8.57,388.73,87.95,1
194,8.59,-245.04,349.2,1
195,8.6,-270.52,174.07,1
196,8.61,-218.64,-61.94,1
197,8.63,-253.39,23.08,1
198,8.64,264.58,267.76,1
199,8.65,-253.22,243.93,1
200,8.67,-238.92,-178.13,1
201,8.68,64.04,-312.34,1
202,8.69,238.07,-307.04,1
203,8.71,209.39,81.04,1
204,8.72,40.22,87.05,1
205,8.73,340.95,25.16,1
206,8.75,4.88,432.99,1
207,8.76,-283.9,12.8,1
208,8.77,255.66,347.67,1
209,8.79,-319.29,100.89,1
210,8.8,96.35,472.63,1
211,8.81,-434.85,297.05,1
212,8.83,99.73,257.67,1
213,8.84,-17.18,244.25,1
214,8.85,168.93,-104.75,1
215,8.87,113.62,369.38,1
216,8.88,-165.16,-453.66,1
217,8.89,-185.79,-66.02,1
218,8.91,-313.51,-129.24,0
219,8.92,-198.64,201.22,0
220,8.93,-302.79,223.09,0
221,8.95,52.9,201.79,0
222,8.96,206.99,411.75,0
223,8.97,-55.0,239.31,0
224,8.99,-28.26,-86.99,0
225,9.0,-138.03,-105.93,0
226,9.01,-66.65,52.4,0
227,9.03,-127.18,-156.92,0
228,9.04,65.79,-103.42,0
229,9.05,54.36,-238.77,0
230,9.07,122.56,-290.17,0
231,9.08,159.52,-233.4,0
232,9.09,79.38,-211.95,0
233,9.11,58.78,-113.25,0
234,9.12,35.34,-63.36,0
235,9.13,25.31,-40.6,0
236,9.15,-10.85,36.57,0
237,9.16,7.83,75.77,0
238,9.17,7.3,60.66,0
239,9.19,-11.04,73.49,0
240,9.2,13.0,28.16,0
241,9.21,29.93,10.71,0
242,9.23,20.73,49.29,0
243,9.24,34.43,31.27,0
244,9.25,41.48,58.66,0
245,9.27,8.32,106.97,0
246,9.28,46.53,63.68,0
247,9.29,41.47,47.6,0
248,9.31,24.75,64.88,0
249,9.32,26.61,60.91,0
250,9.33,40.61,51.39,0
251,9.35,26.97,30.1,0
252,9.36,53.38,3.88,0
253,9.37,66.76,-13.67,0
254,9.39,22.86,-27.8,0
255,9.4,49.47,-58.89,0
256,9.41,36.98,-95.76,0
257,9.43,34.67,-75.78,0
258,9.44,28.94,-112.56,0
259,9.45,37.26,-116.95,0
260,9.47,18.48,-118.91,0
261,9.48,29.5,-128.75,0
262,9.49,23.89,-132.13,0
263,9.51,-0.07,-105.84,0
264,9.52,11.22,-114.44,0
265,9.53,23.33,-126.08,0
266,9.55,1.6,-117.87,0
267,9.56,8.58,-103.42,0
268,9.57,29.76,-120.13,0
269,9.59,-12.39,-88.32,0
270,9.6,-9.01,-104.95,0
271,9.61,3.49,-89.18,0
272,9.63,-35.96,-62.11,0
273,9.64,-6.37,-71.03,0
274,9.65,2.58,-78.35,0
275,9.67,-9.49,-33.29,0
276,9.68,0.35,-19.47,0
277,9.69,-15.46,-34.39,0
278,9.71,-35.38,-0.99,0
279,9.72,-26.22,22.78,0
280,9.73,-6.9,-11.51,0
281,9.75,-34.37,2.0,0
282,9.76,-12.13,2.68,0
283,9.77,2.89,22.88,0
284,9.79,-52.85,18.31,0
285,9.8,-29.78,28.68,0
286,9.81,-8.72,34.66,0
287,9.83,-6.05,66.6,0
288,9.84,-40.24,70.38,0
289,9.85,4.4,53.79,0
290,9.87,-10.39,62.26,0
291,9.88,0.56,61.96,0
292,9.89,7.48,44.86,0
293,9.91,-14.91,55.33,0
294,9.92,-12.58,39.34,0
295,9.93,-10.04,57.99,0
296,9.95,-49.08,65.19,0
297,9.96,-27.68,81.24,0
298,9.97,-4.67,56.79,0
299,9.99,-21.77,89.36,0
300,10.0,-21.87,71.2,0
301,10.01,-22.45,68.53,0
302,10.03,-19.23,53.29,0
303,10.04,-0.38,66.94,0
304,10.05,5.15,59.48,0
305,10.07,-16.74,56.49,0
306,10.08,-10.59,35.53,0
307,10.09,4.07,35.4,0
308,10.11,0.51,32.1,1
309,10.12,34.05,65.68,1
310,10.13,91.35,92.47,1
311,10.15,319.08,238.65,1
312,10.16,132.19,360.2,1
313,10.17,-292.23,304.11,1
314,10.19,-344.64,242.21,1
315,10.2,-395.27,169.32,1
316,10.21,-274.23,83.28,1
317,10.23,-194.77,39.57,1
318,10.24,-3.21,-8.27,1
319,10.25,44.41,-69.16,1
320,10.27,25.55,-92.07,1
321,10.28,130.41,-117.6,1
322,10.29,516.08,-158.41,1
323,10.31,-22.65,-165.04,1
324,10.32,194.85,-172.49,1
325,10.33,236.51,-201.11,1
326,10.35,-44.03,-204.0,1
327,10.36,142.92,-210.65,1
328,10.37,141.95,-214.57,1
329,10.39,97.91,-177.51,1
330,10.4,58.25,-169.55,1
331,10.41,-23.85,-320.83,1
332,10.43,418.55,-533.94,1
333,10.44,199.12,-297.96,1
334,10.45,230.26,-286.89,1
335,10.47,-178.87,-125.76,1
336,10.48,113.73,-298.12,1
337,10.49,-232.06,-234.46,1
338,10.51,-243.4,158.2,1
339,10.52,165.37,-325.73,1
340,10.53,25.82,72.53,1
341,10.55,-546.6,61.04,1
342,10.56,-339.6,127.34,1
343,10.57,-44.86,53.87,1
344,10.59,-382.1,145.14,1
345,10.6,-194.19,503.7,1
346,10.61,-21.57,61.27,1
347,10.63,174.54,-189.3,1
348,10.64,-57.79,-47.56,1
349,10.65,387.89,19.32,1
350,10.67,-18.49,398.43,1
351,10.68,-341.57,597.38,1
352,10.69,-214.12,346.88,1
353,10.71,131.59,104.86,1
354,10.72,6.04,232.16,1
355,10.73,-112.54,311.05,1
356,10.75,-236.13,232.59,1
357,10.76,-25.47,-116.41,1
358,10.77,188.77,-66.95,1
359,10.79,141.8,-329.1,1
360,10.8,-32.45,492.42,1
361,10.81,150.0,238.55,1
362,10.83,47.38,83.78,1
363,10.84,380.69,-38.52,1
364,10.85,29.83,-101.36,1
365,10.87,-96.54,90.5,1
366,10.88,-258.29,100.16,1
367,10.89,-39.92,77.44,1
368,10.91,-48.38,-101.49,0
369,10.92,22.15,-281.98,0
370,10.93,67.37,460.49,0
371,10.95,-118.6,-59.7,0
372,10.96,22.14,-125.38,0
373,10.97,151.95,-297.84,0
374,10.99,385.01,-92.26,0
375,11.0,-101.33,23.54,0
376,11.01,429.1,83.27,0
377,11.03,-153.75,-38.7,0
378,11.04,466.17,-248.84,0
379,11.05,14.17,-248.73,0
380,11.07,84.47,-312.49,0
381,11.08,134.56,-109.75,0
382,11.09,160.78,-350.27,0
383,11.11,126.58,-166.63,0
384,11.12,39.91,-101.56,0
385,11.13,87.66,-116.93,0
386,11.15,-31.47,-103.59,0
387,11.16,-68.38,-5.21,0
388,11.17,-59.85,12.85,0
389,11.19,-123.07,35.66,0
390,11.2,-123.36,102.3,0
391,11.21,-103.79,139.97,0
392,11.23,-146.49,200.05,0
393,11.24,-130.57,219.13,0
394,11.25,-107.98,223.97,0
395,11.27,-160.14,212.8,0
396,11.28,-141.86,250.98,0
397,11.29,-113.8,241.36,0
398,11.31,-144.85,212.59,0
399,11.32,-118.16,237.89,0
400,11.33,-86.65,195.78,0
401,11.35,-129.73,181.06,0
402,11.36,-94.02,160.4,0
403,11.37,-53.34,102.35,0
404,11.39,-94.28,70.86,0
405,11.4,-45.0,63.26,0
406,11.41,-23.43,56.68,0
407,11.43,-40.0,-25.14,0
408,11.44,-18.25,-14.01,0
409,11.45,25.02,-39.59,0
410,11.47,-18.54,-65.98,0
411,11.48,-3.29,-83.51,0
412,11.49,14.71,-134.57,0
413,11.51,9.73,-158.81,0
414,11.52,4.82,-96.73,0
415,11.53,51.03,-148.47,0
416,11.55,-0.56,-172.17,0
417,11.56,26.52,-106.5,0
418,11.57,63.4,-182.17,0
419,11.59,24.71,-164.94,0
420,11.6,35.55,-142.31,0
421,11.61,64.0,-131.41,0
422,11.63,33.67,-153.95,0
423,11.64,56.83,-114.16,0
424,11.65,74.32,-150.1,0
425,11.67,39.14,-148.41,0
426,11.68,64.26,-119.84,0
427,11.69,86.37,-124.97,0
428,11.71,25.39,-101.91,0
429,11.72,38.3,-72.38,0
430,11.73,60.96,-78.91,0
431,11.75,10.55,-83.4,0
432,11.76,32.16,-42.11,0
433,11.77,58.79,-59.34,0
434,11.79,35.3,-78.18,0
435,11.8,21.22,-24.62,0
436,11.81,44.04,-22.13,0
437,11.83,5.4,-23.81,0
438,11.84,22.73,13.23,0
439,11.85,29.54,7.81,0
440,11.87,-2.85,-12.83,0
441,11.88,2.03,39.46,0
442,11.89,39.07,21.38,0
443,11.91,-23.07,20.41,0
444,11.92,-7.18,78.48,0
445,11.93,39.83,47.71,0
446,11.95,-18.11,47.35,0
447,11.96,13.25,57.82,0
448,11.97,18.79,28.29,0
449,11.99,-25.64,66.78,0
450,12.0,1.57,85.04,0
451,12.01,2.25,58.49,0
452,12.03,-38.61,63.69,0
453,12.04,-14.86,106.49,0
454,12.05,11.64,80.49,0
455,12.07,-39.37,37.12,0
456,12.08,-12.2,84.29,0
457,12.09,14.59,84.27,0
458,12.11,-53.12,119.95,1
459,12.12,-53.65,342.74,1
460,12.13,120.65,395.91,1
461,12.15,59.98,344.0,1
462,12.16,246.44,285.22,1
463,12.17,-49.22,191.62,1
464,12.19,-278.6,118.51,1
465,12.2,37.84,80.61,1
466,12.21,-117.02,11.27,1
467,12.23,-300.99,-34.43,1
468,12.24,159.93,-49.91,1
469,12.25,-447.47,-96.79,1
470,12.27,-212.14,-128.75,1
471,12.28,-228.06,-124.61,1
472,12.29,-153.99,-157.86,1
473,12.31,70.22,-173.38,1
474,12.32,-38.11,-156.65,1
475,12.33,183.27,-178.58,1
476,12.35,163.15,-191.79,1
477,12.36,-25.1,-182.56,1
478,12.37,389.63,-154.99,1
479,12.39,-113.76,-203.19,1
480,12.4,561.68,-223.58,1
481,12.41,261.98,-224.8,1
482,12.43,-5.88,-244.92,1
483,12.44,310.07,-466.12,1
484,12.45,323.04,-293.75,1
485,12.47,144.7,94.5,1
486,12.48,97.13,-27.58,1
487,12.49,39.74,-264.47,1
488,12.51,-164.24,-53.05,1
489,12.52,26.82,24.25,1
490,12.53,-293.9,-10.7,1
491,12.55,-166.41,169.67,1
492,12.56,-324.94,-282.58,1
493,12.57,-254.15,-180.8,1
494,12.59,160.33,139.85,1
495,12.6,-414.22,279.95,1
496,12.61,-218.87,137.04,1
497,12.63,75.83,-42.07,1
498,12.64,17.62,152.43,1
499,12.65,-303.85,29.0,1
500,12.67,-142.88,757.52,1
501,12.68,-2.54,177.25,1
502,12.69,104.63,-182.37,1
503,12.71,106.32,205.18,1
504,12.72,386.89,293.29,1
505,12.73,204.6,250.12,1
506,12.75,-0.9,362.23,1
507,12.76,287.88,-73.0,1
508,12.77,-78.51,99.28,1
509,12.79,-28.2,134.34,1
510,12.8,106.7,117.48,1
511,12.81,-226.19,-55.76,1
512,12.83,41.98,160.6,1
513,12.84,-454.92,-204.66,1
514,12.85,-23.95,-103.75,1
515,12.87,-291.02,144.21,1
516,12.88,258.64,-43.68,1
517,12.89,-66.25,155.07,1
518,12.91,84.33,467.15,0
519,12.92,288.6,221.5,0
520,12.93,-163.01,-307.21,0
521,12.95,-222.6,146.29,0
522,12.96,-179.62,141.89,0
523,12.97,-22.51,55.61,0
524,12.99,74.29,-66.46,0
525,13.0,86.6,-76.62,0
526,13.01,87.96,-132.46,0
527,13.03,68.22,-266.72,0
528,13.04,73.28,-295.23,0
529,13.05,153.68,-269.04,0
530,13.07,98.15,-227.41,0
531,13.08,118.88,-154.72,0
532,13.09,80.82,-109.71,0
533,13.11,16.0,-85.23,0
534,13.12,24.68,-32.7,0
535,13.13,16.13,-6.24,0
536,13.15,-13.9,0.42,0
537,13.16,-27.29,38.33,0
538,13.17,-17.13,83.19,0
539,13.19,-55.87,147.66,0
540,13.2,-39.16,185.56,0
541,13.21,-13.37,222.94,0
542,13.23,-25.26,202.15,0
543,13.24,-35.6,178.64,0
544,13.25,-15.93,213.2,0
545,13.27,-51.96,146.5,0
546,13.28,-40.71,129.17,0
547,13.29,-16.78,110.33,0
548,13.31,-62.94,73.5,0
549,13.32,-31.26,0.46,0
550,13.33,13.74,-3.79,0
551,13.35,-36.16,-29.73,0
552,13.36,-14.85,-55.03,0
553,13.37,-2.75,-54.7,0
554,13.39,-0.93,-91.54,0
555,13.4,0.15,-114.11,0
556,13.41,16.47,-113.36,0
557,13.43,-3.18,-116.73,0
558,13.44,18.12,-157.75,0
559,13.45,33.05,-139.87,0
560,13.47,6.55,-137.57,0
561,13.48,12.92,-160.08,0
562,13.49,17.46,-150.1,0
563,13.51,-0.64,-141.8,0
564,13.52,2.47,-142.41,0
565,13.53,24.56,-143.42,0
566,13.55,-6.07,-126.63,0
567,13.56,19.03,-147.09,0
568,13.57,20.68,-105.84,0
569,13.59,12.69,-86.84,0
570,13.6,5.03,-93.5,0
571,13.61,31.68,-52.14,0
572,13.63,1.18,-56.6,0
573,13.64,20.26,-71.64,0
574,13.65,12.85,-33.23,0
575,13.67,-9.35,-27.66,0
576,13.68,-4.89,-43.11,0
577,13.69,29.66,-8.02,0
578,13.71,-19.33,-24.74,0
579,13.72,-0.26,-18.48,0
580,13.73,12.43,22.06,0
581,13.75,-12.34,16.83,0
582,13.76,-1.22,-7.76,0
583,13.77,23.7,29.57,0
584,13.79,1.77,30.01,0
585,13.8,-2.76,26.14,0
586,13.81,11.43,36.07,0
587,13.83,-12.66,33.75,0
588,13.84,-0.78,47.88,0
589,13.85,17.82,69.31,0
590,13.87,-10.76,54.38,0
591,13.88,-2.87,38.66,0
592,13.89,4.17,62.51,0
593,13.91,-18.65,77.62,0
594,13.92,-5.83,46.25,0
595,13.93,20.51,66.98,0
596,13.95,-17.92,71.01,0
597,13.96,-10.16,55.0,0
598,13.97,0.35,78.92,0
599,13.99,-14.58,66.15,0
600,14.0,-12.15,42.23,0
601,14.01,-0.11,80.26,0
602,14.03,-19.52,58.39,0
603,14.04,2.06,49.26,0
604,14.05,1.58,69.78,0
605,14.07,-15.14,68.3,0
606,14.08,4.41,31.58,0
607,14.09,4.43,70.73,0
608,14.11,-11.8,45.73,1
609,14.12,-1.03,105.41,1
610,14.13,68.9,230.96,1
611,14.15,145.8,414.59,1
612,14.16,-30.69,267.68,1
613,14.17,-249.56,233.13,1
614,14.19,-347.49,168.79,1
615,14.2,-182.51,114.76,1
616,14.21,-261.85,69.66,1
617,14.23,-140.65,-6.8,1
618,14.24,-7.77,-49.59,1
619,14.25,-22.1,-68.95,1
620,14.27,112.62,-125.17,1
621,14.28,99.56,-146.97,1
622,14.29,-30.31,-146.68,1
623,14.31,38.09,-186.35,1
624,14.32,187.34,-193.32,1
625,14.33,209.47,-179.83,1
626,14.35,399.67,-206.88,1
627,14.36,472.74,-254.68,1
628,14.37,-68.44,-227.07,1
629,14.39,604.37,-438.88,1
630,14.4,47.23,-692.44,1
631,14.41,290.22,-186.84,1
632,14.43,-148.24,-659.34,1
633,14.44,134.76,-251.09,1
634,14.45,-394.85,-390.93,1
635,14.47,330.54,429.76,1
636,14.48,-160.29,1.75,1
637,14.49,-306.8,-365.3,1
638,14.51,-343.88,-160.57,1
639,14.52,160.27,-23.7,1
640,14.53,-77.66,189.13,1
641,14.55,-111.69,299.88,1
642,14.56,-120.15,128.4,1
643,14.57,312.2,225.45,1
644,14.59,227.52,268.18,1
645,14.6,216.44,605.39,1
646,14.61,101.37,558.92,1
647,14.63,-249.06,201.84,1
648,14.64,-560.49,-221.97,1
649,14.65,-373.87,3.91,1
650,14.67,-382.82,34.59,1
651,14.68,-359.27,-241.73,1
652,14.69,-157.99,197.37,1
653,14.71,-140.95,192.31,1
654,14.72,402.06,249.92,1
655,14.73,-30.13,228.23,1
656,14.75,438.47,645.58,1
657,14.76,-98.34,357.28,1
658,14.77,120.95,206.58,1
659,14.79,-65.24,-397.23,1
660,14.8,-6.63,7.34,1
661,14.81,177.81,375.84,1
662,14.83,301.82,339.95,1
663,14.84,152.67,-159.34,1
664,14.85,-221.69,-292.25,1
665,14.87,210.12,352.8,1
666,14.88,-371.95,34.77,1
667,14.89,-122.04,-271.65,1
668,14.91,-218.79,-214.53,0
669,14.92,-250.91,-302.35,0
670,14.93,-31.48,-235.59,0
671,14.95,-7.12,-384.51,0
672,14.96,5.71,-343.22,0
673,14.97,22.1,-268.88,0
674,14.99,68.1,-238.01,0
675,15.0,61.57,-176.65,0
676,15.01,55.53,-36.43,0
677,15.03,40.41,-38.95,0
678,15.04,39.05,-10.81,0
679,15.05,57.01,76.29,0
680,15.07,48.98,132.27,0
681,15.08,10.44,114.12,0
682,15.09,34.51,166.0,0
683,15.11,25.53,138.39,0
684,15.12,3.5,175.22,0
685,15.13,13.28,180.31,0
686,15.15,21.25,155.11,0
687,15.16,-1.41,153.78,0
688,15.17,24.33,195.38,0
689,15.19,8.72,167.69,0
690,15.2,16.08,123.03,0
691,15.21,45.86,107.71,0
692,15.23,25.31,93.38,0
693,15.24,8.79,44.71,0
694,15.25,24.49,39.44,0
695,15.27,22.03,10.04,0
696,15.28,14.35,-5.7,0
697,15.29,36.46,-43.24,0
698,15.31,36.16,-59.78,0
699,15.32,19.31,-70.8,0
700,15.33,27.29,-69.06,0
701,15.35,29.62,-75.5,0
702,15.36,17.9,-103.68,0
703,15.37,9.46,-84.52,0
704,15.39,13.88,-110.87,0
705,15.4,-9.87,-124.24,0
706,15.41,8.88,-108.98,0
707,15.43,23.16,-108.66,0
708,15.44,-11.47,-102.88,0
709,15.45,14.86,-99.22,0
710,15.47,2.38,-122.14,0
711,15.48,-3.01,-106.68,0
712,15.49,4.47,-101.62,0
713,15.51,11.21,-96.58,0
714,15.52,-7.25,-116.59,0
715,15.53,2.69,-87.0,0
716,15.55,18.16,-91.13,0
717,15.56,0.19,-72.15,0
718,15.57,-7.32,-65.73,0
719,15.59,4.35,-40.88,0
720,15.6,-11.36,-40.89,0
721,15.61,-5.77,-39.2,0
722,15.63,-20.69,-39.32,0
723,15.64,-17.91,-27.67,0
724,15.65,-10.7,-10.67,0
725,15.67,6.54,-26.72,0
726,15.68,-37.15,12.11,0
727,15.69,-12.5,24.45,0
728,15.71,-0.21,4.77,0
729,15.72,-26.68,6.43,0
730,15.73,-24.68,27.59,0
731,15.75,-6.09,36.37,0
732,15.76,-17.98,30.35,0
733,15.77,-8.19,36.22,0
734,15.79,-0.33,60.19,0
735,15.8,-20.76,55.53,0
736,15.81,-11.95,44.25,0
737,15.83,-10.54,68.16,0
738,15.84,-29.15,67.6,0
739,15.85,-13.45,55.86,0
740,15.87,5.87,26.15,0
741,15.88,-11.48,57.68,0
742,15.89,-4.55,45.36,0
743,15.91,21.46,25.37,0
744,15.92,-17.86,39.74,0
745,15.93,-12.09,55.56,0
746,15.95,4.87,52.13,0
747,15.96,-9.8,36.07,0
748,15.97,-13.08,59.37,0
749,15.99,4.2,41.02,0
750,16.0,-13.5,26.94,0
751,16.01,5.47,42.69,0
752,16.03,15.33,22.55,0
753,16.04,-5.45,59.96,0
754,16.05,6.46,35.65,0
755,16.07,15.47,29.15,0
756,16.08,-20.2,14.35,0
757,16.09,3.71,31.96,0
758,16.11,16.53,33.8,1
759,16.12,-26.03,24.9,1
760,16.13,-14.48,5.76,1
761,16.15,11.31,-9.47,1
762,16.16,-63.21,38.05,1
763,16.17,-271.68,229.51,1
764,16.19,-160.61,453.55,1
765,16.2,267.97,242.33,1
766,16.21,-133.32,227.63,1
767,16.23,286.59,173.56,1
768,16.24,-217.63,82.32,1
769,16.25,-200.83,41.53,1
770,16.27,-191.82,-15.02,1
771,16.28,-140.26,-72.72,1
772,16.29,-57.09,-95.9,1
773,16.31,-23.71,-126.17,1
774,16.32,131.69,-167.02,1
775,16.33,474.61,-170.78,1
776,16.35,-131.23,-182.24,1
777,16.36,231.41,-207.15,1
778,16.37,549.74,-198.98,1
779,16.39,259.6,-196.77,1
780,16.4,173.92,-244.09,1
781,16.41,311.24,-259.09,1
782,16.42,7.92,-333.04,1
783,16.44,-10.58,-552.58,1
784,16.45,51.62,89.98,1
785,16.47,236.7,-228.58,1
786,16.48,169.26,-394.86,1
787,16.49,-122.1,-407.75,1
788,16.51,-184.77,-155.39,1
789,16.52,258.1,-164.76,1
790,16.53,-83.0,134.09,1
791,16.55,57.0,75.06,1
792,16.56,51.31,-284.26,1
793,16.57,-446.32,110.7,1
794,16.59,-121.79,142.34,1
795,16.6,-207.45,81.96,1
796,16.61,-388.39,-127.05,1
797,16.63,-139.42,122.79,1
798,16.64,-216.51,114.71,1
799,16.65,-146.08,90.77,1
800,16.67,-231.82,147.78,1
801,16.68,-182.96,250.83,1
802,16.69,213.58,113.94,1
803,16.71,-244.51,-128.74,1
804,16.72,3.11,-84.12,1
805,16.73,-323.78,172.55,1
806,16.75,-124.53,159.73,1
807,16.76,-175.9,127.2,1
808,16.77,234.39,368.74,1
809,16.79,-206.63,267.96,1
810,16.8,277.2,-31.03,1
811,16.81,244.45,57.22,1
812,16.83,-238.57,227.71,1
813,16.84,38.94,386.75,1
814,16.85,118.82,78.44,1
815,16.87,251.08,492.56,1
816,16.88,23.64,389.77,1
817,16.89,-75.75,109.43,1
818,16.91,99.02,665.46,0
819,16.92,65.59,384.45,0
820,16.93,-7.59,-76.47,0
821,16.95,413.76,1.53,0
822,16.96,-39.6,110.95,0
823,16.97,46.88,-129.75,0
824,16.99,-4.58,-6.04,0
825,17.0,-3.67,-199.18,0
826,17.01,-34.73,-279.89,0
827,17.03,-9.28,-345.12,0
828,17.04,-44.15,-286.29,0
829,17.05,0.71,-245.96,0
830,17.06,31.82,-178.67,0
831,17.08,26.81,-164.8,0
832,17.09,66.83,-121.2,0
833,17.11,106.74,-78.01,0
834,17.12,60.78,-73.74,0
835,17.13,61.92,-46.49,0
836,17.15,69.54,18.28,0
837,17.16,17.18,80.29,0
838,17.17,19.64,97.04,0
839,17.19,57.64,131.05,0
840,17.2,-12.5,150.55,0
841,17.21,11.61,134.67,0
842,17.23,17.14,142.94,0
843,17.24,-76.4,69.12,0
844,17.25,-50.89,51.88,0
845,17.27,-11.65,67.79,0
846,17.28,-35.53,27.66,0
847,17.29,-6.59,-28.95,0
848,17.31,22.62,20.4,0
849,17.32,-27.54,-17.36,0
850,17.33,-6.79,-60.41,0
851,17.35,28.77,-63.86,0
852,17.36,-22.91,-69.39,0
853,17.37,-5.63,-107.27,0
854,17.39,4.71,-99.34,0
855,17.4,-24.05,-138.14,0
856,17.41,-29.23,-128.49,0
857,17.43,-4.35,-117.59,0
858,17.44,-36.25,-133.73,0
859,17.45,-15.05,-159.56,0
860,17.47,-0.79,-120.78,0
861,17.48,-40.45,-117.68,0
862,17.49,-24.48,-164.03,0
863,17.51,0.9,-110.06,0
864,17.52,-30.46,-122.82,0
865,17.53,-17.1,-119.54,0
866,17.55,11.05,-106.8,0
867,17.56,-36.16,-77.7,0
868,17.57,-10.08,-107.71,0
869,17.59,11.02,-60.76,0
870,17.6,-11.11,-61.59,0
871,17.61,-8.27,-72.53,0
872,17.63,9.2,-18.69,0
873,17.64,-29.18,-26.09,0
874,17.65,-16.19,-44.35,0
875,17.67,4.84,14.46,0
876,17.68,-24.63,-11.15,0
877,17.69,7.77,-21.26,0
878,17.7,15.14,32.96,0
879,17.72,-20.49,40.93,0
880,17.73,7.23,16.45,0
881,17.75,12.39,50.94,0
882,17.76,-22.52,31.44,0
883,17.77,-4.73,29.24,0
884,17.79,41.32,57.63,0
885,17.8,-7.61,45.42,0
886,17.81,3.31,49.04,0
887,17.83,19.77,71.98,0
888,17.84,-15.88,77.54,0
889,17.85,-13.08,68.97,0
890,17.87,35.17,93.56,0
891,17.88,-13.52,71.72,0
892,17.89,1.62,45.72,0
893,17.91,30.21,70.16,0
894,17.92,-16.01,80.7,0
895,17.93,-4.04,60.68,0
896,17.95,25.93,47.07,0
897,17.96,-7.17,58.38,0
898,17.97,2.18,66.39,0
899,17.99,20.48,69.42,0
900,18.0,-10.77,55.97,0
901,18.01,-1.15,52.39,0
902,18.03,21.44,63.43,0
903,18.04,-37.33,45.59,0
904,18.05,-0.51,33.6,0
905,18.07,9.39,53.17,0
906,18.08,-17.2,29.97,0
907,18.09,12.04,31.2,0
908,18.11,25.46,42.81,1
909,18.12,1.51,88.08,1
910,18.13,11.14,139.99,1
911,18.15,71.51,206.74,1
912,18.16,-259.17,409.24,1
913,18.17,230.1,229.76,1
914,18.19,2.36,214.19,1
915,18.2,178.01,125.25,1
916,18.21,-19.36,58.1,1
917,18.23,206.84,24.63,1
918,18.24,-402.59,-44.32,1
919,18.25,-105.18,-86.63,1
920,18.27,39.78,-98.44,1
921,18.28,-293.44,-145.75,1
922,18.29,186.98,-169.24,1
923,18.31,-260.43,-164.42,1
924,18.32,469.96,-195.07,1
925,18.33,-152.84,-205.3,1
926,18.34,-201.78,-186.13,1
927,18.36,139.5,-206.3,1
928,18.37,-156.95,-241.43,1
929,18.39,260.91,-251.97,1
930,18.4,-13.59,-330.8,1
931,18.41,215.94,-461.84,1
932,18.43,-347.35,-82.12,1
933,18.44,129.91,-509.12,1
934,18.45,121.01,-466.14,1
935,18.47,-251.31,33.74,1
936,18.48,-213.3,-407.63,1
937,18.49,29.14,-319.04,1
938,18.51,165.33,168.9,1
939,18.52,-278.22,395.43,1
940,18.53,-34.66,270.3,1
941,18.55,101.31,232.48,1
942,18.56,88.44,-127.51,1
943,18.57,298.23,7.58,1
944,18.59,-97.18,-179.08,1
945,18.6,-112.39,118.91,1
946,18.61,-8.67,100.16,1
947,18.63,486.79,195.95,1
948,18.64,-98.0,501.39,1
949,18.65,246.13,39.23,1
950,18.67,49.06,-135.52,1
951,18.68,110.99,19.77,1
952,18.69,350.33,-129.01,1
953,18.71,-313.5,317.22,1
954,18.72,-75.33,302.82,1
955,18.73,-86.13,268.1,1
956,18.75,-29.25,223.13,1
957,18.76,-147.1,185.55,1
958,18.77,64.24,-75.34,1
959,18.79,332.2,-35.01,1
960,18.8,242.44,234.58,1
961,18.81,-48.6,95.6,1
962,18.83,145.08,231.92,1
963,18.84,-373.69,295.81,1
964,18.85,-242.61,238.65,1
965,18.87,109.95,292.15,1
966,18.88,42.79,-165.95,1
967,18.89,120.82,355.77,1
968,18.91,-212.66,-101.64,0
969,18.92,119.67,-38.0,0
970,18.93,-183.38,-121.86,0
971,18.95,113.89,-25.2,0
972,18.96,-59.91,-75.36,0
973,18.97,4.88,-35.42,0
974,18.98,-83.28,-162.7,0
975,19.0,-60.35,-207.14,0
976,19.01,-34.52,-274.92,0
977,19.025,26.58,-216.37,0
978,19.04,-53.54,-172.48,0
979,19.05,-25.29,-140.95,0
980,19.07,-79.66,-75.9,0
981,19.08,-118.62,-47.49,0
982,19.09,-117.3,-32.01,0
983,19.11,-93.15,13.71,0
984,19.12,-136.69,49.03,0
985,19.13,-113.53,81.07,0
986,19.15,-75.03,112.6,0
987,19.16,-106.86,187.62,0
988,19.17,-72.75,200.07,0
989,19.19,-36.23,198.57,0
990,19.2,-70.46,201.15,0
991,19.21,-49.0,193.29,0
992,19.23,-12.63,145.59,0
993,19.24,-40.29,141.07,0
994,19.25,-5.75,150.12,0
995,19.27,36.7,60.15,0
996,19.28,7.34,15.13,0
997,19.29,43.48,-2.88,0
998,19.31,60.85,-104.96,0
999,19.32,23.87,-29.31,0
1000,19.33,63.3,-51.14,0
1001,19.35,77.16,-106.55,0
1002,19.36,41.93,-93.68,0
1003,19.37,64.62,-109.04,0
1004,19.39,72.42,-156.98,0
1005,19.4,54.93,-157.48,0
1006,19.41,55.05,-155.94,0
1007,19.43,83.06,-170.16,0
1008,19.44,42.1,-154.47,0
1009,19.45,63.46,-133.31,0
1010,19.47,64.28,-176.29,0
1011,19.48,42.25,-129.27,0
1012,19.49,51.07,-121.88,0
1013,19.51,71.81,-146.98,0
1014,19.52,38.16,-102.88,0
1015,19.53,31.53,-100.84,0
1016,19.55,53.69,-145.59,0
1017,19.56,27.31,-88.43,0
1018,19.57,23.29,-72.66,0
1019,19.59,41.79,-105.64,0
1020,19.6,16.66,-65.62,0
1021,19.61,33.44,-48.86,0
1022,19.62,43.06,-49.13,0
1023,19.64,15.27,-39.21,0
1024,19.65,2.77,-6.68,0
1025,19.67,30.52,-24.68,0
1026,19.68,0.45,-13.7,0
1027,19.69,2.42,8.41,0
1028,19.71,18.11,-15.16,0
1029,19.72,-24.19,29.04,0
1030,19.73,-3.78,28.66,0
1031,19.75,6.39,10.41,0
1032,19.76,-12.93,37.19,0
1033,19.77,-16.51,72.3,0
1034,19.79,-6.06,16.94,0
1035,19.8,-31.38,78.87,0
1036,19.81,-13.28,74.47,0
1037,19.83,-0.41,51.45,0
1038,19.84,-39.12,99.31,0
1039,19.85,-24.69,84.97,0
1040,19.87,-5.11,30.31,0
1041,19.88,-42.63,73.28,0
1042,19.89,-23.55,66.5,0
1043,19.91,-22.57,52.54,0
1044,19.92,-31.51,98.23,0
1045,19.93,-12.21,74.33,0
1046,19.95,5.56,55.75,0
1047,19.96,-37.74,88.4,0
1048,19.97,-35.17,74.3,0
1049,19.99,-15.43,48.5,0
1050,20.0,-31.61,54.75,0
1051,20.01,-25.9,54.27,0
1052,20.03,3.09,40.42,0
1053,20.04,-46.42,44.03,0
1054,20.05,-15.83,35.09,0
1055,20.07,-12.12,17.61,0
1056,20.08,-35.49,23.21,0
1057,20.09,-0.12,86.81,0
1058,20.11,-7.78,58.38,1
1059,20.12,10.06,64.98,1
1060,20.13,-15.46,158.99,1
1061,20.15,-51.41,267.92,1
1062,20.16,-161.53,402.88,1
1063,20.17,4.28,237.55,1
1064,20.19,-257.07,200.32,1
1065,20.2,175.9,129.56,1
1066,20.21,-33.91,47.06,1
1067,20.23,400.39,-3.65,1
1068,20.24,320.25,-31.49,1
1069,20.25,36.6,-95.38,1
1070,20.26,114.19,-122.66,1
1071,20.28,-300.59,-132.09,1
1072,20.29,296.82,-176.68,1
1073,20.3,-341.03,-186.9,1
1074,20.32,258.72,-179.98,1
1075,20.33,-121.0,-208.84,1
1076,20.35,68.48,-222.44,1
1077,20.36,150.47,-213.9,1
1078,20.37,-462.8,-218.13,1
1079,20.39,181.94,-182.46,1
1080,20.4,-148.97,-370.89,1
1081,20.41,209.76,-585.1,1
1082,20.43,-437.64,-26.55,1
1083,20.44,34.2,-202.62,1
1084,20.45,109.97,-364.21,1
1085,20.47,158.83,-507.18,1
1086,20.48,-463.55,-256.18,1
1087,20.49,-62.21,-12.06,1
1088,20.51,-2.33,-37.22,1
1089,20.52,-181.74,-45.09,1
1090,20.53,111.93,-63.55,1
1091,20.55,268.65,74.17,1
1092,20.56,-247.19,435.11,1
1093,20.57,-221.13,-152.2,1
1094,20.59,88.49,64.66,1
1095,20.6,-19.42,538.92,1
1096,20.61,173.08,51.68,1
1097,20.63,-295.54,93.7,1
1098,20.64,108.07,120.64,1
1099,20.65,243.49,104.19,1
1100,20.67,360.54,162.38,1
1101,20.68,128.81,534.2,1
1102,20.69,73.85,421.3,1
1103,20.71,-246.23,79.23,1
1104,20.72,436.51,126.39,1
1105,20.73,-149.69,223.36,1
1106,20.75,369.38,-264.24,1
1107,20.76,-207.2,-26.88,1
1108,20.77,-40.3,335.46,1
1109,20.79,-22.57,304.05,1
1110,20.8,23.92,82.71,1
1111,20.81,-228.58,-23.45,1
1112,20.83,290.7,-205.97,1
1113,20.84,-6.55,155.3,1
1114,20.85,183.94,-44.97,1
1115,20.87,1.04,335.27,1
1116,20.88,37.72,-133.32,1
1117,20.89,222.4,83.43,1
1118,20.9,-9.54,-52.75,1
1119,20.92,-123.16,62.87,0
1120,20.93,-28.56,-70.84,0
1121,20.94,-107.57,-1.12,0
1122,20.96,-152.49,-88.76,0
1123,20.97,-189.74,-79.27,0
1124,20.99,-110.96,-149.15,0
1125,21.0,-88.99,-154.0,0
1126,21.01,-49.52,-77.12,0
1127,21.03,-95.9,-98.05,0
1128,21.04,-39.04,17.78,0
1129,21.05,-74.55,88.54,0
1130,21.07,-124.19,55.5,0
1131,21.08,-54.0,83.09,0
1132,21.09,-48.41,36.06,0
1133,21.11,39.4,-2.09,0
1134,21.12,-50.17,17.5,0
1135,21.13,2.11,79.45,0
1136,21.15,0.05,76.87,0
1137,21.16,9.48,102.05,0
1138,21.17,20.98,124.12,0
1139,21.19,28.08,111.89,0
1140,21.2,25.24,127.59,0
1141,21.21,11.83,122.96,0
1142,21.23,45.74,108.98,0
1143,21.24,32.61,72.45,0
1144,21.25,14.47,35.39,0
1145,21.27,46.37,-9.11,0
1146,21.28,32.69,-10.35,0
1147,21.29,9.97,-55.3,0
1148,21.31,33.69,-106.98,0
1149,21.32,29.36,-133.33,0
1150,21.33,-4.14,-182.11,0
1151,21.35,30.73,-164.53,0
1152,21.36,40.33,-133.38,0
1153,21.37,30.67,-102.09,0
1154,21.39,41.73,-100.37,0
1155,21.4,27.48,-125.05,0
1156,21.41,20.2,-100.41,0
1157,21.43,20.89,-104.32,0
1158,21.44,32.49,-116.0,0
1159,21.45,22.65,-129.13,0
1160,21.47,31.91,-101.16,0
1161,21.48,10.02,-97.98,0
1162,21.49,-4.61,-102.13,0
1163,21.51,9.53,-99.64,0
1164,21.52,9.55,-97.8,0
1165,21.53,3.21,-98.88,0
1166,21.54,4.23,-109.79,0
1167,21.56,19.92,-95.73,0
1168,21.57,8.33,-49.69,0
1169,21.58,16.55,-54.5,0
1170,21.6,10.85,-31.09,0
1171,21.61,-13.34,-40.67,0
1172,21.63,7.7,-12.05,0
1173,21.64,6.91,-31.75,0
1174,21.65,-6.0,-2.7,0
1175,21.67,0.17,-21.93,0
1176,21.68,13.56,2.15,0
1177,21.69,-18.61,-0.94,0
1178,21.71,-11.61,18.46,0
1179,21.72,1.93,15.03,0
1180,21.73,-23.74,36.74,0
1181,21.75,-3.47,55.62,0
1182,21.76,-4.34,46.46,0
1183,21.77,-25.28,35.05,0
1184,21.79,-12.01,39.96,0
1185,21.8,-6.92,47.84,0
1186,21.81,-25.75,42.88,0
1187,21.83,-8.84,52.9,0
1188,21.84,-1.81,85.72,0
1189,21.85,-19.54,38.83,0
1190,21.87,-3.93,54.93,0
1191,21.88,0.2,74.32,0
1192,21.89,-28.13,63.45,0
1193,21.91,-25.62,79.14,0
1194,21.92,-13.54,53.01,0
1195,21.93,-28.6,66.63,0
1196,21.95,-7.09,67.76,0
1197,21.96,6.35,54.66,0
1198,21.97,-26.8,70.5,0
1199,21.99,-17.68,66.97,0
1200,22.0,0.3,60.53,0
1201,22.01,-24.13,47.56,0
1202,22.03,-2.36,45.11,0
1203,22.04,11.34,42.93,0
1204,22.05,-24.48,22.6,0
1205,22.07,-9.45,38.54,0
1206,22.08,-1.45,16.72,0
1207,22.09,-7.76,25.34,0
1208,22.11,1.59,48.04,1
1209,22.12,5.73,45.76,1
1210,22.13,-11.87,80.62,1
1211,22.15,2.81,203.01,1
1212,22.16,-39.76,338.33,1
1213,22.17,-43.94,311.23,1
1214,22.18,-49.29,209.33,1
1215,22.2,310.86,160.59,1
1216,22.21,-284.74,82.76,1
1217,22.22,407.04,14.8,1
1218,22.24,-298.47,-15.79,1
1219,22.25,-174.99,-64.87,1
1220,22.26,-120.76,-112.36,1
1221,22.28,131.54,-124.39,1
1222,22.29,-48.83,-152.54,1
1223,22.31,-56.87,-182.2,1
1224,22.32,-164.5,-177.93,1
1225,22.33,89.14,-190.93,1
1226,22.35,-111.48,-207.98,1
1227,22.36,183.99,-192.43,1
1228,22.37,-38.61,-194.55,1
1229,22.39,534.56,-202.66,1
1230,22.4,157.44,-300.73,1
1231,22.41,362.79,-466.84,1
1232,22.43,-14.53,-405.72,1
1233,22.44,116.91,-422.12,1
1234,22.45,-32.44,-75.21,1
1235,22.47,18.58,-325.58,1
1236,22.48,-260.31,-177.67,1
1237,22.49,320.36,-74.39,1
1238,22.51,-296.17,89.52,1
1239,22.52,-100.61,31.55,1
1240,22.53,64.22,-189.06,1
1241,22.55,-91.72,52.56,1
1242,22.56,267.79,121.24,1
1243,22.57,-223.82,155.85,1
1244,22.59,-91.87,259.58,1
1245,22.6,42.17,-3.54,1
1246,22.61,-469.16,42.91,1
1247,22.63,25.44,343.18,1
1248,22.64,-414.08,-180.5,1
1249,22.65,-237.21,417.92,1
1250,22.67,-220.75,108.95,1
1251,22.68,298.72,167.87,1
1252,22.69,60.93,93.3,1
1253,22.71,159.22,421.85,1
1254,22.72,-54.28,121.0,1
1255,22.73,105.35,88.36,1
1256,22.75,11.43,251.29,1
1257,22.76,329.67,121.89,1
1258,22.77,341.34,-68.54,1
1259,22.79,-22.79,-114.52,1
1260,22.8,-103.53,-156.56,1
1261,22.81,-215.51,137.9,1
1262,22.82,-21.17,607.96,1
1263,22.84,-289.46,299.34,1
1264,22.85,19.51,429.04,1
1265,22.86,232.42,-76.74,1
1266,22.88,7.55,-248.05,1
1267,22.89,312.8,-59.62,1
1268,22.9,-172.6,-75.34,1
1269,22.92,79.18,-61.86,0
1270,22.93,257.96,219.66,0
1271,22.95,-372.88,-408.56,0
1272,22.96,195.09,141.18,0
1273,22.97,-93.96,2.65,0
1274,22.99,-90.05,148.28,0
1275,23.0,183.73,67.77,0
1276,23.01,-21.42,-16.22,0
1277,23.03,78.77,31.85,0
1278,23.04,42.76,-100.63,0
1279,23.05,50.06,-66.76,0
1280,23.07,47.22,-151.58,0
1281,23.08,70.8,-265.67,0
1282,23.09,-14.37,-260.58,0
1283,23.11,-13.06,-221.12,0
1284,23.12,-12.71,-164.0,0
1285,23.13,-56.37,-103.25,0
1286,23.15,-36.93,-83.85,0
1287,23.16,-6.21,-40.94,0
1288,23.17,-65.18,1.12,0
1289,23.19,-46.52,9.92,0
1290,23.2,-44.08,61.57,0
1291,23.21,-81.28,129.7,0
1292,23.23,-60.01,195.24,0
1293,23.24,-39.15,168.02,0
1294,23.25,-76.03,198.75,0
1295,23.27,-62.1,213.04,0
1296,23.28,-39.51,184.75,0
1297,23.29,-72.7,185.73,0
1298,23.31,-37.79,166.52,0
1299,23.32,6.71,84.08,0
1300,23.33,-33.51,80.76,0
1301,23.35,-17.25,78.02,0
1302,23.36,-2.94,-0.93,0
1303,23.37,-33.74,23.57,0
1304,23.39,-25.73,-26.05,0
1305,23.4,18.96,-97.32,0
1306,23.41,-5.91,-46.55,0
1307,23.43,9.39,-74.45,0
1308,23.44,45.23,-137.02,0
1309,23.45,-4.29,-102.06,0
1310,23.46,6.78,-101.39,0
1311,23.48,38.15,-163.61,0
1312,23.49,6.89,-118.23,0
1313,23.5,28.68,-128.5,0
1314,23.52,46.86,-144.26,0
1315,23.53,7.98,-137.52,0
1316,23.54,17.21,-120.05,0
1317,23.56,47.59,-144.22,0
1318,23.57,0.91,-98.84,0
1319,23.59,31.73,-108.44,0
1320,23.6,48.21,-125.02,0
1321,23.61,1.81,-108.66,0
1322,23.63,18.34,-108.57,0
1323,23.64,46.92,-116.25,0
1324,23.65,13.2,-76.18,0
1325,23.67,20.16,-50.16,0
1326,23.68,43.06,-90.0,0
1327,23.69,0.47,-43.93,0
1328,23.71,21.57,-6.37,0
1329,23.72,44.7,-55.01,0
1330,23.73,-1.34,-7.65,0
1331,23.75,5.44,-1.58,0
1332,23.76,14.52,-32.65,0
1333,23.77,-10.74,20.59,0
1334,23.79,15.04,35.44,0
1335,23.8,27.44,3.94,0
1336,23.81,-28.71,41.95,0
1337,23.83,-3.99,23.76,0
1338,23.84,26.22,21.88,0
1339,23.85,-9.01,51.03,0
1340,23.87,-3.83,48.09,0
1341,23.88,36.79,43.77,0
1342,23.89,-1.26,60.5,0
1343,23.91,1.62,75.4,0
1344,23.92,16.37,41.88,0
1345,23.93,-11.71,91.53,0
1346,23.95,-12.36,55.42,0
1347,23.96,13.36,53.56,0
1348,23.97,-32.52,92.03,0
1349,23.99,-0.77,77.9,0
1350,24.0,9.19,48.65,0
1351,24.01,-33.6,64.19,0
1352,24.03,-22.24,76.39,0
1353,24.04,2.91,46.77,0
1354,24.05,-28.69,80.99,0
1355,24.07,-3.25,63.91,0
1356,24.08,5.72,37.52,0
1357,24.09,-41.18,45.2,0
1358,24.1,-10.05,42.87,1
1359,24.12,9.38,23.56,1
1360,24.13,-27.19,34.07,1
1361,24.14,-16.99,35.11,1
1362,24.16,2.11,98.08,1
1363,24.17,-66.48,206.92,1
1364,24.18,-248.63,183.58,1
1365,24.2,-123.7,288.08,1
1366,24.21,417.51,321.74,1
1367,24.225,-11.32,199.84,1
1368,24.24,-256.83,140.24,1
1369,24.25,31.86,91.96,1
1370,24.27,-216.63,16.44,1
1371,24.28,416.03,-34.57,1
1372,24.29,213.75,-53.37,1
1373,24.31,-263.66,-109.44,1
1374,24.32,-117.75,-136.41,1
1375,24.33,261.44,-137.52,1
1376,24.35,-288.14,-175.62,1
1377,24.36,452.66,-188.57,1
1378,24.37,144.12,-175.27,1
1379,24.39,124.42,-214.8,1
1380,24.4,-389.38,-280.64,1
1381,24.41,-258.39,-375.87,1
1382,24.43,66.85,-355.34,1
1383,24.44,209.6,-247.04,1
1384,24.45,289.38,-424.56,1
1385,24.47,-50.94,-313.36,1
1386,24.48,240.56,-563.47,1
1387,24.49,-451.16,-195.32,1
1388,24.51,-59.38,-381.75,1
1389,24.52,-273.82,-21.46,1
1390,24.53,209.27,65.08,1
1391,24.55,-78.87,99.9,1
1392,24.56,107.22,-329.42,1
1393,24.57,-300.64,359.35,1
1394,24.59,376.64,298.16,1
1395,24.6,16.27,432.15,1
1396,24.61,281.84,116.76,1
1397,24.63,-130.42,-43.38,1
1398,24.64,-429.24,109.52,1
1399,24.65,-106.47,644.33,1
1400,24.67,237.79,123.61,1
1401,24.68,197.33,228.66,1
1402,24.69,-37.03,220.18,1
1403,24.71,-13.22,224.04,1
1404,24.72,-172.81,-190.72,1
1405,24.73,-264.05,-29.66,1
1406,24.75,-42.69,193.95,1
1407,24.76,237.89,190.91,1
1408,24.77,-212.16,146.25,1
1409,24.78,-77.22,1.33,1
1410,24.8,-130.7,187.58,1
1411,24.81,-52.85,-63.28,1
1412,24.82,39.67,-24.63,1
1413,24.84,52.27,-131.11,1
1414,24.85,78.37,-165.69,1
1415,24.86,75.78,-66.76,1
1416,24.88,115.68,-103.42,1
1417,24.89,36.67,2.14,1
1418,24.91,26.11,54.55,0
1419,24.92,27.17,114.96,0
1420,24.93,-11.92,134.93,0
1421,24.95,-0.3,184.28,0
1422,24.96,-10.4,183.25,0
1423,24.97,-47.43,130.26,0
1424,24.99,5.12,152.59,0
1425,25.0,12.18,159.93,0
1426,25.01,-9.97,103.34,0
1427,25.03,21.7,70.25,0
1428,25.04,57.71,64.09,0
1429,25.05,3.51,39.34,0
1430,25.07,75.92,64.35,0
1431,25.08,54.74,121.07,0
1432,25.09,10.29,149.54,0
1433,25.11,13.01,142.67,0
1434,25.12,46.46,91.14,0
1435,25.13,-18.14,71.34,0
1436,25.15,-8.06,52.19,0
1437,25.16,16.88,32.42,0
1438,25.17,-26.49,-46.6,0
1439,25.19,7.03,-63.0,0
1440,25.2,6.64,-83.64,0
1441,25.21,-17.62,-115.42,0
1442,25.23,13.75,-126.19,0
1443,25.24,32.98,-127.66,0
1444,25.25,6.33,-165.23,0
1445,25.27,12.35,-174.56,0
1446,25.28,23.92,-147.01,0
1447,25.29,-13.92,-212.02,0
1448,25.31,14.18,-181.45,0
1449,25.32,24.17,-171.75,0
1450,25.33,-19.44,-197.06,0
1451,25.35,16.62,-178.44,0
1452,25.36,29.2,-156.44,0
1453,25.37,-20.99,-163.27,0
1454,25.38,-4.53,-170.28,0
1455,25.4,2.81,-114.73,0
1456,25.41,-21.54,-119.59,0
1457,25.42,-13.58,-107.13,0
1458,25.44,7.43,-81.52,0
1459,25.45,-25.41,-99.99,0
1460,25.46,-1.97,-103.33,0
1461,25.48,25.15,-63.94,0
1462,25.49,-29.46,-79.66,0
1463,25.5,10.17,-65.98,0
1464,25.52,-6.22,-16.73,0
1465,25.53,-28.91,-48.41,0
1466,25.55,1.77,0.7,0
1467,25.56,2.61,18.72,0
1468,25.57,-30.27,-15.71,0
1469,25.59,-5.94,19.77,0
1470,25.6,19.5,21.71,0
1471,25.61,-22.95,-5.4,0
1472,25.63,-13.19,20.09,0
1473,25.64,1.49,62.49,0
1474,25.65,-20.12,43.46,0
1475,25.67,-8.18,69.59,0
1476,25.68,11.49,69.89,0
1477,25.69,-39.85,43.52,0
1478,25.71,-8.53,56.92,0
1479,25.72,-4.31,71.0,0
1480,25.73,-18.15,44.44,0
1481,25.75,9.21,85.11,0
1482,25.76,14.55,74.54,0
1483,25.77,-26.43,56.47,0
1484,25.79,-1.0,71.38,0
1485,25.8,17.16,97.83,0
1486,25.81,-23.72,49.9,0
1487,25.83,-1.62,68.2,0
1488,25.84,18.02,104.67,0
1489,25.85,-28.41,45.66,0
1490,25.87,-3.25,80.24,0
1491,25.88,8.59,89.54,0
1492,25.89,-22.26,47.21,0
1493,25.91,-5.05,54.75,0
1494,25.92,23.81,73.69,0
1495,25.93,-24.08,30.44,0
1496,25.95,5.47,54.0,0
1497,25.96,18.06,53.97,0
1498,25.97,-12.66,8.52,0
1499,25.99,7.46,52.88,0
1500,26.0,16.03,52.35,0
1501,26.01,-20.63,-16.46,0
1502,26.02,6.9,23.46,0
1503,26.04,15.11,34.17,0
1504,26.05,-21.69,-23.08,0
1505,26.06,-0.75,16.0,0
1506,26.08,17.03,16.42,0
1507,26.09,-7.27,-18.07,0
1508,26.1,2.22,12.49,1
1509,26.12,8.27,47.21,1
1510,26.13,2.52,-9.49,1
1511,26.14,1.21,154.67,1
1512,26.16,126.08,270.17,1
1513,26.17,-218.27,77.72,1
1514,26.19,-273.2,316.21,1
1515,26.2,44.05,164.23,1
1516,26.21,24.86,140.44,1
1517,26.23,155.9,77.58,1
1518,26.24,47.04,3.24,1
1519,26.25,232.72,-40.09,1
1520,26.27,-362.64,-65.1,1
1521,26.28,-36.56,-121.79,1
1522,26.29,63.68,-143.36,1
1523,26.31,258.31,-148.91,1
1524,26.32,58.13,-188.38,1
1525,26.33,75.66,-192.96,1
1526,26.35,329.09,-182.32,1
1527,26.36,-48.58,-210.2,1
1528,26.37,37.35,-202.88,1
1529,26.39,-163.17,-182.04,1
1530,26.4,77.3,-201.23,1
1531,26.41,229.66,-277.29,1
1532,26.43,62.77,-418.39,1
1533,26.44,-94.14,-286.97,1
1534,26.45,-64.77,-188.46,1
1535,26.47,-234.98,-313.07,1
1536,26.48,-391.04,-190.16,1
1537,26.49,-159.19,-520.16,1
1538,26.51,-281.05,-194.36,1
1539,26.52,347.32,-122.47,1
1540,26.53,-159.75,319.05,1
1541,26.55,470.79,-153.57,1
1542,26.56,37.36,111.79,1
1543,26.57,44.67,238.05,1
1544,26.59,185.33,-293.01,1
1545,26.6,-211.45,-122.69,1
1546,26.61,-124.75,50.05,1
1547,26.63,-65.59,340.89,1
1548,26.64,-316.31,300.09,1
1549,26.65,177.64,331.05,1
1550,26.67,273.71,414.86,1
1551,26.68,36.42,292.21,1
1552,26.69,31.03,310.88,1
1553,26.7,-78.47,611.95,1
1554,26.72,225.86,160.75,1
1555,26.73,-382.3,30.53,1
1556,26.75,-85.66,320.84,1
1557,26.76,37.48,34.13,1
1558,26.77,275.21,343.98,1
1559,26.78,-45.85,-127.12,1
1560,26.8,101.49,-180.07,1
1561,26.81,104.29,-199.22,1
1562,26.825,-312.28,-18.85,1
1563,26.84,124.99,-66.26,1
1564,26.85,-442.59,406.69,1
1565,26.87,144.36,367.64,1
1566,26.88,13.64,265.02,1
1567,26.89,251.58,-102.29,1
1568,26.91,1.97,-228.0,0
1569,26.92,-214.0,-184.49,0
1570,26.93,-177.7,14.7,0
1571,26.95,42.07,-12.83,0
1572,26.96,167.07,-89.15,0
1573,26.97,-122.42,-155.98,0
1574,26.99,-44.98,-175.88,0
1575,27.0,-66.69,-313.86,0
1576,27.01,-64.83,-142.93,0
1577,27.03,-60.02,-225.95,0
1578,27.04,16.03,-130.24,0
1579,27.05,21.72,-110.17,0
1580,27.07,-19.32,-23.27,0
1581,27.08,14.99,-15.26,0
1582,27.09,-21.9,20.41,0
1583,27.11,-12.85,71.58,0
1584,27.12,19.96,84.54,0
1585,27.13,20.29,138.23,0
1586,27.15,15.98,232.68,0
1587,27.16,29.03,266.18,0
1588,27.17,-5.86,250.02,0
1589,27.19,3.21,282.53,0
1590,27.2,30.54,248.24,0
1591,27.21,28.18,205.37,0
1592,27.23,29.49,158.34,0
1593,27.24,43.55,145.03,0
1594,27.25,36.42,91.83,0
1595,27.27,38.41,77.7,0
1596,27.28,56.3,51.44,0
1597,27.29,34.5,6.8,0
1598,27.3,24.95,-44.33,0
1599,27.32,40.84,-43.77,0
1600,27.33,29.79,-90.39,0
1601,27.34,37.52,-93.78,0
1602,27.36,42.26,-114.27,0
1603,27.37,38.07,-133.91,0
1604,27.38,27.39,-158.79,0
1605,27.4,22.9,-148.89,0
1606,27.41,11.31,-173.88,0
1607,27.42,22.95,-144.84,0
1608,27.44,36.63,-147.31,0
1609,27.45,23.24,-165.66,0
1610,27.46,12.04,-181.05,0
1611,27.48,25.57,-156.68,0
1612,27.49,26.79,-130.62,0
1613,27.51,3.96,-139.82,0
1614,27.52,-1.4,-111.67,0
1615,27.53,0.55,-116.49,0
1616,27.55,-14.56,-109.0,0
1617,27.56,1.45,-122.63,0
1618,27.57,7.51,-102.17,0
1619,27.59,-21.55,-108.91,0
1620,27.6,-2.55,-88.63,0
1621,27.61,-13.81,-75.86,0
1622,27.63,-23.94,-45.79,0
1623,27.64,-9.55,-58.52,0
1624,27.65,1.41,-44.5,0
1625,27.67,-26.19,-29.98,0
1626,27.68,-10.0,-12.23,0
1627,27.69,-18.59,-18.76,0
1628,27.71,-24.88,-17.49,0
1629,27.72,-24.35,-15.8,0
1630,27.73,-23.58,40.1,0
1631,27.75,-43.02,21.5,0
1632,27.76,-27.36,40.97,0
1633,27.77,-23.3,67.32,0
1634,27.79,-17.87,56.76,0
1635,27.8,-10.33,59.16,0
1636,27.81,-1.56,68.62,0
1637,27.83,-38.19,46.94,0
1638,27.84,-15.39,73.35,0
1639,27.85,-9.88,76.38,0
1640,27.87,-17.25,39.57,0
1641,27.88,-6.19,77.96,0
1642,27.89,-12.15,69.62,0
1643,27.91,-17.97,52.74,0
1644,27.92,-10.94,31.45,0
1645,27.93,-0.16,61.83,0
1646,27.94,-27.07,70.96,0
1647,27.96,1.41,69.15,0
1648,27.97,2.31,77.21,0
1649,27.98,-15.09,48.16,0
1650,28.0,-4.69,69.03,0
1651,28.01,0.85,65.81,0
1652,28.02,-14.65,42.48,0
1653,28.04,-13.29,29.8,0
1654,28.05,-18.4,59.74,0
1655,28.06,-25.58,21.44,0
1656,28.08,0.94,49.66,0
1657,28.09,10.98,81.61,0
1658,28.1,9.4,66.08,1
1659,28.12,7.84,51.54,1
1660,28.13,-0.06,131.88,1
1661,28.15,-37.95,211.61,1
1662,28.16,-187.15,414.88,1
1663,28.17,-191.94,78.58,1
1664,28.19,-256.99,29.16,1
1665,28.2,-94.59,291.46,1
1666,28.21,495.94,100.76,1
1667,28.23,-142.56,118.92,1
1668,28.24,475.37,23.83,1
1669,28.25,93.01,-24.19,1
1670,28.27,373.93,-52.66,1
1671,28.28,-354.91,-96.99,1
1672,28.29,282.44,-136.88,1
1673,28.31,284.54,-139.64,1
1674,28.32,256.37,-167.36,1
1675,28.33,223.75,-191.68,1
1676,28.35,-176.79,-193.32,1
1677,28.36,-457.89,-239.27,1
1678,28.37,-68.37,-402.99,1
1679,28.39,-236.7,-689.39,1
1680,28.4,232.43,-154.21,1
1681,28.41,-423.9,-390.22,1
1682,28.43,262.01,-308.78,1
1683,28.44,-13.85,-222.99,1
1684,28.45,-224.44,-194.32,1
1685,28.47,145.89,-524.7,1
1686,28.48,59.68,-95.21,1
1687,28.49,-37.68,-99.23,1
1688,28.51,-183.14,-345.89,1
1689,28.52,-326.58,-67.0,1
1690,28.53,28.28,-62.36,1
1691,28.55,-301.11,315.8,1
1692,28.56,211.38,137.88,1
1693,28.57,-32.18,492.02,1
1694,28.58,106.8,400.78,1
1695,28.6,154.58,639.0,1
1696,28.61,-92.56,377.03,1
1697,28.62,-76.57,186.28,1
1698,28.64,161.01,99.84,1
1699,28.65,-235.14,471.98,1
1700,28.67,159.24,358.7,1
1701,28.68,-103.34,202.48,1
1702,28.69,314.21,319.06,1
1703,28.7,400.6,-10.46,1
1704,28.72,212.29,334.12,1
1705,28.73,288.38,-137.27,1
1706,28.75,153.84,113.91,1
1707,28.76,52.28,49.65,1
1708,28.77,172.35,-316.46,1
1709,28.79,-41.77,-221.71,1
1710,28.8,-69.5,281.23,1
1711,28.81,-251.0,-404.24,1
1712,28.83,-195.85,122.21,1
1713,28.84,-517.55,244.74,1
1714,28.85,10.03,62.81,1
1715,28.87,131.2,302.87,1
1716,28.88,-140.92,6.1,1
1717,28.89,-154.17,-189.0,1
1718,28.91,-243.36,-175.51,0
1719,28.92,26.4,18.05,0
1720,28.93,-359.24,-225.32,0
1721,28.95,-17.78,-28.59,0
1722,28.96,-259.8,-342.67,0
1723,28.97,-177.48,-152.66,0
1724,28.99,-117.47,-341.64,0
1725,29.0,205.45,-208.84,0
1726,29.01,207.76,-146.78,0
1727,29.03,-7.45,-283.6,0
1728,29.04,117.87,-316.46,0
1729,29.05,152.91,-271.66,0
1730,29.07,81.15,-254.95,0
1731,29.08,104.38,-138.4,0
1732,29.09,145.1,-82.95,0
1733,29.11,70.26,18.02,0
1734,29.12,81.19,89.9,0
1735,29.13,78.93,155.85,0
1736,29.15,54.59,124.96,0
1737,29.16,52.5,191.86,0
1738,29.17,48.18,221.68,0
1739,29.19,12.54,177.71,0
1740,29.2,31.01,256.26,0
1741,29.21,30.15,304.77,0
1742,29.22,-18.2,248.06,0
1743,29.24,-7.65,267.41,0
1744,29.25,31.61,306.59,0
1745,29.26,-18.13,220.86,0
1746,29.28,0.75,226.46,0
1747,29.29,21.72,219.67,0
1748,29.3,-11.08,123.86,0
1749,29.32,-9.5,106.56,0
1750,29.33,17.23,116.09,0
1751,29.34,-12.32,25.71,0
1752,29.36,-11.28,14.58,0
1753,29.37,1.39,-2.29,0
1754,29.38,-36.5,-61.81,0
1755,29.4,-13.84,-44.55,0
1756,29.41,2.8,-31.92,0
1757,29.42,-23.54,-134.14,0
1758,29.44,-18.01,-110.83,0
1759,29.45,-2.96,-52.2,0
1760,29.47,-51.54,-134.07,0
1761,29.48,-34.2,-118.29,0
1762,29.49,-68.28,-100.04,0
1763,29.51,-105.31,-154.61,0
1764,29.52,-46.77,-130.44,0
1765,29.53,1.06,-95.14,0
1766,29.55,-24.16,-158.8,0
1767,29.56,4.68,-131.13,0
1768,29.57,41.24,-95.29,0
1769,29.59,3.95,-165.88,0
1770,29.6,10.79,-119.44,0
1771,29.61,56.54,-73.14,0
1772,29.63,5.56,-123.62,0
1773,29.64,19.07,-104.79,0
1774,29.65,32.2,-62.79,0
1775,29.67,-8.18,-106.1,0
1776,29.68,3.83,-59.23,0
1777,29.69,28.0,-76.35,0
1778,29.71,-11.47,-81.66,0
1779,29.72,3.46,-44.78,0
1780,29.73,32.83,-46.12,0
1781,29.75,-23.54,-59.06,0
1782,29.76,-6.98,-14.1,0
1783,29.77,17.36,23.79,0
1784,29.79,-13.55,-17.36,0
1785,29.8,-2.29,9.16,0
1786,29.81,28.05,25.09,0
1787,29.83,-31.0,13.52,0
1788,29.84,-20.94,16.18,0
1789,29.85,9.96,23.0,0
1790,29.86,-29.94,9.35,0
1791,29.88,-11.25,55.73,0
1792,29.89,19.18,12.22,0
1793,29.9,-13.71,45.35,0
1794,29.92,4.91,51.76,0
1795,29.93,18.71,93.67,0
1796,29.94,-17.27,27.47,0
1797,29.96,-10.22,31.11,0
1798,29.97,1.92,50.92,0
1799,29.98,-17.33,60.63,0
1800,30.0,-10.25,73.0,0
