,Unnamed: 0,Timestamp,Data1,Data2,Label
0,0,6.0,-3.24,14.82,0
1,1,6.01,3.42,6.03,0
2,2,6.03,-9.61,-15.13,0
3,3,6.04,-30.66,-13.4,0
4,4,6.05,-24.82,6.99,0
5,5,6.07,-0.43,12.05,0
6,6,6.08,9.77,2.44,0
7,7,6.09,5.9,0.31,0
8,8,6.11,9.1,3.93,0
9,9,6.12,18.9,-0.07,0
10,10,6.13,16.03,-6.51,0
11,11,6.15,5.6,-5.74,0
12,12,6.16,3.94,-3.3,0
13,13,6.17,-0.58,-5.67,0
14,14,6.19,-10.02,-8.52,0
15,15,6.2,-3.81,-22.31,0
16,16,6.21,19.18,-51.57,0
17,17,6.23,36.97,-21.9,0
18,18,6.24,22.36,112.39,0
19,19,6.25,-20.05,220.37,0
20,20,6.265,-43.22,155.84,0
21,21,6.28,-24.02,-1.61,0
22,22,6.29,6.8,-36.22,0
23,23,6.31,18.28,69.54,0
24,24,6.32,18.32,110.46,0
25,25,6.33,15.83,11.63,0
26,26,6.35,-2.21,-63.57,0
27,27,6.36,-19.51,-15.67,0
28,28,6.37,-2.18,35.33,0
29,29,6.39,27.06,21.38,0
30,30,6.4,14.95,41.2,0
31,31,6.41,-20.81,68.41,0
32,32,6.43,-16.82,-12.9,0
33,33,6.44,14.96,-62.01,0
34,34,6.45,13.23,45.56,0
35,35,6.47,-13.93,78.21,0
36,36,6.48,-8.86,-54.26,0
37,37,6.49,26.6,-106.21,0
38,38,6.51,35.36,-6.82,0
39,39,6.52,6.73,69.63,0
40,40,6.53,-16.72,26.28,0
41,41,6.55,-21.04,-47.86,0
42,42,6.56,-20.83,-49.58,0
43,43,6.57,-10.8,-28.87,0
44,44,6.59,10.44,-58.72,0
45,45,6.6,19.61,-95.56,0
46,46,6.61,14.08,-73.84,0
47,47,6.63,17.1,-14.63,0
48,48,6.64,26.76,2.57,0
49,49,6.65,21.88,-57.08,0
50,50,6.67,6.17,-127.39,0
51,51,6.68,-5.15,-105.63,0
52,52,6.69,-9.69,-22.45,0
53,53,6.71,-8.38,-17.35,0
54,54,6.72,-6.84,-63.58,0
55,55,6.73,-10.53,-37.08,0
56,56,6.75,-5.65,12.5,0
57,57,6.76,15.65,4.93,0
58,58,6.77,29.62,-18.53,0
59,59,6.79,15.36,-16.87,0
60,60,6.8,-5.62,-2.88,0
61,61,6.81,-1.6,-12.76,0
62,62,6.82,5.86,-48.44,0
63,63,6.84,-17.48,-60.62,0
64,64,6.85,-44.33,-31.71,0
65,65,6.86,-37.3,-10.84,0
66,66,6.88,-11.93,-36.46,0
67,67,6.89,1.25,-74.99,0
68,68,6.91,-7.6,-65.36,0
69,69,6.92,-30.07,-7.1,0
70,70,6.93,-36.71,20.23,0
71,71,6.95,-18.33,-7.07,0
72,72,6.96,-5.98,-17.79,0
73,73,6.97,1.1,-15.06,0
74,74,6.99,20.98,-19.96,0
75,75,7.0,27.41,7.68,0
76,76,7.01,10.22,22.08,0
77,77,7.03,-4.59,-11.25,0
78,78,7.04,-12.0,-32.47,0
79,79,7.05,-18.38,-45.21,0
80,80,7.07,-25.47,-54.13,0
81,81,7.08,-26.08,-22.97,0
82,82,7.09,-6.34,11.53,0
83,83,7.11,10.96,9.14,0
84,84,7.12,-3.63,-14.76,0
85,85,7.13,-24.12,-27.62,0
86,86,7.15,-16.93,-0.47,0
87,87,7.16,5.19,37.22,0
88,88,7.17,15.59,40.28,0
89,89,7.19,14.33,38.06,0
90,90,7.2,17.03,62.05,0
91,91,7.21,20.05,69.24,0
92,92,7.23,11.38,23.08,0
93,93,7.24,0.39,-30.46,0
94,94,7.25,0.71,-30.27,0
95,95,7.27,9.61,12.54,0
96,96,7.28,14.16,52.32,0
97,97,7.29,11.85,70.72,0
98,98,7.31,12.19,54.94,0
99,99,7.32,12.0,25.8,0
100,100,7.33,7.3,33.25,0
101,101,7.35,10.16,42.8,0
102,102,7.36,20.29,-2.34,0
103,103,7.37,17.36,-42.03,0
104,104,7.39,2.36,-8.17,0
105,105,7.4,-0.18,60.31,0
106,106,7.41,12.04,104.59,0
107,107,7.43,14.05,105.62,0
108,108,7.44,-7.05,70.55,0
109,109,7.45,-27.12,34.84,0
110,110,7.47,-18.9,38.16,0
111,111,7.48,-4.43,60.54,0
112,112,7.49,-14.55,22.55,0
113,113,7.51,-31.27,-70.24,0
114,114,7.52,-24.37,-92.34,0
115,115,7.53,-2.29,-17.17,0
116,116,7.55,4.4,32.57,0
117,117,7.56,-2.75,10.88,0
118,118,7.57,-2.49,-23.38,0
119,119,7.59,-6.89,-50.14,0
120,120,7.6,-15.58,-54.27,0
121,121,7.61,1.78,1.91,0
122,122,7.63,22.72,75.27,0
123,123,7.64,9.39,85.0,0
124,124,7.65,-3.58,40.0,0
125,125,7.67,14.48,-1.41,0
126,126,7.68,25.21,-4.82,0
127,127,7.69,6.79,16.19,0
128,128,7.71,-8.46,16.93,0
129,129,7.72,-3.29,14.18,0
130,130,7.73,5.17,53.22,0
131,131,7.75,5.46,103.86,0
132,132,7.76,2.78,105.25,0
133,133,7.77,7.16,46.84,0
134,134,7.79,16.89,-12.7,0
135,135,7.8,9.13,-9.61,0
136,136,7.81,-15.47,28.21,0
137,137,7.83,-19.54,28.73,0
138,138,7.84,-5.6,6.5,0
139,139,7.85,-8.74,20.94,0
140,140,7.87,-16.83,37.3,0
141,141,7.88,-4.14,-2.46,0
142,142,7.89,13.33,-32.63,0
143,143,7.91,16.11,-1.04,0
144,144,7.92,12.33,10.44,0
145,145,7.93,8.5,-19.27,0
146,146,7.95,3.68,-10.41,0
147,147,7.96,6.37,26.98,0
148,148,7.97,9.06,22.92,0
149,149,7.99,-1.6,-19.33,0
150,150,8.0,-3.45,-39.63,0
151,151,8.01,9.81,-9.58,0
152,152,8.03,1.63,24.04,0
153,153,8.04,-25.5,4.73,0
154,154,8.05,-29.91,-34.49,0
155,155,8.07,-7.25,-22.63,0
156,156,8.08,12.38,8.75,0
157,157,8.09,7.07,-3.7,0
158,158,8.1,-9.37,-21.72,0
159,159,8.12,-1.38,-4.32,0
160,160,8.13,21.46,2.75,0
161,161,8.15,13.25,-26.4,0
162,162,8.16,-12.1,-38.11,0
163,163,8.17,-6.0,-7.36,0
164,164,8.19,16.86,18.89,0
165,165,8.2,25.27,-0.85,0
166,166,8.21,31.47,-67.71,0
167,167,8.23,45.68,-150.3,0
168,168,8.24,57.43,-210.37,0
169,169,8.25,47.66,-238.77,0
170,170,8.27,10.33,-238.79,0
171,171,8.28,-23.1,-210.36,0
172,172,8.29,-29.9,-157.21,0
173,173,8.31,-25.44,-83.05,0
174,174,8.32,-22.1,-7.76,0
175,175,8.33,-21.91,39.6,0
176,176,8.35,-25.67,60.76,0
177,177,8.36,-20.76,76.1,0
178,178,8.37,0.93,89.21,0
179,179,8.39,14.9,95.3,0
180,180,8.4,-3.02,95.62,0
181,181,8.41,-27.74,94.27,0
182,182,8.43,-25.77,94.72,0
183,183,8.44,-14.06,97.62,0
184,184,8.45,-12.1,99.77,0
185,185,8.47,-6.3,93.87,0
186,186,8.48,-0.7,78.34,0
187,187,8.49,-8.15,66.72,0
188,188,8.51,-16.04,68.41,0
189,189,8.52,-14.13,73.67,0
190,190,8.53,-7.84,71.54,0
191,191,8.55,-4.3,61.66,0
192,192,8.56,-3.74,49.27,0
193,193,8.57,-0.4,39.13,0
194,194,8.59,2.68,29.69,0
195,195,8.6,0.53,22.07,0
196,196,8.61,0.45,23.59,0
197,197,8.63,3.31,29.98,0
198,198,8.64,2.08,25.23,0
199,199,8.65,-1.62,9.71,0
200,200,8.67,-5.3,4.14,0
201,201,8.68,-4.7,16.04,0
202,202,8.69,4.73,22.15,0
203,203,8.71,9.12,3.74,0
204,204,8.72,-0.21,-11.84,0
205,205,8.73,-6.91,3.72,0
206,206,8.75,0.43,23.07,0
207,207,8.76,13.66,18.23,0
208,208,8.77,19.12,4.65,0
209,209,8.78,9.38,-3.93,0
210,210,8.8,-4.52,-8.03,0
211,211,8.81,-3.17,-9.14,0
212,212,8.82,7.21,-17.54,0
213,213,8.84,2.38,-31.56,0
214,214,8.85,-9.75,-32.84,0
215,215,8.864999999999998,-1.29,-22.1,0
216,216,8.88,15.06,-17.49,0
217,217,8.89,10.54,-20.26,0
218,218,8.91,-5.29,-17.86,0
219,219,8.92,-11.26,-12.39,0
220,220,8.93,-4.93,-15.35,0
221,221,8.95,3.12,-22.7,0
222,222,8.96,-0.21,-22.56,0
223,223,8.97,-10.81,-16.64,0
224,224,8.99,-13.75,-16.03,0
225,225,9.0,-7.51,-23.29,0
226,226,9.01,0.23,-26.87,0
227,227,9.03,4.67,-20.06,0
228,228,9.04,6.31,-14.64,0
229,229,9.05,3.43,-20.16,0
230,230,9.07,-4.91,-28.84,0
231,231,9.08,-4.79,-29.69,0
232,232,9.09,7.61,-22.46,0
233,233,9.11,10.4,-17.92,0
234,234,9.12,0.86,-22.69,0
235,235,9.13,2.21,-28.93,0
236,236,9.15,11.9,-28.68,0
237,237,9.16,4.88,-25.08,0
238,238,9.17,-14.23,-21.61,0
239,239,9.19,-17.27,-19.39,0
240,240,9.2,-2.06,-20.08,0
241,241,9.21,8.62,-20.74,0
242,242,9.23,8.15,-18.23,0
243,243,9.24,8.96,-16.76,0
244,244,9.25,9.95,-19.6,0
245,245,9.27,-0.98,-21.87,0
246,246,9.28,-12.7,-21.28,0
247,247,9.29,-8.45,-23.34,0
248,248,9.31,-2.78,-25.44,0
249,249,9.32,-7.24,-22.62,0
250,250,9.33,-6.19,-22.62,0
251,251,9.35,-0.93,-22.15,0
252,252,9.36,-9.18,-11.91,0
253,253,9.37,-17.91,-6.07,0
254,254,9.39,-6.28,-12.94,0
255,255,9.4,7.69,-15.91,0
256,256,9.41,1.69,-14.35,0
257,257,9.43,-6.25,-23.24,0
258,258,9.44,4.52,-31.58,0
259,259,9.45,15.71,-18.81,0
260,260,9.47,6.53,1.91,0
261,261,9.48,-8.78,5.37,0
262,262,9.49,-7.17,-5.99,0
263,263,9.51,6.11,-15.52,0
264,264,9.52,11.8,-13.39,0
265,265,9.53,8.91,3.4,0
266,266,9.55,7.0,20.9,0
267,267,9.56,6.42,14.91,0
268,268,9.57,4.66,-4.95,0
269,269,9.59,5.26,-8.74,0
270,270,9.6,9.23,-0.89,0
271,271,9.61,5.79,3.37,0
272,272,9.63,-10.62,9.06,0
273,273,9.64,-17.01,12.7,0
274,274,9.65,1.98,5.82,0
275,275,9.67,14.89,-2.48,0
276,276,9.68,1.59,-4.64,0
277,277,9.69,-5.48,-1.48,0
278,278,9.71,7.85,4.05,0
279,279,9.72,8.73,2.11,0
280,280,9.73,-8.33,-6.42,0
281,281,9.75,-10.17,-6.08,0
282,282,9.76,5.68,1.12,0
283,283,9.77,12.26,3.83,0
284,284,9.79,8.18,6.78,0
285,285,9.8,7.5,13.05,0
286,286,9.81,4.72,15.9,0
287,287,9.83,-5.66,15.5,0
288,288,9.84,-8.78,17.39,0
289,289,9.85,0.65,21.72,0
290,290,9.87,5.54,20.58,0
291,291,9.88,1.71,10.05,0
292,292,9.89,3.05,2.44,0
293,293,9.91,7.82,7.81,0
294,294,9.92,5.05,18.33,0
295,295,9.93,-3.64,23.95,0
296,296,9.95,-10.13,19.78,0
297,297,9.96,-7.39,7.4,0
298,298,9.97,0.33,-0.44,0
299,299,9.99,-1.18,0.34,0
300,300,10.0,-8.2,2.78,0
301,301,10.01,-9.53,9.87,0
302,302,10.02,-13.8,19.28,0
303,303,10.04,-20.85,14.91,0
304,304,10.05,-13.12,-0.38,0
305,305,10.06,6.62,-4.87,0
306,306,10.08,19.46,3.72,0
307,307,10.09,20.12,8.46,0
308,308,10.1,16.16,2.67,0
309,309,10.12,13.45,-3.47,0
310,310,10.13,10.37,0.82,0
311,311,10.15,7.23,10.12,0
312,312,10.16,8.37,9.64,0
313,313,10.17,4.61,5.02,0
314,314,10.19,-11.66,9.89,0
315,315,10.2,-16.79,12.21,0
316,316,10.21,1.73,7.31,0
317,317,10.23,22.19,11.49,0
318,318,10.24,30.73,13.74,0
319,319,10.25,24.39,1.07,0
320,320,10.27,3.39,-2.88,0
321,321,10.28,-11.85,8.18,0
322,322,10.29,-7.35,15.83,0
323,323,10.31,-2.79,19.01,0
324,324,10.32,-3.05,3.05,0
325,325,10.33,11.05,-47.32,0
326,326,10.35,18.45,-92.33,0
327,327,10.36,-3.29,-100.62,0
328,328,10.37,-11.23,-99.36,0
329,329,10.39,16.9,-112.47,0
330,330,10.4,33.93,-134.02,0
331,331,10.41,23.78,-153.69,0
332,332,10.43,15.96,-165.67,0
333,333,10.44,14.01,-164.57,0
334,334,10.45,10.12,-141.16,0
335,335,10.47,9.0,-96.25,0
336,336,10.48,5.92,-51.95,0
337,337,10.49,-3.2,-22.51,0
338,338,10.51,-8.37,5.39,0
339,339,10.52,-7.0,39.27,0
340,340,10.53,-8.03,64.46,0
341,341,10.55,-11.27,77.13,0
342,342,10.56,-13.79,91.54,0
343,343,10.57,-23.28,114.97,0
344,344,10.59,-35.9,141.34,0
345,345,10.6,-33.01,159.01,0
346,346,10.61,-17.9,168.82,0
347,347,10.63,-14.23,183.65,0
348,348,10.64,-25.48,192.73,0
349,349,10.65,-32.53,180.13,0
350,350,10.67,-27.09,163.63,0
351,351,10.68,-22.9,158.83,0
352,352,10.69,-26.17,151.87,0
353,353,10.71,-24.42,134.65,0
354,354,10.72,-16.21,117.59,0
355,355,10.73,-13.35,106.37,0
356,356,10.75,-17.39,95.17,0
357,357,10.76,-21.47,81.01,0
358,358,10.77,-19.23,66.63,0
359,359,10.78,-12.84,50.29,0
360,360,10.8,-15.63,33.84,0
361,361,10.81,-22.54,27.17,0
362,362,10.83,-11.49,26.51,0
363,363,10.84,6.61,21.11,0
364,364,10.85,6.9,16.63,0
365,365,10.87,-1.02,17.22,0
366,366,10.88,-0.28,8.24,0
367,367,10.89,2.36,-12.4,0
368,368,10.91,-0.07,-21.24,0
369,369,10.92,-2.37,-12.78,0
370,370,10.93,-0.66,-8.66,0
371,371,10.95,2.06,-17.88,0
372,372,10.96,3.82,-29.7,0
373,373,10.97,7.43,-35.09,0
374,374,10.99,12.76,-36.72,0
375,375,11.0,10.9,-41.96,0
376,376,11.01,1.08,-46.35,0
377,377,11.03,0.78,-42.78,0
378,378,11.04,11.76,-36.85,0
379,379,11.05,13.14,-34.65,0
380,380,11.07,6.14,-37.91,0
381,381,11.08,7.16,-46.93,0
382,382,11.09,10.23,-54.1,0
383,383,11.11,4.87,-53.92,0
384,384,11.12,0.05,-51.76,0
385,385,11.13,6.9,-49.85,0
386,386,11.15,17.12,-46.19,0
387,387,11.16,17.0,-42.03,0
388,388,11.17,8.3,-40.93,0
389,389,11.19,1.75,-46.57,0
390,390,11.2,3.9,-55.97,0
391,391,11.21,11.79,-59.39,0
392,392,11.23,16.23,-54.21,0
393,393,11.24,14.06,-49.25,0
394,394,11.25,11.72,-48.46,0
395,395,11.27,14.53,-46.94,0
396,396,11.28,18.38,-44.97,0
397,397,11.29,11.14,-43.7,0
398,398,11.31,-5.24,-41.42,0
399,399,11.32,-10.01,-41.52,0
400,400,11.33,3.1,-45.85,0
401,401,11.35,13.96,-48.25,0
402,402,11.36,12.05,-43.28,0
403,403,11.37,14.99,-37.55,0
404,404,11.39,24.26,-38.24,0
405,405,11.4,13.51,-40.84,0
406,406,11.41,-8.68,-40.7,0
407,407,11.43,-10.74,-35.7,0
408,408,11.44,-2.31,-28.51,0
409,409,11.45,-1.33,-27.87,0
410,410,11.47,2.26,-28.42,0
411,411,11.48,13.23,-21.42,0
412,412,11.49,16.87,-18.79,0
413,413,11.51,6.37,-26.65,0
414,414,11.52,-5.51,-28.49,0
415,415,11.53,-5.42,-19.99,0
416,416,11.55,2.12,-18.35,0
417,417,11.56,3.29,-25.95,0
418,418,11.57,-3.57,-25.24,0
419,419,11.59,-7.85,-17.98,0
420,420,11.6,-5.23,-20.17,0
421,421,11.61,-1.65,-21.56,0
422,422,11.63,-2.02,-6.07,0
423,423,11.64,-2.96,8.91,0
424,424,11.65,1.5,1.11,0
425,425,11.67,9.75,-16.02,0
426,426,11.68,13.09,-15.98,0
427,427,11.69,8.17,2.03,0
428,428,11.71,0.17,18.51,0
429,429,11.72,-5.96,17.63,0
430,430,11.73,-6.33,3.9,0
431,431,11.75,0.16,-2.75,0
432,432,11.76,4.34,2.69,0
433,433,11.77,-0.88,7.55,0
434,434,11.79,-7.68,9.41,0
435,435,11.8,-6.45,12.97,0
436,436,11.81,3.76,13.7,0
437,437,11.83,15.58,8.18,0
438,438,11.84,14.64,3.92,0
439,439,11.85,-0.86,5.83,0
440,440,11.87,-10.41,8.04,0
441,441,11.88,-3.97,7.63,0
442,442,11.89,3.69,6.14,0
443,443,11.91,1.52,4.91,0
444,444,11.92,-4.78,5.77,0
445,445,11.93,-7.94,2.98,0
446,446,11.94,-12.74,-3.51,0
447,447,11.96,-20.21,2.93,0
448,448,11.97,-12.42,19.74,0
449,449,11.98,9.9,25.39,0
450,450,12.0,14.77,21.98,0
451,451,12.01,-1.56,23.29,0
452,452,12.02,-9.24,30.41,0
453,453,12.04,-5.97,38.17,0
454,454,12.05,-9.39,37.73,0
455,455,12.06,-11.88,24.55,0
456,456,12.08,-2.58,10.31,0
457,457,12.09,5.19,13.04,0
458,458,12.1,5.28,27.49,0
459,459,12.12,7.35,27.59,0
460,460,12.13,11.81,11.67,0
461,461,12.15,14.53,3.7,0
462,462,12.16,15.07,3.95,0
463,463,12.17,10.25,0.97,0
464,464,12.19,-0.3,7.44,0
465,465,12.2,-9.85,23.6,0
466,466,12.21,-10.28,28.51,0
467,467,12.23,-1.89,26.74,0
468,468,12.24,4.18,26.87,0
469,469,12.25,4.84,21.34,0
470,470,12.27,7.16,39.2,0
471,471,12.28,1.86,123.19,0
472,472,12.29,-29.15,246.18,0
473,473,12.31,-70.79,338.08,0
474,474,12.32,-87.27,365.33,0
475,475,12.33,-73.32,335.23,0
476,476,12.35,-51.04,266.34,0
477,477,12.36,-34.17,182.17,0
478,478,12.37,-20.63,105.56,0
479,479,12.39,-4.37,40.06,0
480,480,12.4,16.83,-23.78,0
481,481,12.41,32.85,-83.43,0
482,482,12.43,30.01,-134.3,0
483,483,12.44,21.92,-183.28,0
484,484,12.45,29.64,-224.13,0
485,485,12.47,36.32,-233.55,0
486,486,12.48,22.42,-213.68,0
487,487,12.49,8.06,-191.33,0
488,488,12.51,11.25,-176.39,0
489,489,12.52,19.2,-164.38,0
490,490,12.53,22.41,-157.08,0
491,491,12.55,25.6,-150.1,0
492,492,12.56,26.58,-134.8,0
493,493,12.57,21.84,-120.07,0
494,494,12.59,19.26,-114.33,0
495,495,12.6,21.85,-102.82,0
496,496,12.61,22.3,-81.05,0
497,497,12.63,19.29,-69.24,0
498,498,12.64,14.58,-69.48,0
499,499,12.65,5.43,-67.94,0
500,500,12.67,-4.38,-64.2,0
501,501,12.68,-4.39,-55.46,0
502,502,12.69,4.58,-38.12,0
503,503,12.71,11.39,-26.27,0
504,504,12.72,12.69,-31.05,0
505,505,12.73,10.65,-37.38,0
506,506,12.75,7.28,-28.86,0
507,507,12.76,7.37,-14.86,0
508,508,12.77,7.36,-6.42,0
509,509,12.79,-1.64,-0.16,0
510,510,12.8,-11.73,2.65,0
511,511,12.81,-12.25,0.65,0
512,512,12.83,-8.47,5.34,0
513,513,12.84,-6.11,18.41,0
514,514,12.85,-5.19,27.36,0
515,515,12.87,-8.72,30.73,0
516,516,12.88,-18.13,34.04,0
517,517,12.89,-25.1,33.97,0
518,518,12.91,-21.87,32.23,0
519,519,12.92,-17.07,33.31,0
520,520,12.93,-16.4,29.78,0
521,521,12.95,-6.09,24.12,0
522,522,12.96,17.42,33.34,0
523,523,12.97,27.3,49.78,0
524,524,12.99,5.58,46.13,0
525,525,13.0,-21.3,30.47,0
526,526,13.01,-18.85,34.9,0
527,527,13.03,3.43,53.77,0
528,528,13.04,10.94,57.05,0
529,529,13.05,-3.81,49.41,0
530,530,13.07,-16.7,50.76,0
531,531,13.08,-14.0,48.71,0
532,532,13.09,-8.29,33.75,0
533,533,13.11,-11.66,30.6,0
534,534,13.12,-16.9,46.53,0
535,535,13.13,-15.2,55.17,0
536,536,13.15,-12.0,48.41,0
537,537,13.16,-7.4,41.53,0
538,538,13.17,7.04,39.22,0
539,539,13.19,18.77,37.26,0
540,540,13.2,12.05,38.42,0
541,541,13.21,0.54,41.92,0
542,542,13.23,-6.83,38.51,0
543,543,13.24,-20.12,27.36,0
544,544,13.25,-29.22,21.2,0
545,545,13.27,-16.02,28.18,0
546,546,13.28,8.64,34.93,0
547,547,13.29,20.2,29.48,0
548,548,13.31,9.73,28.58,0
549,549,13.32,-7.43,37.75,0
550,550,13.33,-10.7,33.8,0
551,551,13.35,-3.89,19.78,0
552,552,13.36,0.28,21.78,0
553,553,13.37,4.51,30.46,0
554,554,13.39,4.26,27.29,0
555,555,13.4,-6.99,24.11,0
556,556,13.41,-12.57,21.36,0
557,557,13.43,-3.89,8.6,0
558,558,13.44,4.81,4.15,0
559,559,13.45,5.26,17.01,0
560,560,13.47,-3.53,24.58,0
561,561,13.48,-18.95,17.18,0
562,562,13.49,-25.49,3.29,0
563,563,13.51,-14.03,-8.99,0
564,564,13.52,4.07,-12.03,0
565,565,13.53,16.98,-8.9,0
566,566,13.55,22.9,-8.97,0
567,567,13.56,24.11,-8.77,0
568,568,13.57,20.98,-2.48,0
569,569,13.59,9.88,3.95,0
570,570,13.6,-4.96,2.38,0
571,571,13.61,-8.36,-7.73,0
572,572,13.63,3.23,-11.64,0
573,573,13.64,11.2,-0.17,0
574,574,13.65,0.48,7.55,0
575,575,13.67,-14.42,2.21,0
576,576,13.68,-11.52,-0.51,0
577,577,13.69,2.43,1.61,0
578,578,13.71,5.71,0.07,0
579,579,13.72,-0.23,-3.87,0
580,580,13.73,2.77,-8.26,0
581,581,13.75,12.68,-12.77,0
582,582,13.76,11.97,-16.7,0
583,583,13.77,0.8,-22.01,0
584,584,13.79,-4.37,-25.06,0
585,585,13.8,0.18,-20.51,0
586,586,13.81,-0.31,-9.31,0
587,587,13.83,-12.66,1.82,0
588,588,13.84,-17.14,0.03,0
589,589,13.85,-2.27,-15.04,0
590,590,13.86,7.75,-24.9,0
591,591,13.88,0.19,-21.99,0
592,592,13.89,-1.41,-15.43,0
593,593,13.9,9.97,-11.86,0
594,594,13.92,9.58,-12.88,0
595,595,13.93,-1.94,-16.29,0
596,596,13.94,-1.07,-21.65,0
597,597,13.96,4.71,-29.6,0
598,598,13.97,0.43,-34.49,0
599,599,13.98,-1.34,-30.43,0
600,600,14.0,7.94,-22.6,0
601,601,14.01,14.21,-22.75,0
602,602,14.02,4.26,-24.32,0
603,603,14.04,-14.71,-10.08,0
604,604,14.05,-23.07,4.27,0
605,605,14.07,-20.66,-8.89,0
606,606,14.08,-19.6,-33.51,0
607,607,14.09,-7.39,-37.12,0
608,608,14.11,19.87,-22.81,0
609,609,14.12,27.26,-10.09,0
610,610,14.13,8.25,-3.93,0
611,611,14.15,1.06,-7.54,0
612,612,14.16,12.93,-17.75,0
613,613,14.17,10.88,-13.29,0
614,614,14.19,-9.34,8.23,0
615,615,14.2,-9.52,27.67,0
616,616,14.21,21.32,67.0,0
617,617,14.23,44.71,125.19,0
618,618,14.24,35.72,127.45,0
619,619,14.25,5.74,76.63,0
620,620,14.27,-17.63,25.48,0
621,621,14.28,-10.64,-21.73,0
622,622,14.29,11.88,-25.71,0
623,623,14.31,17.85,14.79,0
624,624,14.32,9.1,16.93,0
625,625,14.33,4.98,-34.0,0
626,626,14.35,3.25,-71.17,0
627,627,14.36,-8.64,-67.9,0
628,628,14.37,-22.91,-46.61,0
629,629,14.39,-21.13,-10.05,0
630,630,14.4,-3.69,11.16,0
631,631,14.41,7.23,-22.86,0
632,632,14.43,-4.76,-56.24,0
633,633,14.44,-19.41,-32.49,0
634,634,14.45,-14.92,-8.36,0
635,635,14.47,-12.13,-42.76,0
636,636,14.48,-19.73,-77.09,0
637,637,14.49,-12.27,-58.46,0
638,638,14.51,4.51,-51.11,0
639,639,14.52,6.55,-85.64,0
640,640,14.53,2.11,-94.84,0
641,641,14.55,0.12,-43.97,0
642,642,14.56,-9.82,18.17,0
643,643,14.57,-20.18,24.34,0
644,644,14.59,-11.03,-11.47,0
645,645,14.6,10.85,-19.26,0
646,646,14.61,22.99,-7.4,0
647,647,14.63,19.24,-29.86,0
648,648,14.64,10.51,-71.95,0
649,649,14.65,8.97,-82.94,0
650,650,14.67,11.7,-53.57,0
651,651,14.68,5.75,-17.08,0
652,652,14.69,-1.42,-14.61,0
653,653,14.71,6.49,-44.0,0
654,654,14.72,17.08,-48.97,0
655,655,14.73,11.87,-26.21,0
656,656,14.75,-2.25,-30.13,0
657,657,14.76,-8.41,-26.1,0
658,658,14.77,-0.62,31.42,0
659,659,14.79,12.19,65.62,0
660,660,14.8,13.83,40.68,0
661,661,14.81,4.34,34.04,0
662,662,14.83,2.03,62.25,0
663,663,14.84,8.55,62.25,0
664,664,14.85,7.41,33.38,0
665,665,14.87,-1.06,23.15,0
666,666,14.88,-6.04,22.51,0
667,667,14.89,-7.85,2.23,0
668,668,14.91,-8.92,-20.09,0
669,669,14.92,-10.65,-20.48,0
670,670,14.93,-12.74,-4.19,0
671,671,14.95,-8.94,2.6,0
672,672,14.96,-2.05,-16.16,0
673,673,14.97,4.19,-25.44,0
674,674,14.99,10.23,3.73,0
675,675,15.0,7.29,31.38,0
676,676,15.01,-1.26,27.62,0
677,677,15.03,-4.95,22.12,0
678,678,15.04,-10.58,27.84,0
679,679,15.05,-13.34,28.84,0
680,680,15.07,-3.36,35.97,0
681,681,15.08,0.41,46.89,0
682,682,15.09,-10.55,27.42,0
683,683,15.11,-15.01,-1.44,0
684,684,15.12,-11.06,9.12,0
685,685,15.13,-14.49,42.81,0
686,686,15.15,-17.78,67.05,0
687,687,15.16,-13.2,73.05,0
688,688,15.17,-9.89,39.83,0
689,689,15.19,-4.94,-12.15,0
690,690,15.2,0.73,-14.83,0
691,691,15.21,-2.39,22.03,0
692,692,15.23,-1.88,33.2,0
693,693,15.24,4.74,20.68,0
694,694,15.25,3.99,12.38,0
695,695,15.27,5.14,3.76,0
696,696,15.28,10.8,3.92,0
697,697,15.29,3.58,22.42,0
698,698,15.31,-9.14,22.53,0
699,699,15.32,-2.27,-14.13,0
700,700,15.33,13.83,-33.51,0
701,701,15.35,7.61,-3.29,0
702,702,15.36,-6.13,16.84,0
703,703,15.37,3.81,-9.14,0
704,704,15.39,8.13,-15.03,0
705,705,15.4,-15.6,33.6,0
706,706,15.41,-23.45,66.31,0
707,707,15.43,-3.21,37.33,0
708,708,15.44,5.92,9.81,0
709,709,15.45,0.04,37.8,0
710,710,15.47,4.08,57.05,0
711,711,15.48,21.53,8.55,0
712,712,15.49,33.1,-49.61,0
713,713,15.51,20.56,-39.83,0
714,714,15.52,-0.57,16.78,0
715,715,15.53,1.67,38.19,0
716,716,15.55,15.53,24.22,0
717,717,15.56,9.53,30.2,0
718,718,15.57,-0.77,36.13,0
719,719,15.59,8.87,12.87,0
720,720,15.6,14.64,-13.6,0
721,721,15.61,-0.14,-25.86,0
722,722,15.63,-7.0,-31.44,0
723,723,15.64,-0.01,-22.93,0
724,724,15.65,-3.8,11.68,0
725,725,15.67,-7.99,27.2,0
726,726,15.68,4.95,-13.3,0
727,727,15.69,7.62,-36.79,0
728,728,15.71,-13.93,6.61,0
729,729,15.72,-25.39,45.28,0
730,730,15.73,-8.96,23.38,0
731,731,15.75,7.3,-13.2,0
732,732,15.76,4.98,-5.61,0
733,733,15.77,2.57,15.45,0
734,734,15.78,6.04,1.27,0
735,735,15.8,-1.01,-16.79,0
736,736,15.81,-15.78,-1.32,0
737,737,15.82,-24.04,29.85,0
738,738,15.84,-12.44,30.65,0
739,739,15.85,11.55,-12.13,0
740,740,15.86,13.46,-35.46,0
741,741,15.88,-2.36,-7.57,0
742,742,15.89,-4.26,9.36,0
743,743,15.9,0.41,-12.26,0
744,744,15.92,-0.47,-42.53,0
745,745,15.93,0.49,-58.67,0
746,746,15.94,2.61,-34.66,0
747,747,15.96,3.78,7.87,0
748,748,15.97,4.26,3.86,0
749,749,15.98,3.61,-35.75,0
750,750,16.0,6.95,-51.46,0
751,751,16.01,11.43,-34.47,0
752,752,16.03,6.5,3.05,0
753,753,16.04,-12.17,51.45,0
754,754,16.05,-30.09,65.53,0
755,755,16.07,-24.34,18.28,0
756,756,16.08,-3.79,-24.18,0
757,757,16.09,7.45,-4.67,0
758,758,16.11,16.33,17.47,0
759,759,16.12,31.1,-13.78,0
760,760,16.13,29.3,-40.96,0
761,761,16.15,3.57,-5.43,0
762,762,16.16,-23.63,42.56,0
763,763,16.17,-30.68,27.41,0
764,764,16.19,-12.95,-12.7,0
765,765,16.2,1.19,-2.81,0
766,766,16.21,-4.26,19.69,0
767,767,16.23,-0.88,3.03,0
768,768,16.24,14.71,-17.66,0
769,769,16.25,15.24,-14.37,0
770,770,16.27,5.59,-10.0,0
771,771,16.28,6.3,-9.0,0
772,772,16.29,7.72,11.43,0
773,773,16.31,-4.04,30.77,0
774,774,16.32,-14.68,11.88,0
775,775,16.33,-10.47,-19.71,0
776,776,16.35,-0.87,-43.61,0
777,777,16.36,3.87,-102.33,0
778,778,16.37,8.0,-207.78,0
779,779,16.39,15.42,-289.45,0
780,780,16.4,19.83,-280.8,0
781,781,16.41,16.45,-208.52,0
782,782,16.42,7.9,-135.05,0
783,783,16.44,0.15,-62.89,0
784,784,16.45,-3.94,16.61,0
785,785,16.46,-9.04,71.23,0
786,786,16.48,-13.9,91.15,0
787,787,16.49,-11.8,101.96,0
788,788,16.5,-7.84,111.26,0
789,789,16.52,-11.24,113.96,0
790,790,16.53,-16.58,112.3,0
791,791,16.54,-16.69,106.37,0
792,792,16.56,-16.36,96.75,0
793,793,16.57,-12.77,87.37,0
794,794,16.58,-0.14,81.15,0
795,795,16.6,10.76,76.44,0
796,796,16.61,15.12,61.06,0
797,797,16.62,17.95,34.19,0
798,798,16.64,12.28,23.84,0
799,799,16.65,-1.61,36.88,0
800,800,16.67,-9.54,43.68,0
801,801,16.68,-11.78,42.0,0
802,802,16.69,-14.33,49.93,0
803,803,16.71,-10.18,53.8,0
804,804,16.72,2.92,40.52,0
805,805,16.73,10.14,28.49,0
806,806,16.75,3.16,26.53,0
807,807,16.76,-6.06,25.03,0
808,808,16.77,-4.85,24.55,0
809,809,16.79,1.73,26.29,0
810,810,16.8,1.05,21.43,0
811,811,16.81,-2.8,11.18,0
812,812,16.83,-0.82,7.08,0
813,813,16.84,0.27,8.49,0
814,814,16.85,-3.8,7.31,0
815,815,16.87,-6.43,6.03,0
816,816,16.88,-5.19,6.04,0
817,817,16.89,-5.07,2.92,0
818,818,16.91,-9.32,-0.11,0
819,819,16.92,-10.51,0.34,0
820,820,16.93,-3.18,1.81,0
821,821,16.95,2.21,-0.04,0
822,822,16.96,-0.79,-7.61,0
823,823,16.97,-4.23,-14.87,0
824,824,16.99,-2.71,-16.21,0
825,825,17.0,1.55,-15.44,0
826,826,17.01,4.62,-14.25,0
827,827,17.03,3.45,-13.36,0
828,828,17.04,1.63,-16.48,0
829,829,17.05,3.43,-20.14,0
830,830,17.06,5.07,-20.55,0
831,831,17.08,5.27,-20.91,0
832,832,17.09,6.31,-23.25,0
833,833,17.1,6.14,-23.85,0
834,834,17.12,5.41,-18.66,0
835,835,17.13,7.47,-14.04,0
836,836,17.14,8.3,-13.83,0
837,837,17.16,3.12,-8.27,0
838,838,17.17,-3.75,0.72,0
839,839,17.18,-6.37,-2.84,0
840,840,17.2,-5.78,-17.31,0
841,841,17.21,-1.19,-27.2,0
842,842,17.22,8.16,-28.84,0
843,843,17.24,9.78,-25.9,0
844,844,17.25,-0.52,-19.0,0
845,845,17.26,-2.46,-11.96,0
846,846,17.28,10.4,-8.32,0
847,847,17.29,20.23,-5.45,0
848,848,17.3,17.01,-5.36,0
849,849,17.32,5.35,-6.98,0
850,850,17.33,-3.83,-1.41,0
851,851,17.35,-3.17,0.18,0
852,852,17.36,-1.33,-16.35,0
853,853,17.37,-6.17,-32.49,0
854,854,17.39,-7.78,-29.79,0
855,855,17.4,0.72,-21.1,0
856,856,17.41,6.78,-19.72,0
857,857,17.43,-0.01,-20.22,0
858,858,17.44,-7.1,-16.94,0
859,859,17.45,-0.52,-10.56,0
860,860,17.47,9.92,-6.08,0
861,861,17.48,6.84,-9.09,0
862,862,17.49,-3.26,-14.54,0
863,863,17.51,-0.63,-18.52,0
864,864,17.52,9.45,-25.3,0
865,865,17.53,10.14,-23.61,0
866,866,17.55,6.76,-5.53,0
867,867,17.56,4.38,3.06,0
868,868,17.57,-2.09,-8.2,0
869,869,17.59,-6.83,-10.21,0
870,870,17.6,-8.1,-3.64,0
871,871,17.61,-9.07,-16.82,0
872,872,17.63,-0.18,-30.21,0
873,873,17.64,12.6,-15.66,0
874,874,17.65,10.9,1.43,0
875,875,17.67,2.08,0.61,0
876,876,17.68,-0.92,-2.71,0
877,877,17.69,2.87,-2.08,0
878,878,17.7,8.1,-1.31,0
879,879,17.72,-2.38,3.56,0
880,880,17.73,-23.16,10.81,0
881,881,17.75,-21.7,11.17,0
882,882,17.76,1.04,5.23,0
883,883,17.77,15.89,3.3,0
884,884,17.78,15.82,8.56,0
885,885,17.8,7.6,10.15,0
886,886,17.81,-7.29,-1.89,0
887,887,17.82,-21.02,-15.93,0
888,888,17.84,-20.29,-7.83,0
889,889,17.85,-5.74,13.92,0
890,890,17.86,9.38,14.2,0
891,891,17.88,12.33,-1.17,0
892,892,17.89,1.57,-2.02,0
893,893,17.9,-5.7,1.0,0
894,894,17.92,0.88,-2.44,0
895,895,17.93,5.01,7.56,0
896,896,17.94,-3.96,20.84,0
897,897,17.96,-14.5,11.63,0
898,898,17.97,-15.97,-3.93,0
899,899,17.99,-6.67,-0.5,0
900,900,18.0,4.63,12.77,0
901,901,18.01,3.32,14.81,0
902,902,18.03,-6.17,7.27,0
903,903,18.04,-10.79,5.04,0
904,904,18.05,-11.53,8.47,0
905,905,18.07,-11.17,6.34,0
906,906,18.08,-10.87,-3.1,0
907,907,18.09,-8.8,-5.21,0
908,908,18.11,1.4,7.25,0
909,909,18.12,13.48,16.45,0
910,910,18.13,15.23,14.52,0
911,911,18.15,9.55,13.97,0
912,912,18.16,7.97,13.97,0
913,913,18.17,6.98,11.95,0
914,914,18.19,-0.61,13.53,0
915,915,18.2,-2.28,11.35,0
916,916,18.21,2.66,2.97,0
917,917,18.23,0.33,3.09,0
918,918,18.24,4.32,2.83,0
919,919,18.25,21.42,-27.8,0
920,920,18.27,27.9,-87.2,0
921,921,18.28,19.26,-146.87,0
922,922,18.29,13.23,-185.59,0
923,923,18.31,17.51,-186.82,0
924,924,18.32,21.35,-154.56,0
925,925,18.33,6.91,-126.02,0
926,926,18.34,-13.0,-116.8,0
927,927,18.36,-13.72,-97.91,0
928,928,18.37,-3.61,-59.13,0
929,929,18.38,4.38,-28.54,0
930,930,18.4,12.59,-15.21,0
931,931,18.41,20.65,1.96,0
932,932,18.42,23.39,28.07,0
933,933,18.44,20.51,47.37,0
934,934,18.45,17.81,58.47,0
935,935,18.46,14.69,73.76,0
936,936,18.48,4.05,93.85,0
937,937,18.49,-11.84,112.51,0
938,938,18.5,-20.4,127.75,0
939,939,18.52,-16.7,136.14,0
940,940,18.53,-9.43,144.0,0
941,941,18.54,-6.68,164.09,0
942,942,18.56,-9.37,183.18,0
943,943,18.57,-16.56,179.07,0
944,944,18.58,-27.09,163.64,0
945,945,18.6,-35.88,156.56,0
946,946,18.61,-33.9,149.99,0
947,947,18.63,-20.01,135.6,0
948,948,18.64,-9.02,122.26,0
949,949,18.65,-11.47,116.34,0
950,950,18.67,-14.95,108.41,0
951,951,18.68,-13.8,86.32,0
952,952,18.69,-18.84,60.69,0
953,953,18.71,-21.95,50.4,0
954,954,18.72,-12.36,50.09,0
955,955,18.73,-3.92,42.57,0
956,956,18.75,-6.55,23.43,0
957,957,18.76,-11.14,4.81,0
958,958,18.77,-6.14,-0.69,0
959,959,18.79,5.34,1.43,0
960,960,18.8,6.66,1.45,0
961,961,18.81,-4.59,2.64,0
962,962,18.83,-12.41,1.71,0
963,963,18.84,-11.48,-16.64,0
964,964,18.85,-11.11,-42.46,0
965,965,18.87,-12.67,-44.49,0
966,966,18.88,-8.98,-25.46,0
967,967,18.89,-2.92,-18.22,0
968,968,18.91,0.47,-31.76,0
969,969,18.92,-0.44,-45.59,0
970,970,18.93,-6.04,-46.06,0
971,971,18.95,-5.86,-40.65,0
972,972,18.96,3.54,-41.03,0
973,973,18.97,11.02,-46.06,0
974,974,18.98,15.13,-45.49,0
975,975,19.0,15.27,-40.56,0
976,976,19.01,4.41,-40.96,0
977,977,19.02,-6.93,-44.55,0
978,978,19.04,-1.2,-47.91,0
979,979,19.05,11.99,-52.61,0
980,980,19.06,12.12,-51.13,0
981,981,19.08,6.48,-41.89,0
982,982,19.09,14.57,-39.85,0
983,983,19.1,26.75,-47.57,0
984,984,19.12,19.14,-52.21,0
985,985,19.13,-0.33,-51.79,0
986,986,19.14,-4.83,-51.22,0
987,987,19.16,6.32,-47.82,0
988,988,19.17,12.49,-41.25,0
989,989,19.18,10.79,-40.18,0
990,990,19.2,12.19,-46.22,0
991,991,19.21,11.9,-47.61,0
992,992,19.22,4.34,-42.99,0
993,993,19.24,-1.27,-42.87,0
994,994,19.25,-0.52,-46.49,0
995,995,19.265,4.74,-46.07,0
996,996,19.28,12.59,-39.15,0
997,997,19.29,15.04,-30.75,0
998,998,19.31,5.23,-33.7,0
999,999,19.32,-5.03,-47.73,0
1000,1000,19.33,-0.78,-52.45,0
1001,1001,19.35,5.84,-41.57,0
1002,1002,19.36,1.15,-33.44,0
1003,1003,19.37,1.26,-33.66,0
1004,1004,19.39,14.8,-29.03,0
1005,1005,19.4,18.9,-22.06,0
1006,1006,19.41,4.85,-23.76,0
1007,1007,19.43,-2.63,-30.22,0
1008,1008,19.44,4.0,-36.08,0
1009,1009,19.45,2.82,-36.53,0
1010,1010,19.47,-7.16,-24.13,0
1011,1011,19.48,-2.02,-9.22,0
1012,1012,19.49,16.82,-7.47,0
1013,1013,19.51,20.76,-10.53,0
1014,1014,19.52,4.21,-6.77,0
1015,1015,19.53,-9.82,-1.81,0
1016,1016,19.55,-11.17,-1.21,0
1017,1017,19.56,-9.03,-4.05,0
1018,1018,19.57,-4.63,-8.48,0
1019,1019,19.59,4.21,-13.43,0
1020,1020,19.6,6.96,-17.21,0
1021,1021,19.61,2.11,-16.06,0
1022,1022,19.62,0.78,-10.7,0
1023,1023,19.64,1.02,-4.54,0
1024,1024,19.65,-2.74,1.42,0
1025,1025,19.67,-4.26,4.22,0
1026,1026,19.68,-1.51,4.99,0
1027,1027,19.69,-0.19,10.23,0
1028,1028,19.7,-0.46,17.13,0
1029,1029,19.72,-0.36,14.36,0
1030,1030,19.73,-1.78,6.39,0
1031,1031,19.75,-5.47,4.6,0
1032,1032,19.76,-8.36,3.38,0
1033,1033,19.77,-7.1,-1.37,0
1034,1034,19.78,-4.82,-1.81,0
1035,1035,19.8,-6.84,3.04,0
1036,1036,19.81,-5.16,12.31,0
1037,1037,19.82,9.5,25.73,0
1038,1038,19.84,19.76,32.14,0
1039,1039,19.85,7.61,27.61,0
1040,1040,19.86,-7.12,24.79,0
1041,1041,19.88,-5.82,19.54,0
1042,1042,19.89,-3.67,0.65,0
1043,1043,19.9,-6.59,-9.14,0
1044,1044,19.92,-2.56,11.14,0
1045,1045,19.93,2.29,36.43,0
1046,1046,19.95,1.17,35.07,0
1047,1047,19.96,0.39,19.57,0
1048,1048,19.97,0.71,20.1,0
1049,1049,19.99,1.76,29.96,0
1050,1050,20.0,1.65,27.74,0
1051,1051,20.01,-2.09,21.85,0
1052,1052,20.03,-6.2,22.33,0
1053,1053,20.04,-13.71,17.44,0
1054,1054,20.05,-18.81,7.95,0
1055,1055,20.07,-10.28,9.23,0
1056,1056,20.08,2.22,19.62,0
1057,1057,20.09,4.06,24.66,0
1058,1058,20.11,-4.71,19.37,0
1059,1059,20.12,-9.06,8.83,0
1060,1060,20.13,-2.21,6.67,0
1061,1061,20.15,0.5,19.31,0
1062,1062,20.16,-2.69,30.09,0
1063,1063,20.17,-1.08,29.8,0
1064,1064,20.19,-0.4,31.69,0
1065,1065,20.2,-4.8,34.99,0
1066,1066,20.21,-3.5,29.32,0
1067,1067,20.23,15.11,24.21,0
1068,1068,20.24,42.69,34.03,0
1069,1069,20.25,48.41,75.11,0
1070,1070,20.26,18.81,170.24,0
1071,1071,20.28,-23.16,292.53,0
1072,1072,20.29,-51.28,356.49,0
1073,1073,20.3,-58.88,325.72,0
1074,1074,20.32,-52.06,247.26,0
1075,1075,20.33,-42.16,162.77,0
1076,1076,20.34,-37.31,85.74,0
1077,1077,20.36,-31.04,36.62,0
1078,1078,20.37,-14.37,7.81,0
1079,1079,20.38,4.52,-40.57,0
1080,1080,20.4,10.92,-108.48,0
1081,1081,20.41,7.42,-164.62,0
1082,1082,20.42,9.61,-195.63,0
1083,1083,20.44,17.75,-199.66,0
1084,1084,20.45,21.54,-185.28,0
1085,1085,20.46,24.61,-174.43,0
1086,1086,20.48,27.64,-173.88,0
1087,1087,20.49,22.94,-167.76,0
1088,1088,20.5,19.75,-150.45,0
1089,1089,20.52,26.78,-138.28,0
1090,1090,20.53,28.79,-135.36,0
1091,1091,20.54,13.33,-126.27,0
1092,1092,20.56,-2.12,-110.64,0
1093,1093,20.57,2.63,-99.83,0
1094,1094,20.59,13.58,-89.99,0
1095,1095,20.6,11.71,-80.89,0
1096,1096,20.61,7.41,-82.89,0
1097,1097,20.63,11.61,-84.97,0
1098,1098,20.64,15.86,-67.84,0
1099,1099,20.65,11.65,-44.86,0
1100,1100,20.67,7.03,-35.17,0
1101,1101,20.68,11.76,-31.74,0
1102,1102,20.69,13.07,-28.58,0
1103,1103,20.71,0.31,-26.0,0
1104,1104,20.72,-6.9,-21.36,0
1105,1105,20.73,3.42,-17.29,0
1106,1106,20.75,8.77,-10.76,0
1107,1107,20.76,-3.16,-0.41,0
1108,1108,20.77,-10.02,0.32,0
1109,1109,20.79,-0.41,-7.26,0
1110,1110,20.8,4.43,-5.07,0
1111,1111,20.81,-1.61,5.41,0
1112,1112,20.83,5.02,8.19,0
1113,1113,20.84,19.93,4.24,0
1114,1114,20.85,8.4,12.06,0
1115,1115,20.87,-20.67,32.31,0
1116,1116,20.88,-26.75,39.88,0
1117,1117,20.89,-10.1,29.87,0
1118,1118,20.9,0.93,25.61,0
1119,1119,20.92,-1.65,32.91,0
1120,1120,20.93,-6.66,36.33,0
1121,1121,20.94,-5.9,35.36,0
1122,1122,20.96,-6.22,37.52,0
1123,1123,20.97,-8.08,35.67,0
1124,1124,20.98,2.63,31.69,0
1125,1125,21.0,15.47,36.47,0
1126,1126,21.01,4.24,46.0,0
1127,1127,21.02,-16.72,52.13,0
1128,1128,21.04,-15.57,52.14,0
1129,1129,21.05,-3.27,51.06,0
1130,1130,21.06,-6.31,55.54,0
1131,1131,21.08,-15.78,56.11,0
1132,1132,21.09,-11.49,49.02,0
1133,1133,21.1,-3.0,45.13,0
1134,1134,21.12,-10.2,37.41,0
1135,1135,21.13,-22.92,24.04,0
1136,1136,21.14,-19.89,28.52,0
1137,1137,21.16,-9.36,44.14,0
1138,1138,21.17,-7.76,38.91,0
1139,1139,21.18,-8.26,24.48,0
1140,1140,21.2,-6.29,29.23,0
1141,1141,21.21,-8.24,38.63,0
1142,1142,21.23,-6.56,35.61,0
1143,1143,21.24,3.96,32.96,0
1144,1144,21.25,9.33,30.78,0
1145,1145,21.27,3.34,20.92,0
1146,1146,21.28,-7.54,16.89,0
1147,1147,21.29,-16.45,22.61,0
1148,1148,21.31,-12.71,24.78,0
1149,1149,21.32,0.56,19.58,0
1150,1150,21.33,6.83,8.07,0
1151,1151,21.35,7.71,-0.1,0
1152,1152,21.36,9.14,7.76,0
1153,1153,21.37,3.42,16.68,0
1154,1154,21.39,-4.29,10.98,0
1155,1155,21.4,-3.5,8.25,0
1156,1156,21.41,-2.58,17.31,0
1157,1157,21.43,-5.52,20.75,0
1158,1158,21.44,-4.87,14.71,0
1159,1159,21.45,-1.88,9.73,0
1160,1160,21.47,-0.7,8.29,0
1161,1161,21.48,-0.87,8.03,0
1162,1162,21.49,-1.71,6.93,0
1163,1163,21.51,3.69,5.07,0
1164,1164,21.52,13.66,7.32,0
1165,1165,21.53,11.47,9.08,0
1166,1166,21.54,-0.15,3.83,0
1167,1167,21.56,-2.1,3.62,0
1168,1168,21.57,0.77,9.43,0
1169,1169,21.58,-1.49,4.58,0
1170,1170,21.6,3.36,-6.69,0
1171,1171,21.61,13.24,-9.73,0
1172,1172,21.62,4.42,-5.57,0
1173,1173,21.64,-17.1,-0.74,0
1174,1174,21.65,-19.25,0.26,0
1175,1175,21.67,-0.93,-0.84,0
1176,1176,21.68,11.21,2.16,0
1177,1177,21.69,10.31,4.93,0
1178,1178,21.7,5.78,-2.82,0
1179,1179,21.72,-5.61,-15.61,0
1180,1180,21.73,-19.02,-20.48,0
1181,1181,21.75,-10.55,-17.92,0
1182,1182,21.76,15.18,-11.53,0
1183,1183,21.77,22.35,-5.22,0
1184,1184,21.78,6.75,-5.1,0
1185,1185,21.8,-4.56,-6.53,0
1186,1186,21.81,-5.99,-5.88,0
1187,1187,21.82,-5.96,-7.08,0
1188,1188,21.84,-1.2,-11.42,0
1189,1189,21.85,5.23,-17.67,0
1190,1190,21.87,5.23,-20.47,0
1191,1191,21.88,-0.49,-17.44,0
1192,1192,21.89,-8.19,-17.6,0
1193,1193,21.91,-7.09,-19.53,0
1194,1194,21.92,7.94,-12.86,0
1195,1195,21.93,15.9,-2.1,0
1196,1196,21.95,3.86,0.83,0
1197,1197,21.96,-4.94,-5.42,0
1198,1198,21.97,3.55,-7.53,0
1199,1199,21.99,6.92,1.41,0
1200,1200,22.0,-4.08,4.25,0
1201,1201,22.01,-5.2,-11.96,0
1202,1202,22.03,5.85,-27.72,0
1203,1203,22.04,0.31,-22.92,0
1204,1204,22.05,-14.67,-14.01,0
1205,1205,22.07,-4.38,-15.81,0
1206,1206,22.08,14.23,-12.66,0
1207,1207,22.09,7.34,-6.65,0
1208,1208,22.11,0.49,-15.11,0
1209,1209,22.12,13.26,-25.86,0
1210,1210,22.13,12.55,-24.98,0
1211,1211,22.15,-2.95,-16.37,0
1212,1212,22.16,0.82,-13.17,0
1213,1213,22.17,15.76,-19.53,0
1214,1214,22.18,12.39,9.88,0
1215,1215,22.2,-1.36,119.18,0
1216,1216,22.21,-4.16,270.55,0
1217,1217,22.22,-8.55,333.86,0
1218,1218,22.24,-22.04,146.88,0
1219,1219,22.25,-11.42,-197.58,0
1220,1220,22.26,29.89,-295.43,0
1221,1221,22.28,48.57,-81.15,0
1222,1222,22.29,20.03,32.65,0
1223,1223,22.3,1.76,-29.6,0
1224,1224,22.32,31.12,0.01,0
1225,1225,22.33,51.08,60.0,0
1226,1226,22.34,23.1,-39.64,0
1227,1227,22.36,2.15,-182.6,0
1228,1228,22.37,17.62,-155.61,0
1229,1229,22.38,13.96,-20.54,0
1230,1230,22.4,-20.05,3.23,0
1231,1231,22.41,-25.95,-30.2,0
1232,1232,22.42,-11.5,43.19,0
1233,1233,22.44,-17.94,94.73,0
1234,1234,22.45,-17.41,1.27,0
1235,1235,22.46,6.11,-70.66,0
1236,1236,22.48,9.4,-32.08,0
1237,1237,22.49,-19.83,-38.1,0
1238,1238,22.5,-31.98,-120.37,0
1239,1239,22.52,-2.67,-115.18,0
1240,1240,22.53,14.53,-18.26,0
1241,1241,22.55,-8.39,10.68,0
1242,1242,22.56,-15.84,-18.53,0
1243,1243,22.57,6.16,14.97,0
1244,1244,22.59,-2.53,57.16,0
1245,1245,22.6,-41.08,-0.97,0
1246,1246,22.61,-44.34,-84.86,0
1247,1247,22.63,-9.89,-82.05,0
1248,1248,22.64,5.21,-40.47,0
1249,1249,22.65,-10.6,-42.69,0
1250,1250,22.67,-16.07,-62.07,0
1251,1251,22.68,4.07,-49.32,0
1252,1252,22.69,19.42,-30.53,0
1253,1253,22.71,12.02,-23.29,0
1254,1254,22.72,3.74,17.86,0
1255,1255,22.73,5.45,59.34,0
1256,1256,22.75,-1.22,23.27,0
1257,1257,22.76,-11.55,-31.75,0
1258,1258,22.77,-11.36,-40.65,0
1259,1259,22.79,-11.02,-17.95,0
1260,1260,22.8,-14.12,37.21,0
1261,1261,22.81,-9.22,67.04,0
1262,1262,22.82,5.41,10.35,0
1263,1263,22.84,13.47,-45.19,0
1264,1264,22.85,-2.28,-14.78,0
1265,1265,22.86,-24.35,39.68,0
1266,1266,22.88,-21.7,32.13,0
1267,1267,22.89,-4.22,-24.44,0
1268,1268,22.9,6.63,-39.67,0
1269,1269,22.92,12.18,22.54,0
1270,1270,22.93,11.22,61.59,0
1271,1271,22.94,2.64,9.8,0
1272,1272,22.96,-8.99,-37.51,0
1273,1273,22.97,-20.19,-4.93,0
1274,1274,22.98,-17.53,42.88,0
1275,1275,23.0,-0.43,25.21,0
1276,1276,23.01,8.96,-29.15,0
1277,1277,23.02,10.76,-47.38,0
1278,1278,23.04,16.4,-38.57,0
1279,1279,23.05,13.34,-30.74,0
1280,1280,23.06,4.97,-14.63,0
1281,1281,23.08,9.41,-11.17,0
1282,1282,23.09,13.04,-29.05,0
1283,1283,23.1,4.17,-18.9,0
1284,1284,23.12,4.43,40.2,0
1285,1285,23.13,18.37,96.53,0
1286,1286,23.14,18.94,81.76,0
1287,1287,23.16,1.08,4.42,0
1288,1288,23.17,-16.88,-26.75,0
1289,1289,23.19,-24.18,35.15,0
1290,1290,23.2,-13.08,84.0,0
1291,1291,23.21,2.77,47.83,0
1292,1292,23.23,-0.35,1.83,0
1293,1293,23.24,-8.46,13.91,0
1294,1294,23.25,-3.87,48.27,0
1295,1295,23.27,-0.67,53.19,0
1296,1296,23.28,-5.5,31.7,0
1297,1297,23.29,-1.89,19.7,0
1298,1298,23.31,14.58,29.9,0
1299,1299,23.32,21.02,27.64,0
1300,1300,23.33,9.22,3.62,0
1301,1301,23.35,5.68,-6.29,0
1302,1302,23.36,17.02,-18.23,0
1303,1303,23.37,20.48,-48.36,0
1304,1304,23.39,11.54,-35.08,0
1305,1305,23.4,2.99,43.88,0
1306,1306,23.41,-2.37,112.66,0
1307,1307,23.43,-11.09,91.6,0
1308,1308,23.44,-13.34,8.96,0
1309,1309,23.45,8.19,-25.12,0
1310,1310,23.46,32.8,5.91,0
1311,1311,23.48,29.94,16.8,0
1312,1312,23.49,10.55,3.98,0
1313,1313,23.5,-6.13,21.76,0
1314,1314,23.52,-14.3,28.43,0
1315,1315,23.53,-9.56,-5.72,0
1316,1316,23.54,-0.42,-2.75,0
1317,1317,23.56,-0.84,48.32,0
1318,1318,23.57,-7.97,67.03,0
1319,1319,23.58,-9.68,41.6,0
1320,1320,23.6,-0.53,9.6,0
1321,1321,23.61,12.27,-17.02,0
1322,1322,23.62,15.82,-26.12,0
1323,1323,23.64,4.85,-3.51,0
1324,1324,23.65,-5.79,29.72,0
1325,1325,23.67,2.63,37.31,0
1326,1326,23.68,15.06,27.86,0
1327,1327,23.69,6.65,35.93,0
1328,1328,23.7,-7.33,54.95,0
1329,1329,23.72,-8.8,47.4,0
1330,1330,23.73,-7.96,11.45,0
1331,1331,23.75,-5.76,-9.21,0
1332,1332,23.76,1.76,-9.9,0
1333,1333,23.77,4.36,-37.62,0
1334,1334,23.78,0.02,-82.73,0
1335,1335,23.8,-5.96,-76.26,0
1336,1336,23.81,-9.03,-13.1,0
1337,1337,23.83,0.73,28.84,0
1338,1338,23.84,13.5,4.03,0
1339,1339,23.85,2.48,-37.59,0
1340,1340,23.87,-18.05,-33.49,0
1341,1341,23.88,-14.2,0.73,0
1342,1342,23.89,-4.44,17.53,0
1343,1343,23.91,-12.57,7.37,0
1344,1344,23.92,-16.8,-4.77,0
1345,1345,23.93,-10.93,6.16,0
1346,1346,23.95,-15.92,29.33,0
1347,1347,23.96,-20.06,40.94,0
1348,1348,23.97,-1.95,27.7,0
1349,1349,23.99,15.48,-13.67,0
1350,1350,24.0,9.69,-40.91,0
1351,1351,24.01,1.41,-13.02,0
1352,1352,24.03,2.26,9.53,0
1353,1353,24.04,-4.68,-38.25,0
1354,1354,24.05,-16.67,-72.46,0
1355,1355,24.07,-17.71,-23.75,0
1356,1356,24.08,-9.3,13.45,0
1357,1357,24.09,-0.77,-10.77,0
1358,1358,24.1,2.13,-17.04,0
1359,1359,24.12,-2.06,16.47,0
1360,1360,24.13,-4.93,33.81,0
1361,1361,24.14,2.73,31.42,0
1362,1362,24.16,3.49,31.65,0
1363,1363,24.17,-17.77,15.76,0
1364,1364,24.18,-30.32,-18.39,0
1365,1365,24.2,-3.18,-38.78,0
1366,1366,24.21,34.76,-57.23,0
1367,1367,24.22,37.03,-110.35,0
1368,1368,24.24,19.86,-168.27,0
1369,1369,24.25,21.55,-178.32,0
1370,1370,24.26,17.75,-157.36,0
1371,1371,24.28,-11.49,-151.53,0
1372,1372,24.29,-25.32,-157.24,0
1373,1373,24.3,-10.43,-140.74,0
1374,1374,24.32,2.39,-92.29,0
1375,1375,24.33,8.47,-28.13,0
1376,1376,24.34,12.61,27.8,0
1377,1377,24.36,4.15,65.4,0
1378,1378,24.37,-10.67,94.49,0
1379,1379,24.38,-19.21,112.08,0
1380,1380,24.4,-23.65,113.01,0
1381,1381,24.41,-21.53,114.67,0
1382,1382,24.42,-13.47,121.88,0
1383,1383,24.44,-10.88,119.0,0
1384,1384,24.45,-11.41,103.51,0
1385,1385,24.46,-4.73,91.96,0
1386,1386,24.48,5.86,92.24,0
1387,1387,24.49,10.67,84.88,0
1388,1388,24.51,9.07,64.84,0
1389,1389,24.52,7.43,60.17,0
1390,1390,24.53,8.03,69.46,0
1391,1391,24.55,7.84,59.11,0
1392,1392,24.56,2.33,32.9,0
1393,1393,24.57,-3.96,24.9,0
1394,1394,24.59,1.46,39.67,0
1395,1395,24.6,12.02,50.97,0
1396,1396,24.61,9.49,39.31,0
1397,1397,24.63,0.51,15.99,0
1398,1398,24.64,0.37,8.38,0
1399,1399,24.65,5.02,11.42,0
1400,1400,24.67,7.65,0.67,0
1401,1401,24.68,12.17,-12.1,0
1402,1402,24.69,16.23,-7.23,0
1403,1403,24.71,10.04,0.73,0
1404,1404,24.72,-3.61,0.37,0
1405,1405,24.73,-8.82,-0.71,0
1406,1406,24.75,-3.43,-0.17,0
1407,1407,24.76,-2.38,-0.61,0
1408,1408,24.77,-6.65,-5.52,0
1409,1409,24.78,-6.08,-15.38,0
1410,1410,24.8,-2.95,-18.35,0
1411,1411,24.81,-1.98,-10.49,0
1412,1412,24.82,-3.45,-8.46,0
1413,1413,24.84,-6.01,-16.63,0
1414,1414,24.85,-5.27,-21.82,0
1415,1415,24.86,1.77,-22.66,0
1416,1416,24.88,13.77,-23.64,0
1417,1417,24.89,17.23,-19.67,0
1418,1418,24.9,-0.91,-10.28,0
1419,1419,24.92,-20.44,-7.87,0
1420,1420,24.93,-15.08,-17.39,0
1421,1421,24.94,1.27,-25.42,0
1422,1422,24.96,3.86,-23.74,0
1423,1423,24.97,-0.2,-20.95,0
1424,1424,24.98,9.78,-22.35,0
1425,1425,25.0,20.81,-21.13,0
1426,1426,25.01,10.15,-16.16,0
1427,1427,25.02,-4.77,-14.55,0
1428,1428,25.04,-5.62,-15.78,0
1429,1429,25.05,-3.62,-16.59,0
1430,1430,25.06,-1.25,-18.95,0
1431,1431,25.08,5.9,-18.9,0
1432,1432,25.09,5.95,-15.0,0
1433,1433,25.1,-3.2,-16.35,0
1434,1434,25.12,-5.51,-23.28,0
1435,1435,25.13,1.92,-26.82,0
1436,1436,25.15,7.5,-21.18,0
1437,1437,25.16,7.23,-11.96,0
1438,1438,25.17,4.62,-14.32,0
1439,1439,25.19,3.95,-24.85,0
1440,1440,25.2,7.55,-23.51,0
1441,1441,25.21,9.87,-11.29,0
1442,1442,25.23,5.79,-6.7,0
1443,1443,25.24,-1.81,-10.31,0
1444,1444,25.25,-9.35,-7.59,0
1445,1445,25.27,-10.02,-1.59,0
1446,1446,25.28,2.75,-8.11,0
1447,1447,25.29,15.66,-20.12,0
1448,1448,25.31,12.67,-19.11,0
1449,1449,25.32,5.07,-15.01,0
1450,1450,25.33,6.85,-22.76,0
1451,1451,25.35,7.03,-28.14,0
1452,1452,25.36,-2.78,-24.52,0
1453,1453,25.37,-9.37,-25.3,0
1454,1454,25.38,-4.44,-25.76,0
1455,1455,25.4,-0.33,-12.97,0
1456,1456,25.41,-8.1,2.49,0
1457,1457,25.42,-13.62,1.77,0
1458,1458,25.44,-4.79,-14.07,0
1459,1459,25.45,4.03,-25.13,0
1460,1460,25.46,3.76,-16.02,0
1461,1461,25.48,6.18,3.24,0
1462,1462,25.49,12.7,5.15,0
1463,1463,25.5,8.38,-9.42,0
1464,1464,25.52,-2.46,-8.96,0
1465,1465,25.53,-1.73,4.69,0
1466,1466,25.54,2.91,0.92,0
1467,1467,25.56,-2.29,-14.07,0
1468,1468,25.57,-4.82,-16.55,0
1469,1469,25.58,2.42,-7.29,0
1470,1470,25.6,1.94,3.91,0
1471,1471,25.61,-13.1,7.13,0
1472,1472,25.62,-22.37,-1.61,0
1473,1473,25.64,-9.69,-7.33,0
1474,1474,25.65,7.93,-1.02,0
1475,1475,25.67,2.87,1.52,0
1476,1476,25.68,-18.01,-7.59,0
1477,1477,25.69,-23.34,-12.42,0
1478,1478,25.7,-6.22,-7.43,0
1479,1479,25.72,13.33,-2.04,0
1480,1480,25.73,22.13,5.12,0
1481,1481,25.75,18.87,14.91,0
1482,1482,25.76,6.14,16.8,0
1483,1483,25.77,-6.01,8.81,0
1484,1484,25.79,-6.48,2.19,0
1485,1485,25.8,1.03,10.09,0
1486,1486,25.81,0.42,28.86,0
1487,1487,25.83,-8.36,33.21,0
1488,1488,25.84,-5.66,17.51,0
1489,1489,25.85,8.62,7.93,0
1490,1490,25.87,11.16,12.35,0
1491,1491,25.88,-1.61,12.45,0
1492,1492,25.89,-11.42,5.85,0
1493,1493,25.91,-9.85,5.1,0
1494,1494,25.92,-1.81,9.05,0
1495,1495,25.93,5.92,9.21,0
1496,1496,25.95,8.09,5.39,0
1497,1497,25.96,3.4,1.88,0
1498,1498,25.97,-8.77,2.9,0
1499,1499,25.99,-20.53,2.35,0
1500,1500,26.0,-12.39,-5.71,0
1501,1501,26.01,11.49,-4.45,0
1502,1502,26.02,17.24,13.21,0
1503,1503,26.04,-1.12,19.84,0
1504,1504,26.05,-15.79,6.88,0
1505,1505,26.06,-17.17,2.85,0
1506,1506,26.08,-11.6,14.33,0
1507,1507,26.09,0.6,18.71,0
1508,1508,26.1,7.64,13.38,0
1509,1509,26.12,0.8,10.99,0
1510,1510,26.13,-0.65,11.79,0
1511,1511,26.14,10.88,9.25,0
1512,1512,26.16,12.3,-7.79,0
1513,1513,26.17,0.52,-50.73,0
1514,1514,26.18,-2.21,-107.35,0
1515,1515,26.2,8.09,-144.9,0
1516,1516,26.21,25.65,-147.45,0
1517,1517,26.22,42.37,-125.0,0
1518,1518,26.24,39.2,-101.2,0
1519,1519,26.25,24.56,-100.0,0
1520,1520,26.26,21.91,-112.78,0
1521,1521,26.28,19.65,-109.46,0
1522,1522,26.29,10.06,-88.4,0
1523,1523,26.3,9.11,-63.6,0
1524,1524,26.32,11.58,-35.44,0
1525,1525,26.33,1.3,-7.29,0
1526,1526,26.34,-18.07,12.41,0
1527,1527,26.36,-28.57,26.43,0
1528,1528,26.37,-22.63,44.78,0
1529,1529,26.38,-16.27,68.38,0
1530,1530,26.4,-17.3,89.78,0
1531,1531,26.41,-13.01,110.06,0
1532,1532,26.43,-10.15,134.02,0
1533,1533,26.44,-24.42,152.24,0
1534,1534,26.45,-34.9,159.44,0
1535,1535,26.47,-19.31,168.19,0
1536,1536,26.48,-3.91,179.65,0
1537,1537,26.49,-12.72,182.59,0
1538,1538,26.51,-24.37,175.61,0
1539,1539,26.52,-22.06,161.45,0
1540,1540,26.53,-18.03,144.95,0
1541,1541,26.55,-14.72,132.66,0
1542,1542,26.56,-2.29,122.22,0
1543,1543,26.57,9.54,111.7,0
1544,1544,26.59,1.36,104.5,0
1545,1545,26.6,-16.72,94.74,0
1546,1546,26.61,-20.32,73.59,0
1547,1547,26.63,-15.08,50.38,0
1548,1548,26.64,-18.41,42.25,0
1549,1549,26.65,-21.2,47.42,0
1550,1550,26.67,-7.71,46.0,0
1551,1551,26.68,6.09,28.6,0
1552,1552,26.69,-1.16,11.25,0
1553,1553,26.7,-11.5,4.68,0
1554,1554,26.72,-1.75,-0.42,0
1555,1555,26.73,12.35,-5.25,0
1556,1556,26.75,14.13,-7.31,0
1557,1557,26.76,11.52,-12.59,0
1558,1558,26.77,7.68,-17.44,0
1559,1559,26.78,3.98,-17.51,0
1560,1560,26.8,7.95,-22.17,0
1561,1561,26.81,9.97,-35.0,0
1562,1562,26.82,-2.4,-43.92,0
1563,1563,26.84,-11.54,-42.32,0
1564,1564,26.85,-3.32,-39.51,0
1565,1565,26.86,1.84,-41.66,0
1566,1566,26.88,-1.94,-43.65,0
1567,1567,26.89,3.39,-41.64,0
1568,1568,26.9,13.25,-38.32,0
1569,1569,26.92,11.75,-39.88,0
1570,1570,26.93,2.65,-48.37,0
1571,1571,26.94,3.13,-61.03,0
1572,1572,26.96,15.25,-71.91,0
1573,1573,26.97,17.13,-71.17,0
1574,1574,26.98,6.8,-62.41,0
1575,1575,27.0,2.62,-60.16,0
1576,1576,27.01,0.21,-60.54,0
1577,1577,27.02,-4.06,-55.54,0
1578,1578,27.04,0.19,-54.62,0
1579,1579,27.05,5.3,-57.98,0
1580,1580,27.065,3.94,-50.74,0
1581,1581,27.08,7.3,-38.36,0
1582,1582,27.09,14.17,-41.1,0
1583,1583,27.11,13.02,-57.58,0
1584,1584,27.12,9.76,-66.3,0
1585,1585,27.13,13.33,-59.04,0
1586,1586,27.15,16.2,-49.94,0
1587,1587,27.16,15.62,-46.35,0
1588,1588,27.17,15.78,-43.11,0
1589,1589,27.19,6.68,-43.15,0
1590,1590,27.2,-11.15,-48.53,0
1591,1591,27.21,-12.78,-47.73,0
1592,1592,27.23,6.9,-39.61,0
1593,1593,27.24,21.54,-36.8,0
1594,1594,27.25,16.43,-34.08,0
1595,1595,27.27,7.83,-24.64,0
1596,1596,27.28,7.23,-26.92,0
1597,1597,27.29,2.57,-40.35,0
1598,1598,27.3,-1.13,-36.7,0
1599,1599,27.32,8.31,-18.95,0
1600,1600,27.33,10.57,-14.84,0
1601,1601,27.34,-2.22,-26.58,0
1602,1602,27.36,-5.94,-34.77,0
1603,1603,27.37,0.98,-29.61,0
1604,1604,27.38,-2.7,-22.58,0
1605,1605,27.4,-14.69,-24.54,0
1606,1606,27.41,-13.92,-27.35,0
1607,1607,27.42,-2.84,-19.04,0
1608,1608,27.44,-5.77,-3.36,0
1609,1609,27.45,-21.7,5.13,0
1610,1610,27.46,-22.42,4.95,0
1611,1611,27.48,-2.36,3.66,0
1612,1612,27.49,13.19,-0.23,0
1613,1613,27.5,8.46,-5.41,0
1614,1614,27.52,-4.15,-8.78,0
1615,1615,27.53,-6.52,-13.17,0
1616,1616,27.54,1.61,-14.49,0
1617,1617,27.56,6.88,-7.13,0
1618,1618,27.57,2.14,6.43,0
1619,1619,27.58,-3.67,16.79,0
1620,1620,27.6,-1.65,12.23,0
1621,1621,27.61,0.35,-1.28,0
1622,1622,27.62,-4.0,-4.54,0
1623,1623,27.64,-5.64,5.44,0
1624,1624,27.65,-1.01,15.5,0
1625,1625,27.67,3.64,18.65,0
1626,1626,27.68,5.77,18.53,0
1627,1627,27.69,6.51,16.31,0
1628,1628,27.7,5.4,13.47,0
1629,1629,27.72,-1.53,12.56,0
1630,1630,27.73,-10.8,8.47,0
1631,1631,27.75,-5.9,5.74,0
1632,1632,27.76,10.68,15.68,0
1633,1633,27.77,15.04,26.98,0
1634,1634,27.79,5.12,24.6,0
1635,1635,27.8,-2.95,16.34,0
1636,1636,27.81,-3.32,15.34,0
1637,1637,27.83,-3.9,20.12,0
1638,1638,27.84,-9.7,23.1,0
1639,1639,27.85,-7.56,23.45,0
1640,1640,27.87,6.53,23.8,0
1641,1641,27.88,13.89,21.76,0
1642,1642,27.89,6.95,14.59,0
1643,1643,27.91,-3.24,7.68,0
1644,1644,27.92,-2.98,9.74,0
1645,1645,27.93,4.34,20.17,0
1646,1646,27.94,-0.45,27.73,0
1647,1647,27.96,-11.27,24.02,0
1648,1648,27.97,-7.75,16.7,0
1649,1649,27.98,3.74,18.69,0
1650,1650,28.0,12.25,23.49,0
1651,1651,28.01,14.6,21.05,0
1652,1652,28.02,4.48,19.79,0
1653,1653,28.04,-9.72,22.36,0
1654,1654,28.05,-15.02,20.71,0
1655,1655,28.06,-11.04,18.99,0
1656,1656,28.08,0.39,22.47,0
1657,1657,28.09,11.57,24.55,0
1658,1658,28.1,10.33,18.34,0
1659,1659,28.12,2.32,8.83,0
1660,1660,28.13,0.56,7.43,0
1661,1661,28.14,-0.12,12.18,0
1662,1662,28.16,-7.85,12.64,0
1663,1663,28.17,-13.38,14.64,0
1664,1664,28.18,-11.94,25.38,0
1665,1665,28.2,-12.74,30.26,0
1666,1666,28.21,-16.25,20.68,0
1667,1667,28.22,-10.18,10.42,0
1668,1668,28.24,7.94,9.46,0
1669,1669,28.25,22.52,24.5,0
1670,1670,28.26,18.8,81.05,0
1671,1671,28.28,4.07,186.47,0
1672,1672,28.29,-2.75,284.52,0
1673,1673,28.3,-4.29,318.5,0
1674,1674,28.32,-21.37,301.92,0
1675,1675,28.33,-45.51,265.1,0
1676,1676,28.34,-46.62,207.85,0
1677,1677,28.36,-34.55,136.44,0
1678,1678,28.37,-36.38,72.31,0
1679,1679,28.39,-41.93,13.69,0
1680,1680,28.4,-34.99,-53.79,0
1681,1681,28.41,-23.77,-124.36,0
1682,1682,28.43,-14.26,-183.91,0
1683,1683,28.44,-2.26,-221.76,0
1684,1684,28.45,12.06,-229.0,0
1685,1685,28.47,20.61,-214.9,0
1686,1686,28.48,16.71,-200.07,0
1687,1687,28.49,13.39,-188.51,0
1688,1688,28.51,22.72,-176.09,0
1689,1689,28.52,28.78,-163.16,0
1690,1690,28.53,22.11,-146.61,0
1691,1691,28.55,22.04,-133.95,0
1692,1692,28.56,33.53,-138.16,0
1693,1693,28.57,34.1,-138.06,0
1694,1694,28.58,21.16,-111.5,0
1695,1695,28.6,15.84,-83.62,0
1696,1696,28.61,19.42,-73.8,0
1697,1697,28.62,15.65,-62.31,0
1698,1698,28.64,10.09,-45.37,0
1699,1699,28.65,16.9,-45.96,0
1700,1700,28.67,21.19,-60.28,0
1701,1701,28.68,9.94,-56.32,0
1702,1702,28.69,0.08,-34.42,0
1703,1703,28.7,0.68,-24.2,0
1704,1704,28.72,5.63,-27.18,0
1705,1705,28.73,9.42,-26.43,0
1706,1706,28.75,4.51,-21.98,0
1707,1707,28.76,-2.5,-18.52,0
1708,1708,28.77,-2.2,-13.64,0
1709,1709,28.78,-8.5,-4.48,0
1710,1710,28.8,-15.59,2.35,0
1711,1711,28.81,2.07,-0.82,0
1712,1712,28.82,21.36,-2.02,0
1713,1713,28.84,9.25,9.99,0
1714,1714,28.85,-8.63,17.85,0
1715,1715,28.86,-1.2,10.6,0
1716,1716,28.88,11.44,10.52,0
1717,1717,28.89,1.27,29.3,0
1718,1718,28.9,-15.66,43.02,0
1719,1719,28.92,-13.44,34.93,0
1720,1720,28.93,-3.43,21.9,0
1721,1721,28.94,-2.49,23.54,0
1722,1722,28.96,-3.15,35.63,0
1723,1723,28.97,-1.18,41.75,0
1724,1724,28.98,-0.59,39.55,0
1725,1725,29.0,3.43,38.25,0
1726,1726,29.01,6.53,42.08,0
1727,1727,29.03,-0.53,52.03,0
1728,1728,29.04,-2.48,60.56,0
1729,1729,29.05,8.62,50.34,0
1730,1730,29.07,10.51,26.69,0
1731,1731,29.08,1.45,17.75,0
1732,1732,29.09,2.67,33.84,0
1733,1733,29.11,4.81,54.31,0
1734,1734,29.12,-9.12,58.19,0
1735,1735,29.13,-20.92,52.78,0
1736,1736,29.15,-17.01,50.38,0
1737,1737,29.16,-12.66,41.46,0
1738,1738,29.17,-13.92,26.47,0
1739,1739,29.19,-8.96,28.8,0
1740,1740,29.2,0.99,43.69,0
1741,1741,29.21,1.94,41.3,0
1742,1742,29.22,-6.17,26.57,0
1743,1743,29.24,-7.89,27.62,0
1744,1744,29.25,-1.24,44.02,0
1745,1745,29.26,-1.85,51.91,0
1746,1746,29.28,-11.56,43.5,0
1747,1747,29.29,-13.37,35.86,0
1748,1748,29.3,-2.4,38.02,0
1749,1749,29.32,7.36,38.36,0
1750,1750,29.33,6.8,33.12,0
1751,1751,29.34,-2.25,30.48,0
1752,1752,29.36,-10.74,27.12,0
1753,1753,29.37,-10.19,19.07,0
1754,1754,29.38,-11.93,14.17,0
1755,1755,29.4,-25.47,14.61,0
1756,1756,29.41,-26.08,15.45,0
1757,1757,29.42,-0.25,13.87,0
1758,1758,29.44,19.31,7.34,0
1759,1759,29.45,13.28,-0.76,0
1760,1760,29.46,2.72,0.4,0
1761,1761,29.48,0.29,10.14,0
1762,1762,29.49,-1.09,16.48,0
1763,1763,29.5,-1.87,18.27,0
1764,1764,29.52,-0.31,19.3,0
1765,1765,29.53,-1.08,14.92,0
1766,1766,29.54,-5.6,5.33,0
1767,1767,29.56,-7.51,0.68,0
1768,1768,29.57,-2.03,0.42,0
1769,1769,29.58,4.03,-4.67,0
1770,1770,29.6,4.68,-10.44,0
1771,1771,29.61,7.65,-8.42,0
1772,1772,29.62,15.01,-3.21,0
1773,1773,29.64,15.16,-2.52,0
1774,1774,29.65,5.61,-7.84,0
1775,1775,29.67,-3.34,-14.52,0
1776,1776,29.68,-9.51,-12.41,0
1777,1777,29.69,-15.6,-0.19,0
1778,1778,29.71,-13.06,2.6,0
1779,1779,29.72,-0.49,-14.92,0
1780,1780,29.73,5.57,-29.16,0
1781,1781,29.75,-1.13,-23.06,0
1782,1782,29.76,-6.46,-14.4,0
1783,1783,29.77,-5.06,-15.98,0
1784,1784,29.79,-5.75,-20.19,0
1785,1785,29.8,-5.94,-22.5,0
1786,1786,29.81,1.97,-23.69,0
1787,1787,29.83,6.46,-25.87,0
1788,1788,29.84,-2.02,-28.9,0
1789,1789,29.85,-6.08,-24.05,0
1790,1790,29.86,4.15,-10.73,0
1791,1791,29.88,8.57,-1.87,0
1792,1792,29.89,-0.73,-5.62,0
1793,1793,29.9,-2.31,-15.0,0
1794,1794,29.92,12.45,-18.68,0
1795,1795,29.93,21.7,-20.26,0
1796,1796,29.94,12.91,-22.59,0
1797,1797,29.96,1.74,-14.0,0
1798,1798,29.97,-0.15,-0.08,0
1799,1799,29.98,2.99,-0.25,0
1800,1800,30.0,6.62,-13.1,0
1801,1801,30.01,2.91,-23.28,0
1802,1802,30.02,-7.45,-22.43,0
1803,1803,30.04,-7.16,-16.4,0
1804,1804,30.05,2.48,-11.16,0
1805,1805,30.06,5.29,-3.99,0
1806,1806,30.08,6.06,-4.54,0
1807,1807,30.09,6.92,-20.15,0
1808,1808,30.1,3.12,-25.91,0
1809,1809,30.12,3.62,-7.95,0
1810,1810,30.13,3.97,5.11,0
1811,1811,30.14,-4.72,-3.31,0
1812,1812,30.16,-9.33,-12.06,0
1813,1813,30.17,-6.28,-8.46,0
1814,1814,30.18,-2.57,-7.58,0
1815,1815,30.2,3.1,-19.84,0
1816,1816,30.21,5.06,-32.96,0
1817,1817,30.22,4.45,-24.16,0
1818,1818,30.24,15.97,10.6,0
1819,1819,30.25,36.55,55.78,0
1820,1820,30.26,49.25,98.09,0
1821,1821,30.28,42.32,110.16,0
1822,1822,30.29,8.4,58.48,0
1823,1823,30.3,-30.65,-8.38,0
1824,1824,30.32,-24.26,72.65,0
1825,1825,30.33,30.76,261.21,0
1826,1826,30.35,62.03,204.36,0
1827,1827,30.36,22.87,-89.96,0
1828,1828,30.37,-27.8,-167.81,0
1829,1829,30.39,-16.54,15.3,0
1830,1830,30.4,15.64,73.14,0
1831,1831,30.41,-4.59,-28.55,0
1832,1832,30.43,-42.63,-16.53,0
1833,1833,30.44,-45.06,62.24,0
1834,1834,30.45,-30.33,18.61,0
1835,1835,30.47,-19.91,-39.5,0
1836,1836,30.48,-8.81,1.19,0
1837,1837,30.49,-0.59,15.03,0
1838,1838,30.5,-9.84,-61.27,0
1839,1839,30.52,-23.2,-108.06,0
1840,1840,30.53,-16.36,-80.92,0
1841,1841,30.54,-4.07,-75.52,0
1842,1842,30.56,-4.65,-119.54,0
1843,1843,30.57,-9.06,-140.46,0
1844,1844,30.58,-11.77,-125.44,0
1845,1845,30.6,-18.01,-112.04,0
1846,1846,30.61,-27.06,-103.34,0
1847,1847,30.62,-29.44,-91.68,0
1848,1848,30.64,-11.42,-63.89,0
1849,1849,30.65,23.54,-18.1,0
1850,1850,30.67,35.24,7.19,0
1851,1851,30.68,0.91,-4.43,0
1852,1852,30.69,-33.04,-39.8,0
1853,1853,30.7,-24.22,-75.34,0
1854,1854,30.72,-0.55,-58.75,0
1855,1855,30.73,-2.18,-23.51,0
1856,1856,30.75,-16.25,-60.93,0
1857,1857,30.76,-11.7,-94.4,0
1858,1858,30.77,2.5,-20.75,0
1859,1859,30.78,5.89,36.68,0
1860,1860,30.8,6.24,-18.69,0
1861,1861,30.81,8.55,-50.38,0
1862,1862,30.82,3.41,-5.58,0
1863,1863,30.84,3.27,-17.64,0
1864,1864,30.85,21.56,-78.15,0
1865,1865,30.86,26.87,-59.51,0
1866,1866,30.88,-0.08,6.41,0
1867,1867,30.89,-20.15,21.15,0
1868,1868,30.9,-10.97,-7.04,0
1869,1869,30.92,1.32,-35.01,0
1870,1870,30.93,1.32,-31.44,0
1871,1871,30.94,-2.71,9.39,0
1872,1872,30.96,-1.02,22.8,0
1873,1873,30.97,14.1,0.94,0
1874,1874,30.99,29.31,12.85,0
1875,1875,31.0,22.29,40.65,0
1876,1876,31.01,5.33,60.96,0
1877,1877,31.03,2.24,95.89,0
1878,1878,31.04,12.72,93.58,0
1879,1879,31.05,22.23,29.27,0
1880,1880,31.07,17.16,-1.75,0
1881,1881,31.08,4.74,36.85,0
1882,1882,31.09,6.17,58.04,0
1883,1883,31.11,14.14,23.08,0
1884,1884,31.12,7.46,-21.04,0
1885,1885,31.13,-5.53,-41.77,0
1886,1886,31.14,-2.33,-22.8,0
1887,1887,31.16,11.38,24.58,0
1888,1888,31.17,7.26,38.8,0
1889,1889,31.18,-11.3,22.36,0
1890,1890,31.2,-7.43,42.45,0
1891,1891,31.21,18.81,77.44,0
1892,1892,31.22,26.14,83.54,0
1893,1893,31.24,6.02,85.96,0
1894,1894,31.25,-10.22,70.78,0
1895,1895,31.26,-6.88,14.5,0
1896,1896,31.28,1.34,-24.57,0
1897,1897,31.29,-8.0,-23.97,0
1898,1898,31.3,-25.89,-22.62,0
1899,1899,31.32,-16.81,18.19,0
1900,1900,31.33,12.33,84.9,0
1901,1901,31.34,22.99,44.09,0
1902,1902,31.36,11.13,-33.0,0
1903,1903,31.37,-5.82,34.28,0
1904,1904,31.38,-14.15,141.05,0
1905,1905,31.4,-5.63,112.12,0
1906,1906,31.41,7.48,17.26,0
1907,1907,31.42,7.48,-7.73,0
1908,1908,31.44,2.16,30.29,0
1909,1909,31.45,6.81,43.18,0
1910,1910,31.46,12.81,24.13,0
1911,1911,31.48,6.78,39.21,0
1912,1912,31.49,-1.25,68.89,0
1913,1913,31.5,2.64,40.95,0
1914,1914,31.52,17.11,-10.9,0
1915,1915,31.53,29.72,-7.05,0
1916,1916,31.54,23.4,34.83,0
1917,1917,31.56,7.54,54.54,0
1918,1918,31.57,10.12,37.4,0
1919,1919,31.58,15.67,-0.81,0
1920,1920,31.6,-0.48,-21.94,0
1921,1921,31.61,-13.79,-4.57,0
1922,1922,31.63,-7.14,21.43,0
1923,1923,31.64,-0.55,23.47,0
1924,1924,31.65,-3.6,8.31,0
1925,1925,31.67,-12.27,11.89,0
1926,1926,31.68,-23.34,30.89,0
1927,1927,31.69,-23.03,18.83,0
1928,1928,31.71,-2.38,-5.84,0
1929,1929,31.72,17.08,5.57,0
1930,1930,31.73,7.29,13.12,0
1931,1931,31.75,-13.21,-26.21,0
1932,1932,31.76,-8.68,-60.97,0
1933,1933,31.77,-1.1,-40.19,0
1934,1934,31.78,-18.99,8.03,0
1935,1935,31.8,-31.92,17.75,0
1936,1936,31.81,-18.1,-14.76,0
1937,1937,31.82,-5.53,-19.75,0
1938,1938,31.84,-14.6,7.35,0
1939,1939,31.85,-23.42,14.08,0
1940,1940,31.86,-5.65,2.33,0
1941,1941,31.88,18.46,-30.16,0
1942,1942,31.89,10.73,-68.66,0
1943,1943,31.9,-16.4,-53.11,0
1944,1944,31.92,-21.82,-14.95,0
1945,1945,31.93,-0.61,-18.89,0
1946,1946,31.94,15.74,-32.69,0
1947,1947,31.96,-0.1,-16.0,0
1948,1948,31.97,-24.89,3.6,0
1949,1949,31.98,-10.88,-6.02,0
1950,1950,32.0,26.13,-30.28,0
1951,1951,32.01,28.21,-34.8,0
1952,1952,32.03,-4.95,-2.09,0
1953,1953,32.04,-24.08,29.31,0
1954,1954,32.05,-21.52,24.97,0
1955,1955,32.06,-27.41,38.97,0
1956,1956,32.08,-35.64,60.23,0
1957,1957,32.09,-14.73,11.6,0
1958,1958,32.11,24.12,-31.3,0
1959,1959,32.12,31.74,13.72,0
1960,1960,32.13,7.25,48.1,0
1961,1961,32.15,-5.81,7.86,0
1962,1962,32.16,0.01,-21.68,0
1963,1963,32.17,6.72,-18.82,0
1964,1964,32.19,2.96,-50.13,0
1965,1965,32.2,-8.01,-71.05,0
1966,1966,32.21,-9.91,-29.08,0
1967,1967,32.22,-9.57,-6.85,0
1968,1968,32.24,-15.92,-39.47,0
1969,1969,32.25,-7.01,-42.99,0
1970,1970,32.27,16.14,14.98,0
1971,1971,32.28,21.36,63.11,0
1972,1972,32.29,13.7,46.29,0
1973,1973,32.31,12.34,-4.1,0
1974,1974,32.32,1.81,-53.69,0
1975,1975,32.33,-15.74,-129.63,0
1976,1976,32.35,-16.28,-228.45,0
1977,1977,32.36,-13.66,-277.94,0
1978,1978,32.37,-13.31,-253.55,0
1979,1979,32.39,7.99,-202.62,0
1980,1980,32.4,26.18,-150.15,0
1981,1981,32.41,15.36,-85.09,0
1982,1982,32.43,14.82,-15.22,0
1983,1983,32.44,33.61,40.04,0
1984,1984,32.45,25.27,81.96,0
1985,1985,32.47,-2.27,113.21,0
1986,1986,32.48,-5.46,119.78,0
1987,1987,32.49,2.81,105.46,0
1988,1988,32.51,-6.07,103.63,0
1989,1989,32.52,-17.84,120.83,0
1990,1990,32.53,-10.6,121.3,0
1991,1991,32.54,5.5,93.35,0
1992,1992,32.56,6.1,68.83,0
1993,1993,32.57,-4.96,63.52,0
1994,1994,32.59,-2.48,65.1,0
1995,1995,32.6,12.36,70.53,0
1996,1996,32.61,14.35,76.5,0
1997,1997,32.63,-2.12,70.38,0
1998,1998,32.64,-13.01,56.77,0
1999,1999,32.65,-4.68,44.98,0
2000,2000,32.67,0.84,32.79,0
2001,2001,32.68,-8.93,27.15,0
2002,2002,32.69,-12.7,30.61,0
2003,2003,32.71,-3.83,27.72,0
2004,2004,32.72,1.34,20.06,0
2005,2005,32.73,2.78,21.2,0
2006,2006,32.75,4.17,26.1,0
2007,2007,32.76,-0.61,25.34,0
2008,2008,32.77,-2.77,16.28,0
2009,2009,32.79,3.48,3.82,0
2010,2010,32.8,3.41,5.37,0
2011,2011,32.81,-4.11,17.59,0
2012,2012,32.83,-4.85,12.34,0
2013,2013,32.84,1.62,-8.11,0
2014,2014,32.85,3.3,-14.43,0
2015,2015,32.87,-1.17,-5.26,0
2016,2016,32.88,-1.07,-1.43,0
2017,2017,32.89,5.22,-3.86,0
2018,2018,32.9,6.59,3.71,0
2019,2019,32.92,-3.75,17.08,0
2020,2020,32.93,-14.02,12.11,0
2021,2021,32.95,-7.72,-8.55,0
2022,2022,32.96,3.61,-18.25,0
2023,2023,32.97,-1.85,-11.39,0
2024,2024,32.99,-11.61,-3.0,0
2025,2025,33.0,-9.24,-6.03,0
2026,2026,33.01,-6.89,-15.74,0
2027,2027,33.03,-6.2,-16.01,0
2028,2028,33.04,2.89,-8.94,0
2029,2029,33.05,9.7,-7.83,0
2030,2030,33.06,8.13,-8.53,0
2031,2031,33.08,5.27,-8.72,0
2032,2032,33.09,1.87,-21.22,0
2033,2033,33.11,0.01,-35.14,0
2034,2034,33.12,4.83,-24.95,0
2035,2035,33.13,15.15,-5.37,0
2036,2036,33.15,25.72,-8.83,0
2037,2037,33.16,23.7,-28.22,0
2038,2038,33.17,1.52,-33.66,0
2039,2039,33.19,-17.36,-21.3,0
2040,2040,33.2,-6.54,-10.88,0
2041,2041,33.21,14.37,-9.31,0
2042,2042,33.22,9.83,-12.79,0
2043,2043,33.24,-9.09,-23.48,0
2044,2044,33.25,-8.26,-33.92,0
2045,2045,33.27,3.76,-27.88,0
2046,2046,33.28,1.58,-11.61,0
2047,2047,33.29,-3.1,-7.09,0
2048,2048,33.31,0.1,-10.75,0
2049,2049,33.32,-2.81,-4.89,0
2050,2050,33.33,-6.43,2.48,0
2051,2051,33.35,3.88,-5.99,0
2052,2052,33.36,16.3,-24.74,0
2053,2053,33.37,14.07,-31.1,0
2054,2054,33.38,2.5,-18.78,0
2055,2055,33.4,-2.9,-11.66,0
2056,2056,33.41,0.99,-22.67,0
2057,2057,33.43,2.11,-29.14,0
2058,2058,33.44,-1.41,-14.51,0
2059,2059,33.45,1.47,-0.47,0
2060,2060,33.47,8.0,-7.32,0
2061,2061,33.48,7.42,-17.73,0
2062,2062,33.49,1.37,-14.73,0
2063,2063,33.51,-1.12,-9.46,0
2064,2064,33.52,2.4,-11.39,0
2065,2065,33.53,5.69,-13.41,0
2066,2066,33.54,2.58,-12.3,0
2067,2067,33.56,-2.65,-11.29,0
2068,2068,33.57,-5.0,-5.16,0
2069,2069,33.59,-7.02,6.94,0
2070,2070,33.6,-5.62,10.71,0
2071,2071,33.61,-1.56,1.04,0
2072,2072,33.63,-6.88,-10.42,0
2073,2073,33.64,-15.15,-15.63,0
2074,2074,33.65,-7.76,-14.53,0
2075,2075,33.67,6.17,-6.89,0
2076,2076,33.68,3.43,4.06,0
2077,2077,33.69,-7.6,5.64,0
2078,2078,33.71,-5.59,-9.03,0
2079,2079,33.72,1.15,-22.65,0
2080,2080,33.73,-3.5,-15.88,0
2081,2081,33.75,-10.01,1.65,0
2082,2082,33.76,-6.74,6.75,0
2083,2083,33.77,-4.28,-4.06,0
2084,2084,33.79,-9.66,-13.88,0
2085,2085,33.8,-5.93,-9.31,0
2086,2086,33.81,10.89,-2.32,0
2087,2087,33.83,14.46,-11.39,0
2088,2088,33.84,0.98,-20.86,0
2089,2089,33.85,1.44,-8.12,0
2090,2090,33.87,15.55,5.76,0
2091,2091,33.88,10.1,-0.85,0
2092,2092,33.89,-10.63,-7.14,0
2093,2093,33.9,-15.12,3.92,0
2094,2094,33.92,-6.54,15.21,0
2095,2095,33.93,-4.74,7.14,0
2096,2096,33.95,-6.89,-7.36,0
2097,2097,33.96,-5.03,0.25,0
2098,2098,33.97,-1.72,19.79,0
2099,2099,33.99,-0.63,19.27,0
2100,2100,34.0,-4.16,5.1,0
2101,2101,34.01,-7.61,0.81,0
2102,2102,34.03,-1.17,4.39,0
2103,2103,34.04,9.99,8.94,0
2104,2104,34.05,7.45,13.54,0
2105,2105,34.06,-7.0,13.29,0
2106,2106,34.08,-11.9,13.02,0
2107,2107,34.09,-5.0,19.02,0
2108,2108,34.11,1.29,20.45,0
2109,2109,34.12,5.82,9.7,0
2110,2110,34.13,8.83,-2.54,0
2111,2111,34.15,7.1,-5.56,0
2112,2112,34.16,3.29,-5.08,0
2113,2113,34.17,-3.79,-6.34,0
2114,2114,34.19,-14.32,-6.55,0
2115,2115,34.2,-14.86,-23.22,0
2116,2116,34.21,-0.66,-71.22,0
2117,2117,34.23,14.22,-110.86,0
2118,2118,34.24,22.0,-104.8,0
2119,2119,34.25,27.85,-87.36,0
2120,2120,34.27,29.28,-98.55,0
2121,2121,34.28,19.81,-119.04,0
2122,2122,34.29,9.99,-125.66,0
2123,2123,34.31,10.84,-126.75,0
2124,2124,34.32,21.01,-125.83,0
2125,2125,34.33,33.4,-111.58,0
2126,2126,34.35,29.79,-81.58,0
2127,2127,34.36,9.36,-49.79,0
2128,2128,34.37,3.48,-22.63,0
2129,2129,34.38,16.15,7.91,0
2130,2130,34.4,13.12,40.06,0
2131,2131,34.41,-5.96,69.32,0
2132,2132,34.43,-7.86,103.04,0
2133,2133,34.44,0.63,138.65,0
2134,2134,34.45,-9.7,157.81,0
2135,2135,34.47,-24.02,157.54,0
2136,2136,34.48,-21.01,159.96,0
2137,2137,34.49,-16.36,178.42,0
2138,2138,34.51,-20.14,197.19,0
2139,2139,34.52,-20.03,197.85,0
2140,2140,34.53,-14.06,185.24,0
2141,2141,34.54,-15.57,174.9,0
2142,2142,34.56,-24.95,167.93,0
2143,2143,34.57,-23.3,155.0,0
2144,2144,34.59,-10.2,136.33,0
2145,2145,34.6,-8.44,122.17,0
2146,2146,34.61,-17.92,115.3,0
2147,2147,34.63,-17.98,105.9,0
2148,2148,34.64,-8.85,88.65,0
2149,2149,34.65,-6.08,68.24,0
2150,2150,34.67,-12.32,50.18,0
2151,2151,34.68,-17.47,38.95,0
2152,2152,34.69,-18.31,32.29,0
2153,2153,34.71,-19.52,21.64,0
2154,2154,34.72,-17.67,10.68,0
2155,2155,34.73,-4.0,7.69,0
2156,2156,34.75,8.88,3.69,0
2157,2157,34.76,0.79,-7.78,0
2158,2158,34.77,-14.17,-12.52,0
2159,2159,34.79,-9.97,-5.96,0
2160,2160,34.8,0.25,-3.85,0
2161,2161,34.81,-8.41,-11.17,0
2162,2162,34.83,-20.42,-18.11,0
2163,2163,34.84,-12.77,-22.43,0
2164,2164,34.85,1.55,-31.06,0
2165,2165,34.87,6.35,-45.56,0
2166,2166,34.88,7.69,-54.99,0
2167,2167,34.89,7.22,-51.61,0
2168,2168,34.91,1.2,-43.78,0
2169,2169,34.92,-5.24,-40.25,0
2170,2170,34.93,-6.91,-39.12,0
2171,2171,34.95,-1.33,-36.69,0
2172,2172,34.96,11.02,-36.37,0
2173,2173,34.97,18.63,-44.74,0
2174,2174,34.99,12.16,-57.27,0
2175,2175,35.0,0.27,-62.09,0
2176,2176,35.01,-4.07,-61.96,0
2177,2177,35.03,0.8,-66.32,0
2178,2178,35.04,7.64,-66.05,0
2179,2179,35.05,7.42,-53.45,0
2180,2180,35.06,1.69,-43.73,0
2181,2181,35.08,3.22,-45.63,0
2182,2182,35.09,16.52,-51.21,0
2183,2183,35.11,24.56,-54.65,0
2184,2184,35.12,15.29,-55.62,0
2185,2185,35.13,4.49,-56.47,0
2186,2186,35.15,7.7,-57.5,0
2187,2187,35.16,15.4,-56.12,0
2188,2188,35.17,9.98,-51.1,0
2189,2189,35.19,-0.53,-45.4,0
2190,2190,35.2,3.9,-44.04,0
2191,2191,35.21,11.6,-47.79,0
2192,2192,35.22,1.64,-54.43,0
2193,2193,35.24,-11.68,-59.2,0
2194,2194,35.25,-7.85,-55.25,0
2195,2195,35.27,4.94,-45.07,0
2196,2196,35.28,12.1,-40.31,0
2197,2197,35.29,12.03,-49.74,0
2198,2198,35.31,12.32,-66.78,0
2199,2199,35.32,23.26,-66.71,0
2200,2200,35.33,40.01,-41.3,0
2201,2201,35.35,39.18,-18.7,0
2202,2202,35.36,15.52,-15.91,0
2203,2203,35.37,-4.53,-16.76,0
2204,2204,35.38,-4.77,-13.68,0
2205,2205,35.4,1.85,-13.78,0
2206,2206,35.41,3.42,-10.7,0
2207,2207,35.43,2.81,-2.5,0
2208,2208,35.44,-2.22,0.17,0
2209,2209,35.45,-12.26,-1.43,0
2210,2210,35.47,-10.8,-5.49,0
2211,2211,35.48,3.72,-16.21,0
2212,2212,35.49,9.6,-22.27,0
2213,2213,35.51,4.97,-12.72,0
2214,2214,35.52,6.17,2.21,0
2215,2215,35.53,9.03,12.07,0
2216,2216,35.55,-1.39,13.38,0
2217,2217,35.56,-16.28,7.44,0
2218,2218,35.57,-13.99,1.61,0
2219,2219,35.59,-4.22,-4.91,0
2220,2220,35.6,-7.18,-8.76,0
2221,2221,35.61,-8.91,-0.39,0
2222,2222,35.63,2.93,6.76,0
2223,2223,35.64,7.37,4.21,0
2224,2224,35.65,-1.46,7.9,0
2225,2225,35.67,-2.65,13.67,0
2226,2226,35.68,3.4,7.47,0
2227,2227,35.69,0.34,4.67,0
2228,2228,35.71,-5.93,13.88,0
2229,2229,35.72,-6.16,21.71,0
2230,2230,35.73,-4.68,26.76,0
2231,2231,35.75,-1.65,23.56,0
2232,2232,35.76,-1.45,4.59,0
2233,2233,35.77,-9.36,-4.61,0
2234,2234,35.79,-12.88,8.31,0
2235,2235,35.8,-6.98,15.48,0
2236,2236,35.81,-3.23,11.94,0
2237,2237,35.83,-2.61,16.18,0
2238,2238,35.84,2.3,20.83,0
2239,2239,35.85,11.37,12.77,0
2240,2240,35.87,17.92,3.86,0
2241,2241,35.88,13.59,9.12,0
2242,2242,35.89,1.74,20.53,0
2243,2243,35.9,-5.44,23.34,0
2244,2244,35.92,-7.89,24.17,0
2245,2245,35.93,-6.44,27.42,0
2246,2246,35.95,6.8,20.12,0
2247,2247,35.96,15.02,8.79,0
2248,2248,35.97,-5.54,12.07,0
2249,2249,35.99,-31.89,22.98,0
2250,2250,36.0,-29.67,24.61,0
2251,2251,36.01,-10.11,19.62,0
2252,2252,36.03,0.11,18.24,0
2253,2253,36.04,-1.17,19.5,0
2254,2254,36.05,-7.43,22.97,0
2255,2255,36.06,-16.84,29.72,0
2256,2256,36.08,-22.37,31.94,0
2257,2257,36.09,-14.47,28.07,0
2258,2258,36.11,8.28,25.36,0
2259,2259,36.12,27.47,20.31,0
2260,2260,36.13,20.71,12.6,0
2261,2261,36.15,3.09,23.26,0
2262,2262,36.16,-0.33,78.34,0
2263,2263,36.17,-2.41,180.15,0
2264,2264,36.19,-15.6,286.15,0
2265,2265,36.2,-29.64,339.09,0
2266,2266,36.21,-36.92,326.31,0
2267,2267,36.23,-34.0,270.54,0
2268,2268,36.24,-24.24,194.08,0
2269,2269,36.25,-15.67,115.3,0
2270,2270,36.27,-8.84,46.77,0
2271,2271,36.28,-5.64,-5.27,0
2272,2272,36.29,-4.03,-43.76,0
2273,2273,36.31,5.7,-90.0,0
2274,2274,36.32,16.9,-154.2,0
2275,2275,36.33,17.0,-211.38,0
2276,2276,36.35,17.2,-226.78,0
2277,2277,36.36,26.99,-205.62,0
2278,2278,36.37,32.59,-189.19,0
2279,2279,36.38,24.46,-191.5,0
2280,2280,36.4,14.22,-182.84,0
2281,2281,36.41,17.74,-154.37,0
2282,2282,36.43,28.31,-137.73,0
2283,2283,36.44,24.32,-135.98,0
2284,2284,36.45,8.97,-114.52,0
2285,2285,36.47,3.32,-77.52,0
2286,2286,36.48,12.03,-64.82,0
2287,2287,36.49,22.14,-79.25,0
2288,2288,36.51,17.62,-92.28,0
2289,2289,36.52,-1.6,-92.88,0
2290,2290,36.53,-13.7,-84.36,0
2291,2291,36.54,-5.54,-73.05,0
2292,2292,36.56,5.27,-65.08,0
2293,2293,36.57,2.07,-54.49,0
2294,2294,36.59,-4.15,-37.54,0
2295,2295,36.6,-4.05,-22.26,0
2296,2296,36.61,-2.54,-12.85,0
2297,2297,36.63,4.67,-11.89,0
2298,2298,36.64,14.32,-17.51,0
2299,2299,36.65,8.7,-16.95,0
2300,2300,36.67,-2.82,-6.72,0
2301,2301,36.68,-0.14,0.74,0
2302,2302,36.69,3.34,5.03,0
2303,2303,36.71,-7.08,14.46,0
2304,2304,36.72,-15.67,19.23,0
2305,2305,36.73,-9.18,13.29,0
2306,2306,36.75,1.18,15.66,0
2307,2307,36.76,3.23,27.13,0
2308,2308,36.77,1.45,26.32,0
2309,2309,36.79,-1.11,19.39,0
2310,2310,36.8,-6.91,23.11,0
2311,2311,36.81,-5.86,29.18,0
2312,2312,36.83,6.17,28.01,0
2313,2313,36.84,10.41,26.01,0
2314,2314,36.85,0.69,29.85,0
2315,2315,36.87,-4.36,36.7,0
2316,2316,36.88,2.94,39.02,0
2317,2317,36.89,8.55,35.08,0
2318,2318,36.9,-0.5,32.71,0
2319,2319,36.92,-16.68,41.19,0
2320,2320,36.93,-17.52,52.81,0
2321,2321,36.95,-1.15,52.26,0
2322,2322,36.96,5.19,46.26,0
2323,2323,36.97,-5.46,46.92,0
2324,2324,36.99,-9.11,49.11,0
2325,2325,37.0,-3.26,48.71,0
2326,2326,37.01,-6.15,46.02,0
2327,2327,37.03,-8.18,40.23,0
2328,2328,37.04,5.26,36.06,0
2329,2329,37.05,13.26,36.23,0
2330,2330,37.06,1.98,33.55,0
2331,2331,37.08,-7.67,27.55,0
2332,2332,37.09,-4.82,25.53,0
2333,2333,37.11,-1.4,30.05,0
2334,2334,37.12,-1.64,38.52,0
2335,2335,37.13,0.82,45.09,0
2336,2336,37.15,4.1,41.45,0
2337,2337,37.16,-3.38,28.9,0
2338,2338,37.17,-17.18,22.38,0
2339,2339,37.19,-16.19,28.67,0
2340,2340,37.2,-2.8,34.82,0
2341,2341,37.21,1.32,33.84,0
2342,2342,37.22,-1.01,32.18,0
2343,2343,37.24,0.92,30.85,0
2344,2344,37.25,-6.14,27.67,0
2345,2345,37.27,-24.88,23.6,0
2346,2346,37.28,-28.45,18.46,0
2347,2347,37.29,-7.88,13.85,0
2348,2348,37.31,9.19,13.29,0
2349,2349,37.32,5.45,13.73,0
2350,2350,37.33,-3.82,13.56,0
2351,2351,37.35,-4.77,19.32,0
2352,2352,37.36,-4.18,28.71,0
2353,2353,37.37,-9.16,28.2,0
2354,2354,37.38,-9.03,17.37,0
2355,2355,37.4,4.45,9.94,0
2356,2356,37.41,8.51,10.07,0
2357,2357,37.43,-10.01,9.23,0
2358,2358,37.44,-19.13,3.44,0
2359,2359,37.45,-6.9,0.88,0
2360,2360,37.47,-3.38,6.83,0
2361,2361,37.48,-6.31,7.5,0
2362,2362,37.49,9.83,-7.3,0
2363,2363,37.51,27.21,-16.83,0
2364,2364,37.52,17.35,-9.04,0
2365,2365,37.53,-0.86,-2.99,0
2366,2366,37.54,3.4,-3.19,0
2367,2367,37.56,13.58,1.33,0
2368,2368,37.57,1.12,2.41,0
2369,2369,37.59,-16.53,-3.43,0
2370,2370,37.6,-14.11,-2.48,0
2371,2371,37.61,-2.68,1.65,0
2372,2372,37.63,1.1,-3.31,0
2373,2373,37.64,-0.74,-10.33,0
2374,2374,37.65,-2.03,-6.06,0
2375,2375,37.67,-2.86,4.09,0
2376,2376,37.68,-3.57,-0.23,0
2377,2377,37.69,-0.19,-20.14,0
2378,2378,37.71,7.09,-35.49,0
2379,2379,37.72,9.6,-37.25,0
2380,2380,37.73,6.86,-28.33,0
2381,2381,37.75,6.5,-12.45,0
2382,2382,37.76,4.96,-5.25,0
2383,2383,37.77,-0.55,-20.82,0
2384,2384,37.79,-0.35,-40.38,0
2385,2385,37.8,6.09,-36.46,0
2386,2386,37.81,7.32,-19.38,0
2387,2387,37.83,5.38,-13.06,0
2388,2388,37.84,5.96,-14.79,0
2389,2389,37.85,5.01,-15.54,0
2390,2390,37.87,5.45,-17.8,0
2391,2391,37.88,4.71,-23.18,0
2392,2392,37.89,-3.35,-27.19,0
2393,2393,37.9,-3.29,-26.17,0
2394,2394,37.92,8.5,-19.18,0
2395,2395,37.93,8.0,-9.82,0
2396,2396,37.95,-2.09,-9.64,0
2397,2397,37.96,0.92,-17.53,0
2398,2398,37.97,5.11,-18.94,0
2399,2399,37.99,-3.62,-16.26,0
2400,2400,38.0,-7.32,-18.9,0
2401,2401,38.01,-1.52,-19.04,0
2402,2402,38.03,-2.24,-14.08,0
2403,2403,38.04,-8.03,-14.06,0
2404,2404,38.05,-7.19,-14.09,0
2405,2405,38.06,-5.17,-8.64,0
2406,2406,38.08,-11.74,-12.32,0
2407,2407,38.09,-13.68,-22.8,0
2408,2408,38.11,4.34,-22.55,0
2409,2409,38.12,22.42,-18.89,0
2410,2410,38.13,15.03,-17.56,0
2411,2411,38.15,-2.0,-10.43,0
2412,2412,38.16,-2.13,-4.68,0
2413,2413,38.17,2.85,6.43,0
2414,2414,38.19,-4.99,9.59,0
2415,2415,38.2,-6.96,-53.42,0
2416,2416,38.21,18.52,-98.29,0
2417,2417,38.22,43.69,-42.13,0
2418,2418,38.24,25.98,-44.53,0
2419,2419,38.25,0.54,-105.41,0
2420,2420,38.27,18.01,7.4,0
2421,2421,38.28,21.82,259.41,0
2422,2422,38.29,-32.77,396.56,0
2423,2423,38.31,-81.51,355.94,0
2424,2424,38.32,-70.74,303.09,0
2425,2425,38.33,-17.27,326.02,0
2426,2426,38.35,20.35,333.19,0
2427,2427,38.36,-0.98,253.02,0
2428,2428,38.37,-34.34,107.77,0
2429,2429,38.38,-3.64,-37.34,0
2430,2430,38.4,51.37,-149.46,0
2431,2431,38.41,40.38,-241.54,0
2432,2432,38.43,6.1,-215.76,0
2433,2433,38.44,24.7,-19.57,0
2434,2434,38.45,27.34,98.36,0
2435,2435,38.47,-24.89,-30.66,0
2436,2436,38.48,-25.92,-215.77,0
2437,2437,38.49,36.32,-244.88,0
2438,2438,38.51,50.74,-159.07,0
2439,2439,38.52,8.92,-141.29,0
2440,2440,38.53,-7.96,-182.79,0
2441,2441,38.54,6.01,-131.3,0
2442,2442,38.56,-1.67,-80.19,0
2443,2443,38.57,-22.09,-165.35,0
2444,2444,38.59,-11.09,-231.02,0
2445,2445,38.6,17.27,-176.61,0
2446,2446,38.61,20.9,-134.88,0
2447,2447,38.63,0.69,-154.09,0
2448,2448,38.64,-12.91,-174.89,0
2449,2449,38.65,-8.87,-178.74,0
2450,2450,38.67,-1.95,-143.41,0
2451,2451,38.68,-3.98,-74.1,0
2452,2452,38.69,-8.69,-45.51,0
2453,2453,38.71,-8.56,-70.65,0
2454,2454,38.72,-5.35,-76.75,0
2455,2455,38.73,-1.17,-45.83,0
2456,2456,38.75,1.16,-28.75,0
2457,2457,38.76,-6.95,-44.67,0
2458,2458,38.77,-21.34,-60.16,0
2459,2459,38.79,-21.24,-48.43,0
2460,2460,38.8,2.36,-27.46,0
2461,2461,38.81,32.04,-16.45,0
2462,2462,38.83,34.79,-5.69,0
2463,2463,38.84,7.45,8.78,0
2464,2464,38.85,-13.43,12.92,0
2465,2465,38.87,-15.09,5.88,0
2466,2466,38.88,-14.67,17.42,0
2467,2467,38.89,-10.59,47.07,0
2468,2468,38.9,2.14,47.8,0
2469,2469,38.92,6.86,24.2,0
2470,2470,38.93,-3.24,26.9,0
2471,2471,38.95,-11.31,56.98,0
2472,2472,38.96,-6.61,71.63,0
2473,2473,38.97,7.21,50.21,0
2474,2474,38.99,23.49,21.69,0
2475,2475,39.0,27.55,17.67,0
2476,2476,39.01,12.88,27.78,0
2477,2477,39.03,3.44,46.62,0
2478,2478,39.04,6.35,73.7,0
2479,2479,39.05,-9.71,65.08,0
2480,2480,39.06,-29.14,5.11,0
2481,2481,39.08,-6.8,-33.1,0
2482,2482,39.09,22.12,20.62,0
2483,2483,39.11,7.17,107.87,0
2484,2484,39.12,-22.2,104.81,0
2485,2485,39.13,-27.82,44.89,0
2486,2486,39.15,-16.72,64.13,0
2487,2487,39.16,-6.19,131.98,0
2488,2488,39.17,-1.52,116.68,0
2489,2489,39.19,-3.69,38.49,0
2490,2490,39.2,-12.09,16.37,0
2491,2491,39.21,-6.78,45.97,0
2492,2492,39.22,16.54,34.77,0
2493,2493,39.24,18.3,5.01,0
2494,2494,39.25,-2.71,28.49,0
2495,2495,39.27,-3.7,57.05,0
2496,2496,39.28,7.25,48.29,0
2497,2497,39.29,1.98,50.75,0
2498,2498,39.31,-4.44,72.79,0
2499,2499,39.32,0.71,71.56,0
2500,2500,39.33,3.46,49.71,0
2501,2501,39.35,0.34,59.66,0
2502,2502,39.36,1.43,97.43,0
2503,2503,39.37,10.24,89.96,0
2504,2504,39.38,19.51,51.4,0
2505,2505,39.4,12.87,46.97,0
2506,2506,39.41,-11.68,43.93,0
2507,2507,39.43,-25.02,23.41,0
2508,2508,39.44,-13.6,26.58,0
2509,2509,39.45,0.75,35.97,0
2510,2510,39.47,5.62,42.46,0
2511,2511,39.48,4.65,66.38,0
2512,2512,39.49,-1.56,63.49,0
2513,2513,39.51,-6.28,22.64,0
2514,2514,39.52,-3.17,10.54,0
2515,2515,39.53,5.42,44.13,0
2516,2516,39.54,13.93,66.33,0
2517,2517,39.56,4.71,44.36,0
2518,2518,39.57,-17.55,15.36,0
2519,2519,39.59,-17.31,9.26,0
2520,2520,39.6,5.07,17.7,0
2521,2521,39.61,16.98,29.41,0
2522,2522,39.63,10.12,36.06,0
2523,2523,39.64,6.26,51.22,0
2524,2524,39.65,16.11,55.71,0
2525,2525,39.67,16.91,3.58,0
2526,2526,39.68,7.84,-42.11,0
2527,2527,39.69,12.87,-27.77,0
2528,2528,39.71,17.77,-32.0,0
2529,2529,39.72,2.7,-43.83,0
2530,2530,39.73,-9.67,12.66,0
2531,2531,39.75,5.4,50.95,0
2532,2532,39.76,30.65,11.17,0
2533,2533,39.77,30.41,-13.29,0
2534,2534,39.79,3.51,-5.53,0
2535,2535,39.8,-19.67,5.68,0
2536,2536,39.81,-26.73,51.79,0
2537,2537,39.83,-28.78,75.74,0
2538,2538,39.84,-21.99,17.45,0
2539,2539,39.85,-2.69,-33.09,0
2540,2540,39.87,0.06,-32.58,0
2541,2541,39.88,-24.5,-45.0,0
2542,2542,39.89,-37.98,-52.36,0
2543,2543,39.9,-24.67,-7.22,0
2544,2544,39.92,-12.59,27.61,0
2545,2545,39.93,-10.37,-7.83,0
2546,2546,39.95,-7.57,-64.33,0
2547,2547,39.96,-6.41,-65.11,0
2548,2548,39.97,-2.67,-4.87,0
2549,2549,39.99,7.04,38.59,0
2550,2550,40.0,6.58,23.33,0
2551,2551,40.01,-7.45,11.07,0
2552,2552,40.03,-14.88,14.35,0
2553,2553,40.04,-4.08,-19.4,0
2554,2554,40.05,8.39,-49.9,0
2555,2555,40.065,-5.73,-34.25,0
2556,2556,40.08,-36.65,-32.36,0
2557,2557,40.09,-35.81,-59.47,0
2558,2558,40.11,-0.55,-51.71,0
2559,2559,40.12,20.12,-19.82,0
2560,2560,40.13,12.47,-27.84,0
2561,2561,40.15,4.24,-53.22,0
2562,2562,40.16,9.08,-41.35,0
2563,2563,40.17,14.85,-12.0,0
2564,2564,40.19,14.44,1.82,0
2565,2565,40.2,12.49,0.65,0
2566,2566,40.21,1.11,-20.48,0
2567,2567,40.22,-12.89,-49.63,0
2568,2568,40.24,-1.75,-48.44,0
2569,2569,40.25,25.61,-23.39,0
2570,2570,40.27,41.37,-18.89,0
2571,2571,40.28,39.01,-37.77,0
2572,2572,40.29,24.03,-50.41,0
2573,2573,40.31,12.15,-47.26,0
2574,2574,40.32,8.03,-39.85,0
2575,2575,40.33,-4.36,-46.62,0
2576,2576,40.35,-19.3,-74.71,0
2577,2577,40.36,-16.87,-95.92,0
2578,2578,40.37,-8.24,-84.28,0
2579,2579,40.38,-13.29,-78.11,0
2580,2580,40.4,-20.51,-126.32,0
2581,2581,40.41,-17.26,-205.28,0
2582,2582,40.43,-12.17,-247.21,0
2583,2583,40.44,-3.52,-223.89,0
2584,2584,40.45,14.24,-171.7,0
2585,2585,40.47,24.59,-121.91,0
2586,2586,40.48,21.45,-64.15,0
2587,2587,40.49,16.06,2.48,0
2588,2588,40.51,5.46,57.46,0
2589,2589,40.52,-6.13,85.63,0
2590,2590,40.53,-2.14,92.38,0
2591,2591,40.54,7.89,102.45,0
2592,2592,40.56,5.66,112.85,0
2593,2593,40.57,-1.39,95.16,0
2594,2594,40.59,1.25,65.87,0
2595,2595,40.6,8.18,63.72,0
2596,2596,40.61,2.98,75.04,0
2597,2597,40.63,-10.26,64.71,0
2598,2598,40.64,-12.5,40.63,0
2599,2599,40.65,-4.07,31.04,0
2600,2600,40.67,9.96,39.09,0
2601,2601,40.68,25.35,52.32,0
2602,2602,40.69,24.17,64.26,0
2603,2603,40.71,12.32,70.34,0
2604,2604,40.72,10.03,63.23,0
2605,2605,40.73,8.49,43.61,0
2606,2606,40.75,1.97,31.86,0
2607,2607,40.76,-0.13,38.4,0
2608,2608,40.77,-0.63,41.82,0
2609,2609,40.79,-0.77,30.23,0
2610,2610,40.8,-0.03,21.78,0
2611,2611,40.81,-8.69,24.2,0
2612,2612,40.83,-21.45,24.9,0
2613,2613,40.84,-19.74,19.54,0
2614,2614,40.85,-9.93,15.59,0
2615,2615,40.87,-12.09,20.24,0
2616,2616,40.88,-20.28,30.72,0
2617,2617,40.89,-16.19,33.99,0
2618,2618,40.9,-3.2,26.64,0
2619,2619,40.92,2.53,17.63,0
2620,2620,40.93,-1.49,12.91,0
2621,2621,40.95,-2.94,14.0,0
2622,2622,40.96,0.03,15.34,0
2623,2623,40.97,-1.91,9.59,0
2624,2624,40.99,-2.53,0.05,0
2625,2625,41.0,3.19,-5.55,0
2626,2626,41.01,2.66,-3.53,0
2627,2627,41.03,-6.29,0.95,0
2628,2628,41.04,-10.21,0.78,0
2629,2629,41.05,-8.36,0.28,0
2630,2630,41.06,-7.15,4.26,0
2631,2631,41.08,-0.59,6.24,0
2632,2632,41.09,10.36,3.32,0
2633,2633,41.11,13.52,1.72,0
2634,2634,41.12,8.13,1.41,0
2635,2635,41.13,1.01,-1.23,0
2636,2636,41.15,-5.83,-3.9,0
2637,2637,41.16,-10.95,-8.23,0
2638,2638,41.17,-9.37,-17.34,0
2639,2639,41.19,-3.13,-18.49,0
2640,2640,41.2,-2.41,-6.39,0
2641,2641,41.21,-7.78,-1.58,0
2642,2642,41.22,-6.53,-11.45,0
2643,2643,41.24,0.94,-20.86,0
2644,2644,41.25,2.99,-22.93,0
2645,2645,41.27,5.13,-15.04,0
2646,2646,41.28,14.79,-2.73,0
2647,2647,41.29,19.0,-9.23,0
2648,2648,41.31,7.71,-31.0,0
2649,2649,41.32,-8.91,-29.81,0
2650,2650,41.33,-11.87,-6.91,0
2651,2651,41.35,2.74,-2.86,0
2652,2652,41.36,15.34,-15.82,0
2653,2653,41.37,11.21,-14.15,0
2654,2654,41.38,-0.09,-2.08,0
2655,2655,41.4,-6.39,0.37,0
2656,2656,41.41,-9.86,-5.37,0
2657,2657,41.43,-10.2,-9.54,0
2658,2658,41.44,-4.3,-6.04,0
2659,2659,41.45,2.21,0.67,0
2660,2660,41.47,7.3,-1.35,0
2661,2661,41.48,10.09,-10.5,0
2662,2662,41.49,2.72,-18.08,0
2663,2663,41.51,-10.97,-20.03,0
2664,2664,41.52,-14.87,-11.6,0
2665,2665,41.53,-6.74,0.31,0
2666,2666,41.54,0.98,2.21,0
2667,2667,41.56,2.1,-1.45,0
2668,2668,41.57,2.64,-4.33,0
2669,2669,41.59,7.38,-11.04,0
2670,2670,41.6,9.65,-17.1,0
2671,2671,41.61,2.87,-14.67,0
2672,2672,41.63,-2.65,-12.72,0
2673,2673,41.64,0.54,-13.98,0
2674,2674,41.65,-0.44,-5.46,0
2675,2675,41.67,-7.79,6.08,0
2676,2676,41.68,-7.49,1.17,0
2677,2677,41.69,-2.82,-11.61,0
2678,2678,41.71,-3.44,-11.11,0
2679,2679,41.72,-2.88,-1.94,0
2680,2680,41.73,1.89,-3.23,0
2681,2681,41.75,4.38,-11.15,0
2682,2682,41.76,6.45,-6.75,0
2683,2683,41.77,9.78,3.32,0
2684,2684,41.79,6.12,2.82,0
2685,2685,41.8,-1.25,1.12,0
2686,2686,41.81,2.11,5.78,0
2687,2687,41.83,11.04,4.1,0
2688,2688,41.84,7.78,-2.93,0
2689,2689,41.85,-2.33,-2.99,0
2690,2690,41.87,-1.82,-1.83,0
2691,2691,41.88,-1.25,-0.79,0
2692,2692,41.89,-13.39,7.37,0
2693,2693,41.9,-18.57,9.52,0
2694,2694,41.92,-9.25,-1.12,0
2695,2695,41.93,-5.63,-3.21,0
2696,2696,41.95,-10.65,10.43,0
2697,2697,41.96,-13.68,17.11,0
2698,2698,41.97,-12.35,9.38,0
2699,2699,41.99,-2.03,4.09,0
2700,2700,42.0,14.6,4.08,0
2701,2701,42.01,18.66,-3.75,0
2702,2702,42.03,6.38,-15.57,0
2703,2703,42.04,-3.85,-11.91,0
2704,2704,42.05,-7.64,2.9,0
2705,2705,42.06,-15.2,8.81,0
2706,2706,42.08,-21.75,12.5,0
2707,2707,42.09,-15.32,19.21,0
2708,2708,42.11,2.39,9.62,0
2709,2709,42.12,21.64,-13.09,0
2710,2710,42.13,30.2,-20.4,0
2711,2711,42.15,21.81,-8.3,0
2712,2712,42.16,9.87,2.86,0
2713,2713,42.17,7.93,7.24,0
2714,2714,42.19,10.82,1.08,0
2715,2715,42.2,11.35,-38.12,0
2716,2716,42.21,12.75,-98.02,0
2717,2717,42.22,17.09,-126.57,0
2718,2718,42.24,17.07,-117.85,0
2719,2719,42.25,14.34,-108.95,0
2720,2720,42.27,26.45,-108.75,0
2721,2721,42.28,45.08,-107.32,0
2722,2722,42.29,45.47,-105.76,0
2723,2723,42.31,40.32,-102.16,0
2724,2724,42.32,45.73,-87.86,0
2725,2725,42.33,43.96,-67.61,0
2726,2726,42.35,25.92,-53.64,0
2727,2727,42.36,6.38,-38.07,0
2728,2728,42.37,-6.25,-8.39,0
2729,2729,42.38,-15.3,22.51,0
2730,2730,42.4,-20.23,43.0,0
2731,2731,42.41,-25.76,62.12,0
2732,2732,42.43,-39.13,86.86,0
2733,2733,42.44,-48.66,110.78,0
2734,2734,42.45,-50.86,121.93,0
2735,2735,42.47,-54.82,128.0,0
2736,2736,42.48,-49.75,148.57,0
2737,2737,42.49,-40.56,174.6,0
2738,2738,42.51,-47.11,184.64,0
2739,2739,42.52,-44.0,179.59,0
2740,2740,42.53,-12.19,169.72,0
2741,2741,42.54,6.66,155.36,0
2742,2742,42.56,-9.11,130.95,0
2743,2743,42.57,-20.44,101.68,0
2744,2744,42.59,-8.92,83.2,0
2745,2745,42.6,-5.79,82.39,0
2746,2746,42.61,-21.63,87.0,0
2747,2747,42.63,-28.45,84.82,0
2748,2748,42.64,-16.1,82.31,0
2749,2749,42.65,-4.85,83.4,0
2750,2750,42.66,-10.82,76.42,0
2751,2751,42.68,-22.39,62.47,0
2752,2752,42.69,-13.1,53.18,0
2753,2753,42.71,10.8,42.25,0
2754,2754,42.72,15.17,25.89,0
2755,2755,42.73,-0.81,19.63,0
2756,2756,42.75,-9.05,20.5,0
2757,2757,42.76,-4.08,11.01,0
2758,2758,42.77,0.28,-1.47,0
2759,2759,42.79,4.12,-5.81,0
2760,2760,42.8,12.9,-12.17,0
2761,2761,42.81,19.96,-22.52,0
2762,2762,42.83,21.51,-23.03,0
2763,2763,42.84,20.85,-15.18,0
2764,2764,42.85,13.33,-14.12,0
2765,2765,42.87,0.83,-27.21,0
2766,2766,42.88,-0.28,-46.48,0
2767,2767,42.89,10.14,-55.19,0
2768,2768,42.9,14.53,-51.06,0
2769,2769,42.92,12.14,-45.0,0
2770,2770,42.93,11.05,-42.45,0
2771,2771,42.95,6.47,-46.35,0
2772,2772,42.96,-1.82,-54.05,0
2773,2773,42.97,-5.72,-60.73,0
2774,2774,42.99,-3.59,-67.1,0
2775,2775,43.0,3.97,-62.91,0
2776,2776,43.01,9.68,-44.49,0
2777,2777,43.03,5.94,-36.07,0
2778,2778,43.04,2.72,-44.24,0
2779,2779,43.05,7.59,-47.09,0
2780,2780,43.06,10.89,-42.11,0
2781,2781,43.08,5.44,-42.09,0
2782,2782,43.09,0.15,-47.09,0
2783,2783,43.11,7.4,-53.35,0
2784,2784,43.12,18.76,-57.37,0
2785,2785,43.13,14.23,-51.48,0
2786,2786,43.15,2.89,-41.42,0
2787,2787,43.16,6.13,-46.24,0
2788,2788,43.17,12.7,-61.96,0
2789,2789,43.19,7.05,-66.18,0
2790,2790,43.2,3.94,-56.22,0
2791,2791,43.21,10.0,-44.93,0
2792,2792,43.22,10.4,-38.62,0
2793,2793,43.24,8.39,-34.74,0
2794,2794,43.25,11.93,-32.44,0
2795,2795,43.27,11.12,-33.31,0
2796,2796,43.28,8.03,-33.32,0
2797,2797,43.29,9.46,-30.38,0
2798,2798,43.3,8.89,-30.47,0
2799,2799,43.32,5.33,-32.8,0
2800,2800,43.33,1.99,-28.72,0
2801,2801,43.35,3.68,-21.31,0
2802,2802,43.36,13.95,-20.21,0
2803,2803,43.37,19.0,-20.88,0
2804,2804,43.38,11.98,-16.24,0
2805,2805,43.4,4.91,-14.9,0
2806,2806,43.41,0.68,-19.94,0
2807,2807,43.43,0.35,-18.37,0
2808,2808,43.44,6.78,-11.0,0
2809,2809,43.45,6.41,-14.61,0
2810,2810,43.47,-3.65,-28.28,0
2811,2811,43.48,-4.11,-32.41,0
2812,2812,43.49,3.33,-21.06,0
2813,2813,43.51,3.5,-8.99,0
2814,2814,43.52,4.66,-6.76,0
2815,2815,43.53,9.9,-8.8,0
2816,2816,43.54,4.83,-9.4,0
2817,2817,43.56,-1.8,-11.27,0
2818,2818,43.57,1.49,-12.48,0
2819,2819,43.59,-4.7,-5.2,0
2820,2820,43.6,-21.75,5.2,0
2821,2821,43.61,-23.53,6.56,0
2822,2822,43.63,-10.8,1.41,0
2823,2823,43.64,-6.94,1.95,0
2824,2824,43.65,-15.94,7.47,0
2825,2825,43.67,-20.45,4.69,0
2826,2826,43.68,-13.06,-5.03,0
2827,2827,43.69,-7.82,-6.24,0
2828,2828,43.71,-12.03,3.75,0
2829,2829,43.72,-15.41,12.74,0
2830,2830,43.73,-7.25,12.85,0
2831,2831,43.75,8.17,11.37,0
2832,2832,43.76,10.63,14.18,0
2833,2833,43.77,-4.93,13.74,0
2834,2834,43.79,-15.33,8.68,0
2835,2835,43.8,-9.59,11.86,0
2836,2836,43.81,-3.64,25.9,0
2837,2837,43.83,-4.37,32.12,0
2838,2838,43.84,-1.63,21.33,0
2839,2839,43.85,5.63,12.66,0
2840,2840,43.87,7.3,16.22,0
2841,2841,43.88,4.57,19.36,0
2842,2842,43.89,7.79,21.16,0
2843,2843,43.9,9.21,27.6,0
2844,2844,43.92,-2.8,30.73,0
2845,2845,43.93,-11.97,26.38,0
2846,2846,43.94,-5.15,21.65,0
2847,2847,43.96,2.71,18.44,0
2848,2848,43.97,2.59,17.15,0
2849,2849,43.99,0.33,23.11,0
2850,2850,44.0,-3.54,31.12,0
2851,2851,44.01,-13.23,28.48,0
2852,2852,44.03,-21.16,20.18,0
2853,2853,44.04,-14.4,21.81,0
2854,2854,44.05,-7.7,31.0,0
2855,2855,44.06,-19.62,32.24,0
2856,2856,44.08,-23.59,22.43,0
2857,2857,44.09,-2.27,14.26,0
2858,2858,44.11,9.5,16.12,0
2859,2859,44.12,0.54,22.84,0
2860,2860,44.13,-0.23,27.81,0
2861,2861,44.15,7.67,29.61,0
2862,2862,44.16,5.73,29.18,0
2863,2863,44.17,-4.01,35.15,0
2864,2864,44.19,-12.22,68.81,0
2865,2865,44.2,-13.85,143.29,0
2866,2866,44.21,-8.22,234.61,0
2867,2867,44.22,-3.18,297.07,0
2868,2868,44.24,-7.73,303.9,0
2869,2869,44.25,-17.03,261.8,0
2870,2870,44.27,-11.43,199.42,0
2871,2871,44.28,11.68,140.5,0
2872,2872,44.29,22.0,83.96,0
2873,2873,44.31,9.12,24.0,0
2874,2874,44.32,2.15,-27.84,0
2875,2875,44.33,9.3,-66.08,0
2876,2876,44.35,8.68,-107.85,0
2877,2877,44.36,-5.25,-160.26,0
2878,2878,44.37,-16.05,-202.55,0
2879,2879,44.38,-11.59,-214.05,0
2880,2880,44.4,-1.59,-202.18,0
2881,2881,44.41,1.29,-190.0,0
2882,2882,44.43,2.02,-179.46,0
2883,2883,44.44,4.51,-160.99,0
2884,2884,44.45,3.79,-147.58,0
2885,2885,44.47,2.64,-149.27,0
2886,2886,44.48,6.84,-147.24,0
2887,2887,44.49,12.43,-126.89,0
2888,2888,44.51,9.58,-101.66,0
2889,2889,44.52,-0.39,-85.84,0
2890,2890,44.53,-3.25,-71.01,0
2891,2891,44.54,-0.16,-58.95,0
2892,2892,44.56,-9.17,-68.34,0
2893,2893,44.57,-21.54,-82.58,0
2894,2894,44.58,-11.0,-71.29,0
2895,2895,44.6,11.49,-49.92,0
2896,2896,44.61,18.83,-43.08,0
2897,2897,44.62,17.07,-41.29,0
2898,2898,44.64,22.46,-32.41,0
2899,2899,44.65,27.65,-23.69,0
2900,2900,44.67,21.06,-20.38,0
2901,2901,44.68,12.71,-19.48,0
2902,2902,44.69,12.8,-16.01,0
2903,2903,44.71,10.31,-8.37,0
2904,2904,44.72,0.75,-2.05,0
2905,2905,44.73,-0.7,0.65,0
2906,2906,44.75,8.2,6.95,0
2907,2907,44.76,13.29,20.27,0
2908,2908,44.77,10.13,31.98,0
2909,2909,44.79,6.93,31.91,0
2910,2910,44.8,10.97,22.31,0
2911,2911,44.81,14.77,18.88,0
2912,2912,44.83,10.34,27.2,0
2913,2913,44.84,11.46,34.44,0
2914,2914,44.85,19.97,34.74,0
2915,2915,44.87,12.3,36.38,0
2916,2916,44.88,-7.05,42.34,0
2917,2917,44.89,-13.12,46.36,0
2918,2918,44.9,-8.79,43.96,0
2919,2919,44.92,-4.13,40.24,0
2920,2920,44.93,1.26,41.03,0
2921,2921,44.95,2.73,38.41,0
2922,2922,44.96,-4.31,26.25,0
2923,2923,44.97,-18.51,22.41,0
2924,2924,44.99,-25.3,38.62,0
2925,2925,45.0,-9.34,53.04,0
2926,2926,45.01,8.62,50.37,0
2927,2927,45.03,2.39,46.57,0
2928,2928,45.04,-9.01,50.93,0
2929,2929,45.05,-4.44,51.53,0
2930,2930,45.06,-0.94,44.03,0
2931,2931,45.08,-9.11,39.11,0
2932,2932,45.09,-10.42,38.65,0
2933,2933,45.11,0.36,33.24,0
2934,2934,45.12,4.31,28.3,0
2935,2935,45.13,-4.24,32.29,0
2936,2936,45.15,-11.15,36.34,0
2937,2937,45.16,-10.89,34.08,0
2938,2938,45.17,-11.87,30.33,0
2939,2939,45.19,-16.96,28.76,0
2940,2940,45.2,-16.92,28.63,0
2941,2941,45.21,-6.82,25.96,0
2942,2942,45.22,3.04,22.7,0
2943,2943,45.24,4.87,28.62,0
2944,2944,45.25,5.11,40.94,0
2945,2945,45.26,1.74,41.62,0
2946,2946,45.28,-10.31,26.48,0
2947,2947,45.29,-17.22,12.33,0
2948,2948,45.31,-9.14,11.53,0
2949,2949,45.32,-0.23,17.29,0
2950,2950,45.33,-6.41,18.26,0
2951,2951,45.35,-19.98,14.35,0
2952,2952,45.36,-15.69,13.06,0
2953,2953,45.37,6.18,15.05,0
2954,2954,45.38,16.71,16.0,0
2955,2955,45.4,11.92,17.22,0
2956,2956,45.41,6.7,22.08,0
2957,2957,45.43,-2.31,23.88,0
2958,2958,45.44,-10.95,9.87,0
2959,2959,45.45,-4.12,-7.98,0
2960,2960,45.47,5.76,-2.65,0
2961,2961,45.48,-0.3,16.97,0
2962,2962,45.49,-7.07,23.35,0
2963,2963,45.51,5.99,13.54,0
2964,2964,45.52,21.06,-3.06,0
2965,2965,45.53,13.25,-17.46,0
2966,2966,45.54,-5.29,-18.14,0
2967,2967,45.56,-10.77,-3.77,0
2968,2968,45.57,-7.88,6.55,0
2969,2969,45.59,-13.69,-3.43,0
2970,2970,45.6,-17.12,-19.01,0
2971,2971,45.61,-2.53,-20.1,0
2972,2972,45.63,10.55,-14.57,0
2973,2973,45.64,8.97,-14.83,0
2974,2974,45.65,10.73,-12.53,0
2975,2975,45.67,15.98,-1.22,0
2976,2976,45.68,7.88,2.94,0
2977,2977,45.69,-3.73,-12.79,0
2978,2978,45.71,-1.98,-28.91,0
2979,2979,45.72,3.94,-24.22,0
2980,2980,45.73,1.17,-13.93,0
2981,2981,45.75,-0.39,-19.19,0
2982,2982,45.76,6.62,-26.13,0
2983,2983,45.77,3.6,-15.33,0
2984,2984,45.79,-13.52,-2.5,0
2985,2985,45.8,-19.09,-5.13,0
2986,2986,45.81,-4.65,-12.82,0
2987,2987,45.83,11.74,-17.71,0
2988,2988,45.84,12.91,-19.84,0
2989,2989,45.85,-3.23,-13.58,0
2990,2990,45.86,-18.64,-4.12,0
2991,2991,45.88,-12.37,-3.19,0
2992,2992,45.89,3.96,-6.28,0
2993,2993,45.9,2.06,-7.83,0
2994,2994,45.92,-5.79,-17.19,0
2995,2995,45.93,2.46,-32.21,0
2996,2996,45.95,7.48,-34.52,0
2997,2997,45.96,1.21,-22.85,0
2998,2998,45.97,4.75,-12.57,0
2999,2999,45.99,9.65,-8.89,0
3000,3000,46.0,-1.5,-7.0,0
3001,3001,46.01,-11.17,-7.59,0
3002,3002,46.03,-8.38,-14.65,0
3003,3003,46.04,-7.4,-20.87,0
3004,3004,46.05,-9.07,-11.52,0
3005,3005,46.06,-3.89,5.28,0
3006,3006,46.08,3.45,4.43,0
3007,3007,46.09,4.19,-9.55,0
3008,3008,46.11,3.68,-13.53,0
3009,3009,46.12,11.46,-12.4,0
3010,3010,46.13,18.01,-17.21,0
3011,3011,46.15,12.76,-16.23,0
3012,3012,46.16,5.4,-9.15,0
3013,3013,46.17,4.17,-15.14,0
3014,3014,46.19,6.84,-34.68,0
3015,3015,46.2,6.55,-31.21,0
3016,3016,46.21,0.93,22.45,0
3017,3017,46.22,-0.01,83.9,0
3018,3018,46.24,3.71,102.07,0
3019,3019,46.25,5.49,62.97,0
3020,3020,46.27,17.92,9.62,0
3021,3021,46.28,40.5,76.42,0
3022,3022,46.29,40.45,214.97,0
3023,3023,46.31,4.64,167.68,0
3024,3024,46.32,-26.8,-3.36,0
3025,3025,46.33,-16.17,-42.58,0
3026,3026,46.35,0.86,-12.28,0
3027,3027,46.36,-3.64,-33.23,0
3028,3028,46.37,9.78,-30.73,0
3029,3029,46.38,26.22,-20.25,0
3030,3030,46.4,3.85,-105.31,0
3031,3031,46.41,-13.02,-172.76,0
3032,3032,46.43,9.02,-76.72,0
3033,3033,46.44,27.43,32.38,0
3034,3034,46.45,16.67,17.9,0
3035,3035,46.47,4.09,-22.55,0
3036,3036,46.48,5.0,-44.71,0
3037,3037,46.49,4.76,-80.25,0
3038,3038,46.5,-4.18,-102.68,0
3039,3039,46.52,-21.61,-97.93,0
3040,3040,46.53,-32.0,-67.62,0
3041,3041,46.54,-13.96,-32.31,0
3042,3042,46.56,7.5,-42.75,0
3043,3043,46.57,-5.06,-59.85,0
3044,3044,46.59,-28.26,-16.92,0
3045,3045,46.6,-27.32,18.44,0
3046,3046,46.61,-27.55,-23.1,0
3047,3047,46.63,-49.04,-70.91,0
3048,3048,46.64,-51.35,-64.73,0
3049,3049,46.65,-18.12,-47.66,0
3050,3050,46.67,6.25,-47.87,0
3051,3051,46.68,1.73,-47.92,0
3052,3052,46.69,-4.31,-51.87,0
3053,3053,46.71,-0.09,-58.66,0
3054,3054,46.72,6.62,-42.04,0
3055,3055,46.73,18.5,-20.15,0
3056,3056,46.75,28.03,-27.96,0
3057,3057,46.76,14.14,-37.16,0
3058,3058,46.77,-13.05,-30.08,0
3059,3059,46.79,-15.19,-40.44,0
3060,3060,46.8,9.55,-52.73,0
3061,3061,46.81,17.25,-10.83,0
3062,3062,46.83,-1.68,73.02,0
3063,3063,46.84,-7.65,111.8,0
3064,3064,46.85,6.01,60.57,0
3065,3065,46.87,5.55,3.15,0
3066,3066,46.88,-8.09,9.7,0
3067,3067,46.89,-2.36,24.19,0
3068,3068,46.9,10.35,8.82,0
3069,3069,46.92,-13.06,-6.25,0
3070,3070,46.93,-49.01,1.43,0
3071,3071,46.95,-37.22,18.87,0
3072,3072,46.96,5.13,6.84,0
3073,3073,46.97,17.66,-23.49,0
3074,3074,46.99,-3.21,-25.38,0
3075,3075,47.0,-19.95,-0.04,0
3076,3076,47.01,-14.63,39.65,0
3077,3077,47.03,-3.7,72.67,0
3078,3078,47.04,-0.98,50.4,0
3079,3079,47.05,4.54,8.57,0
3080,3080,47.06,14.35,22.85,0
3081,3081,47.08,19.46,31.96,0
3082,3082,47.09,18.56,-7.47,0
3083,3083,47.11,7.04,1.78,0
3084,3084,47.12,-5.96,45.33,0
3085,3085,47.13,-1.58,17.95,0
3086,3086,47.14,10.77,-9.85,0
3087,3087,47.16,12.28,44.03,0
3088,3088,47.17,6.81,71.06,0
3089,3089,47.18,6.16,15.8,0
3090,3090,47.2,10.26,-10.62,0
3091,3091,47.21,7.79,45.99,0
3092,3092,47.22,-3.37,105.46,0
3093,3093,47.24,-4.81,87.06,0
3094,3094,47.25,4.61,21.72,0
3095,3095,47.27,5.8,-8.03,0
3096,3096,47.28,6.38,4.96,0
3097,3097,47.29,17.31,18.54,0
3098,3098,47.31,22.44,19.99,0
3099,3099,47.32,17.24,25.14,0
3100,3100,47.33,13.92,40.27,0
3101,3101,47.35,12.46,36.78,0
3102,3102,47.36,7.93,-0.64,0
3103,3103,47.37,3.25,-14.16,0
3104,3104,47.38,9.73,28.85,0
3105,3105,47.4,23.03,58.15,0
3106,3106,47.41,15.07,32.76,0
3107,3107,47.43,-3.61,6.19,0
3108,3108,47.44,7.94,2.64,0
3109,3109,47.45,25.63,-16.06,0
3110,3110,47.47,4.63,-34.68,0
3111,3111,47.48,-20.63,1.1,0
3112,3112,47.49,-6.62,66.73,0
3113,3113,47.51,15.85,88.79,0
3114,3114,47.52,8.67,55.58,0
3115,3115,47.53,-8.62,20.51,0
3116,3116,47.54,-8.93,22.19,0
3117,3117,47.56,-1.08,46.73,0
3118,3118,47.57,-0.36,35.24,0
3119,3119,47.59,-3.74,-27.27,0
3120,3120,47.6,-0.99,-39.68,0
3121,3121,47.61,4.12,17.85,0
3122,3122,47.63,0.6,25.52,0
3123,3123,47.64,-4.22,-2.9,0
3124,3124,47.65,-0.89,17.75,0
3125,3125,47.67,1.34,33.35,0
3126,3126,47.68,-2.34,4.92,0
3127,3127,47.69,-3.59,-5.4,0
3128,3128,47.71,-6.11,16.8,0
3129,3129,47.72,-19.39,13.85,0
3130,3130,47.73,-27.23,-27.88,0
3131,3131,47.75,-12.68,-49.22,0
3132,3132,47.76,8.19,-36.0,0
3133,3133,47.77,12.44,-18.88,0
3134,3134,47.78,-1.96,-5.41,0
3135,3135,47.8,-16.26,-10.31,0
3136,3136,47.81,-17.72,-7.69,0
3137,3137,47.82,-8.7,31.01,0
3138,3138,47.84,4.31,45.78,0
3139,3139,47.85,6.35,2.06,0
3140,3140,47.86,-1.09,-54.99,0
3141,3141,47.88,6.46,-79.47,0
3142,3142,47.89,21.79,-73.1,0
3143,3143,47.9,13.11,-58.41,0
3144,3144,47.92,-11.98,-32.7,0
3145,3145,47.93,-22.25,-4.79,0
3146,3146,47.95,-20.88,10.38,0
3147,3147,47.96,-23.74,18.31,0
3148,3148,47.97,-22.28,1.33,0
3149,3149,47.99,-9.42,-23.68,0
3150,3150,48.0,4.18,-2.2,0
3151,3151,48.01,7.86,28.69,0
3152,3152,48.03,2.36,18.39,0
3153,3153,48.04,-4.83,3.82,0
3154,3154,48.05,-7.73,0.93,0
3155,3155,48.06,-13.77,-4.3,0
3156,3156,48.08,-22.42,-17.34,0
3157,3157,48.09,-4.45,-35.07,0
3158,3158,48.11,29.64,-15.01,0
3159,3159,48.12,29.28,10.24,0
3160,3160,48.13,4.01,-46.33,0
3161,3161,48.15,-1.65,-109.71,0
3162,3162,48.16,13.21,-62.36,0
3163,3163,48.17,25.71,30.24,0
3164,3164,48.19,29.26,62.95,0
3165,3165,48.2,29.55,58.42,0
3166,3166,48.21,13.78,51.96,0
3167,3167,48.22,-23.21,28.1,0
3168,3168,48.24,-41.0,9.93,0
3169,3169,48.25,-18.52,27.05,0
3170,3170,48.27,12.18,39.5,0
3171,3171,48.28,23.8,11.19,0
3172,3172,48.29,15.89,-7.56,0
3173,3173,48.31,1.1,18.54,0
3174,3174,48.32,-11.98,34.77,0
3175,3175,48.33,-21.84,26.31,0
3176,3176,48.35,-20.69,30.64,0
3177,3177,48.36,-7.23,14.55,0
3178,3178,48.37,-2.24,-67.06,0
3179,3179,48.38,-19.08,-169.37,0
3180,3180,48.4,-43.24,-229.87,0
3181,3181,48.41,-52.91,-245.77,0
3182,3182,48.42,-36.71,-230.94,0
3183,3183,48.44,-3.7,-189.28,0
3184,3184,48.45,20.71,-133.14,0
3185,3185,48.46,21.78,-68.23,0
3186,3186,48.48,9.68,1.58,0
3187,3187,48.49,5.19,52.38,0
3188,3188,48.5,12.63,70.4,0
3189,3189,48.52,16.52,79.17,0
3190,3190,48.53,8.97,95.97,0
3191,3191,48.54,-1.14,100.62,0
3192,3192,48.56,-5.44,88.52,0
3193,3193,48.57,-2.34,87.85,0
3194,3194,48.59,4.69,99.41,0
3195,3195,48.6,8.28,96.21,0
3196,3196,48.61,5.84,73.81,0
3197,3197,48.63,3.15,55.53,0
3198,3198,48.64,-0.37,58.46,0
3199,3199,48.65,-10.34,68.62,0
3200,3200,48.67,-15.89,66.49,0
3201,3201,48.68,-3.62,57.23,0
3202,3202,48.69,10.24,52.64,0
3203,3203,48.71,5.92,52.55,0
3204,3204,48.72,-4.6,52.99,0
3205,3205,48.73,-3.75,51.69,0
3206,3206,48.75,3.08,47.86,0
3207,3207,48.76,2.28,40.92,0
3208,3208,48.77,-5.27,29.31,0
3209,3209,48.79,-7.18,18.22,0
3210,3210,48.8,-2.58,13.42,0
3211,3211,48.81,-2.65,7.64,0
3212,3212,48.83,-7.99,0.55,0
3213,3213,48.84,-7.75,4.43,0
3214,3214,48.85,1.22,13.37,0
3215,3215,48.87,11.19,9.27,0
3216,3216,48.88,18.65,-2.9,0
3217,3217,48.89,24.0,-4.72,0
3218,3218,48.9,20.87,-1.83,0
3219,3219,48.92,8.11,-11.04,0
3220,3220,48.93,-2.84,-20.01,0
3221,3221,48.95,-4.63,-9.6,0
3222,3222,48.96,-1.74,4.93,0
3223,3223,48.97,1.91,2.57,0
3224,3224,48.99,4.48,-10.29,0
3225,3225,49.0,0.81,-18.41,0
3226,3226,49.01,-3.51,-19.6,0
3227,3227,49.03,3.57,-19.03,0
3228,3228,49.04,13.89,-15.53,0
3229,3229,49.05,10.93,-10.84,0
3230,3230,49.06,-2.14,-13.16,0
3231,3231,49.08,-7.31,-22.89,0
3232,3232,49.09,-2.78,-31.07,0
3233,3233,49.1,-5.72,-30.38,0
3234,3234,49.12,-13.91,-24.52,0
3235,3235,49.13,-8.26,-18.0,0
3236,3236,49.14,1.95,-10.82,0
3237,3237,49.16,0.13,-10.14,0
3238,3238,49.17,-1.14,-21.74,0
3239,3239,49.19,6.66,-37.81,0
3240,3240,49.2,7.43,-42.14,0
3241,3241,49.21,-2.15,-27.9,0
3242,3242,49.22,-7.09,-13.02,0
3243,3243,49.24,-1.61,-16.3,0
3244,3244,49.25,9.79,-27.75,0
3245,3245,49.27,17.8,-27.18,0
3246,3246,49.28,17.16,-16.97,0
3247,3247,49.29,16.13,-16.73,0
3248,3248,49.31,15.23,-25.23,0
3249,3249,49.32,3.39,-21.17,0
3250,3250,49.33,-12.84,-11.38,0
3251,3251,49.35,-18.65,-20.19,0
3252,3252,49.36,-13.08,-34.9,0
3253,3253,49.37,-0.17,-31.31,0
3254,3254,49.38,10.63,-14.49,0
3255,3255,49.4,10.64,-2.92,0
3256,3256,49.41,7.79,-9.28,0
3257,3257,49.43,6.27,-22.08,0
3258,3258,49.44,0.18,-20.47,0
3259,3259,49.45,-3.28,-17.32,0
3260,3260,49.47,-1.06,-21.86,0
3261,3261,49.48,-6.66,-10.1,0
3262,3262,49.49,-14.08,6.02,0
3263,3263,49.51,-5.81,-10.67,0
3264,3264,49.52,6.22,-34.06,0
3265,3265,49.53,8.24,-18.36,0
3266,3266,49.54,10.94,11.11,0
3267,3267,49.56,15.22,11.42,0
3268,3268,49.57,8.97,-3.11,0
3269,3269,49.59,-5.23,-4.53,0
3270,3270,49.6,-13.68,0.83,0
3271,3271,49.61,-8.18,-1.3,0
3272,3272,49.63,3.6,-7.47,0
3273,3273,49.64,9.2,-9.76,0
3274,3274,49.65,9.36,-9.78,0
3275,3275,49.67,9.6,-8.9,0
3276,3276,49.68,4.74,-5.13,0
3277,3277,49.69,-6.78,-4.29,0
3278,3278,49.7,-10.88,-9.15,0
3279,3279,49.72,-1.89,-10.56,0
3280,3280,49.73,4.14,-5.12,0
3281,3281,49.74,-4.03,2.1,0
3282,3282,49.76,-12.38,6.65,0
3283,3283,49.77,-8.16,3.26,0
3284,3284,49.78,-2.97,-3.34,0
3285,3285,49.8,-3.31,-0.31,0
3286,3286,49.81,-2.04,8.86,0
3287,3287,49.83,-1.99,10.78,0
3288,3288,49.84,-4.97,5.9,0
3289,3289,49.85,-1.47,3.62,0
3290,3290,49.87,5.54,3.6,0
3291,3291,49.88,3.77,-4.13,0
3292,3292,49.89,0.17,-10.22,0
3293,3293,49.9,10.56,5.55,0
3294,3294,49.92,23.7,25.74,0
3295,3295,49.93,14.12,22.21,0
3296,3296,49.95,-8.16,7.02,0
3297,3297,49.96,-14.65,2.26,0
3298,3298,49.97,-11.73,6.95,0
3299,3299,49.99,-16.44,10.4,0
3300,3300,50.0,-18.92,8.57,0
3301,3301,50.01,-6.88,8.15,0
3302,3302,50.03,6.62,16.0,0
3303,3303,50.04,4.44,24.41,0
3304,3304,50.05,-5.59,21.11,0
3305,3305,50.06,-12.92,10.98,0
3306,3306,50.08,-19.82,7.63,0
3307,3307,50.09,-18.13,7.76,0
3308,3308,50.11,-3.9,4.05,0
3309,3309,50.12,5.34,5.89,0
3310,3310,50.13,0.54,16.19,0
3311,3311,50.15,-5.65,26.56,0
3312,3312,50.16,-0.42,33.06,0
3313,3313,50.17,9.34,29.53,0
3314,3314,50.19,5.91,15.19,0
3315,3315,50.2,-7.52,1.95,0
3316,3316,50.21,-5.56,-4.76,0
3317,3317,50.22,14.79,-20.43,0
3318,3318,50.24,23.74,-60.73,0
3319,3319,50.25,16.35,-104.93,0
3320,3320,50.27,21.93,-116.1,0
3321,3321,50.28,38.55,-95.87,0
3322,3322,50.29,35.47,-79.68,0
3323,3323,50.31,20.43,-83.82,0
3324,3324,50.32,30.59,-91.73,0
3325,3325,50.33,61.95,-88.65,0
3326,3326,50.34,73.23,-78.75,0
3327,3327,50.36,57.27,-76.09,0
3328,3328,50.37,41.78,-84.26,0
3329,3329,50.38,29.48,-82.45,0
3330,3330,50.4,8.26,-54.98,0
3331,3331,50.41,-14.17,-20.05,0
3332,3332,50.42,-29.92,3.51,0
3333,3333,50.44,-39.73,22.01,0
3334,3334,50.45,-44.42,42.32,0
3335,3335,50.46,-49.83,59.85,0
3336,3336,50.48,-61.54,74.16,0
3337,3337,50.49,-70.7,88.68,0
3338,3338,50.51,-64.76,105.35,0
3339,3339,50.52,-55.39,125.52,0
3340,3340,50.53,-59.99,141.39,0
3341,3341,50.54,-69.26,143.47,0
3342,3342,50.56,-65.24,141.78,0
3343,3343,50.57,-43.64,148.51,0
3344,3344,50.59,-19.16,159.4,0
3345,3345,50.6,-14.39,166.07,0
3346,3346,50.61,-19.5,161.66,0
3347,3347,50.63,-6.54,147.25,0
3348,3348,50.64,12.73,133.66,0
3349,3349,50.65,12.94,126.37,0
3350,3350,50.67,4.99,119.82,0
3351,3351,50.68,4.19,105.54,0
3352,3352,50.69,5.28,84.3,0
3353,3353,50.71,4.71,62.35,0
3354,3354,50.72,7.33,44.89,0
3355,3355,50.73,12.42,42.31,0
3356,3356,50.75,10.89,51.34,0
3357,3357,50.76,-0.67,49.17,0
3358,3358,50.77,-8.59,28.25,0
3359,3359,50.79,1.05,5.22,0
3360,3360,50.8,15.31,-2.03,0
3361,3361,50.81,12.1,1.13,0
3362,3362,50.83,1.75,-4.41,0
3363,3363,50.84,8.75,-15.52,0
3364,3364,50.85,22.98,-18.51,0
3365,3365,50.87,15.46,-16.22,0
3366,3366,50.88,-6.17,-17.0,0
3367,3367,50.89,-5.97,-24.7,0
3368,3368,50.9,14.73,-36.87,0
3369,3369,50.92,22.74,-45.08,0
3370,3370,50.93,13.59,-44.68,0
3371,3371,50.95,2.92,-41.92,0
3372,3372,50.96,-3.44,-43.3,0
3373,3373,50.97,-0.02,-44.03,0
3374,3374,50.98,15.19,-40.98,0
3375,3375,51.0,26.69,-40.13,0
3376,3376,51.01,16.73,-42.06,0
3377,3377,51.02,-2.64,-42.54,0
3378,3378,51.04,-7.95,-42.76,0
3379,3379,51.05,-6.82,-47.94,0
3380,3380,51.06,-8.91,-59.64,0
3381,3381,51.08,3.86,-71.21,0
3382,3382,51.09,29.05,-73.83,0
3383,3383,51.1,31.85,-67.85,0
3384,3384,51.12,5.51,-61.86,0
3385,3385,51.13,-12.16,-60.14,0
3386,3386,51.15,3.9,-56.02,0
3387,3387,51.16,26.76,-44.61,0
3388,3388,51.17,26.38,-38.87,0
3389,3389,51.19,17.25,-48.4,0
3390,3390,51.2,17.83,-57.54,0
3391,3391,51.21,17.86,-53.91,0
3392,3392,51.22,11.99,-48.85,0
3393,3393,51.24,5.09,-52.22,0
3394,3394,51.25,-7.7,-56.64,0
3395,3395,51.27,-22.96,-53.04,0
3396,3396,51.28,-15.94,-44.7,0
3397,3397,51.29,19.09,-41.13,0
3398,3398,51.31,39.98,-45.0,0
3399,3399,51.32,16.07,-48.41,0
3400,3400,51.33,-15.24,-44.38,0
3401,3401,51.35,-14.49,-32.89,0
3402,3402,51.36,-5.56,-20.46,0
3403,3403,51.37,-11.6,-21.21,0
3404,3404,51.38,-10.66,-37.32,0
3405,3405,51.4,4.2,-43.69,0
3406,3406,51.41,12.11,-28.58,0
3407,3407,51.43,13.06,-16.68,0
3408,3408,51.44,16.49,-20.83,0
3409,3409,51.45,16.85,-24.96,0
3410,3410,51.47,10.92,-21.29,0
3411,3411,51.48,1.47,-17.08,0
3412,3412,51.49,-8.51,-13.03,0
3413,3413,51.51,-10.61,-6.63,0
3414,3414,51.52,0.31,-4.89,0
3415,3415,51.53,14.96,-10.72,0
3416,3416,51.54,18.23,-12.95,0
3417,3417,51.56,6.74,-10.35,0
3418,3418,51.57,-4.97,-13.03,0
3419,3419,51.59,-4.84,-14.96,0
3420,3420,51.6,-5.49,-9.82,0
3421,3421,51.61,-17.27,-8.57,0
3422,3422,51.62,-20.22,-11.61,0
3423,3423,51.64,-6.63,-3.17,0
3424,3424,51.65,0.58,13.32,0
3425,3425,51.66,-2.65,17.57,0
3426,3426,51.68,-0.09,9.21,0
3427,3427,51.69,4.64,5.38,0
3428,3428,51.7,-3.19,12.51,0
3429,3429,51.72,-17.39,20.75,0
3430,3430,51.73,-21.67,19.56,0
3431,3431,51.74,-16.71,11.62,0
3432,3432,51.76,-7.75,8.07,0
3433,3433,51.77,3.86,11.75,0
3434,3434,51.79,4.95,13.55,0
3435,3435,51.8,-4.26,10.48,0
3436,3436,51.81,-6.11,10.18,0
3437,3437,51.83,-7.27,13.19,0
3438,3438,51.84,-15.47,14.39,0
3439,3439,51.85,-12.56,12.83,0
3440,3440,51.87,-3.08,11.93,0
3441,3441,51.88,-4.55,14.97,0
3442,3442,51.89,-0.49,15.92,0
3443,3443,51.9,13.41,11.07,0
3444,3444,51.92,11.36,7.78,0
3445,3445,51.93,-1.09,9.3,0
3446,3446,51.95,0.38,14.23,0
3447,3447,51.96,6.12,20.91,0
3448,3448,51.97,-3.2,23.86,0
3449,3449,51.99,-18.46,22.89,0
3450,3450,52.0,-18.93,22.0,0
3451,3451,52.01,-8.79,21.79,0
3452,3452,52.03,-5.57,24.93,0
3453,3453,52.04,-4.16,32.92,0
3454,3454,52.05,3.16,34.93,0
3455,3455,52.06,1.15,23.87,0
3456,3456,52.08,-14.55,14.02,0
3457,3457,52.09,-20.22,16.01,0
3458,3458,52.11,-2.67,18.47,0
3459,3459,52.12,15.94,16.01,0
3460,3460,52.13,17.51,19.2,0
3461,3461,52.15,13.31,29.66,0
3462,3462,52.16,8.06,33.02,0
3463,3463,52.17,-4.35,19.6,0
3464,3464,52.19,-12.94,2.62,0
3465,3465,52.2,-6.67,11.66,0
3466,3466,52.21,7.63,69.74,0
3467,3467,52.22,15.16,170.11,0
3468,3468,52.24,5.38,268.79,0
3469,3469,52.25,-8.21,318.26,0
3470,3470,52.26,-7.43,312.21,0
3471,3471,52.28,1.59,273.18,0
3472,3472,52.29,7.83,213.75,0
3473,3473,52.3,5.87,137.89,0
3474,3474,52.32,-8.29,63.83,0
3475,3475,52.33,-29.51,7.44,0
3476,3476,52.34,-38.96,-42.99,0
3477,3477,52.36,-27.05,-95.05,0
3478,3478,52.37,-14.15,-137.72,0
3479,3479,52.38,-14.93,-172.09,0
3480,3480,52.4,-14.17,-205.17,0
3481,3481,52.41,-2.74,-226.94,0
3482,3482,52.43,4.03,-221.08,0
3483,3483,52.44,0.27,-192.55,0
3484,3484,52.45,3.12,-167.06,0
3485,3485,52.47,15.79,-155.93,0
3486,3486,52.48,23.67,-145.84,0
3487,3487,52.49,25.2,-133.96,0
3488,3488,52.51,23.8,-127.03,0
3489,3489,52.52,19.84,-116.49,0
3490,3490,52.53,19.27,-95.13,0
3491,3491,52.54,21.19,-77.6,0
3492,3492,52.56,16.27,-72.89,0
3493,3493,52.57,9.21,-63.09,0
3494,3494,52.59,12.23,-40.02,0
3495,3495,52.6,16.02,-27.21,0
3496,3496,52.61,10.03,-38.38,0
3497,3497,52.63,7.52,-52.5,0
3498,3498,52.64,9.3,-46.54,0
3499,3499,52.65,0.66,-29.09,0
3500,3500,52.67,-7.44,-22.28,0
3501,3501,52.68,0.48,-24.89,0
3502,3502,52.69,8.87,-21.59,0
3503,3503,52.71,3.49,-13.45,0
3504,3504,52.72,-4.23,-10.41,0
3505,3505,52.73,-1.9,-10.48,0
3506,3506,52.75,6.93,-6.37,0
3507,3507,52.76,8.82,2.87,0
3508,3508,52.77,1.57,12.55,0
3509,3509,52.79,-2.21,19.19,0
3510,3510,52.8,0.48,25.74,0
3511,3511,52.81,0.58,32.52,0
3512,3512,52.83,-7.16,31.91,0
3513,3513,52.84,-16.72,26.54,0
3514,3514,52.85,-14.05,26.07,0
3515,3515,52.87,-2.24,28.86,0
3516,3516,52.88,-0.99,30.44,0
3517,3517,52.89,-8.21,35.74,0
3518,3518,52.9,-7.75,42.18,0
3519,3519,52.92,-0.98,39.55,0
3520,3520,52.93,7.55,33.54,0
3521,3521,52.94,14.46,32.79,0
3522,3522,52.96,8.07,35.23,0
3523,3523,52.97,-6.86,42.78,0
3524,3524,52.98,-10.78,51.73,0
3525,3525,53.0,-5.78,49.61,0
3526,3526,53.01,-6.99,41.12,0
3527,3527,53.02,-8.59,41.67,0
3528,3528,53.04,1.41,48.18,0
3529,3529,53.05,10.47,46.48,0
3530,3530,53.06,2.92,35.96,0
3531,3531,53.08,-10.24,30.58,0
3532,3532,53.09,-12.17,39.22,0
3533,3533,53.11,-4.95,50.52,0
3534,3534,53.12,1.86,49.89,0
3535,3535,53.13,4.65,43.76,0
3536,3536,53.15,3.19,41.95,0
3537,3537,53.16,-1.42,40.16,0
3538,3538,53.17,-6.38,39.16,0
3539,3539,53.19,-5.78,38.88,0
3540,3540,53.2,-2.21,30.57,0
3541,3541,53.21,-4.94,19.8,0
3542,3542,53.22,-9.89,16.27,0
3543,3543,53.24,-11.11,17.07,0
3544,3544,53.25,-15.17,22.34,0
3545,3545,53.27,-19.4,30.1,0
3546,3546,53.28,-9.87,28.39,0
3547,3547,53.29,6.35,19.05,0
3548,3548,53.31,8.44,17.74,0
3549,3549,53.32,-0.86,21.6,0
3550,3550,53.33,-4.25,19.0,0
3551,3551,53.35,-2.81,15.5,0
3552,3552,53.36,-3.0,14.67,0
3553,3553,53.37,1.41,12.78,0
3554,3554,53.38,8.75,11.03,0
3555,3555,53.4,9.07,10.99,0
3556,3556,53.41,7.29,10.81,0
3557,3557,53.43,6.22,8.28,0
3558,3558,53.44,-4.62,9.87,0
3559,3559,53.45,-16.45,19.39,0
3560,3560,53.47,-10.99,19.09,0
3561,3561,53.48,0.2,7.57,0
3562,3562,53.49,0.79,5.06,0
3563,3563,53.51,-0.92,2.48,0
3564,3564,53.52,2.21,-12.74,0
3565,3565,53.53,2.99,-19.15,0
3566,3566,53.54,1.96,-8.72,0
3567,3567,53.56,1.42,0.76,0
3568,3568,53.57,-4.69,3.98,0
3569,3569,53.58,-9.99,3.21,0
3570,3570,53.6,-3.69,-1.66,0
3571,3571,53.61,6.01,-8.72,0
3572,3572,53.62,10.87,-16.62,0
3573,3573,53.64,12.5,-18.77,0
3574,3574,53.65,9.49,-12.14,0
3575,3575,53.66,2.19,-5.87,0
3576,3576,53.68,-6.65,-4.04,0
3577,3577,53.69,-13.64,-5.92,0
3578,3578,53.7,-11.29,-9.57,0
3579,3579,53.72,-4.56,-9.09,0
3580,3580,53.73,-7.1,-8.83,0
3581,3581,53.75,-10.41,-17.5,0
3582,3582,53.76,1.73,-24.78,0
3583,3583,53.77,17.78,-17.51,0
3584,3584,53.79,16.69,-9.27,0
3585,3585,53.8,4.53,-13.84,0
3586,3586,53.81,0.18,-17.62,0
3587,3587,53.83,1.46,-15.25,0
3588,3588,53.84,-1.05,-16.86,0
3589,3589,53.85,-1.42,-16.9,0
3590,3590,53.87,3.66,-8.87,0
3591,3591,53.88,4.3,-6.36,0
3592,3592,53.89,-0.71,-18.09,0
3593,3593,53.9,1.12,-26.03,0
3594,3594,53.92,12.86,-15.19,0
3595,3595,53.93,20.4,-5.21,0
3596,3596,53.95,12.74,-17.49,0
3597,3597,53.96,0.79,-33.09,0
3598,3598,53.97,0.4,-25.75,0
3599,3599,53.99,4.17,-11.64,0
3600,3600,54.0,-1.11,-17.92,0
3601,3601,54.01,-11.55,-34.82,0
3602,3602,54.03,-17.18,-35.33,0
3603,3603,54.04,-13.2,-15.88,0
3604,3604,54.05,-3.0,1.06,0
3605,3605,54.06,1.7,0.07,0
3606,3606,54.08,-6.31,-7.17,0
3607,3607,54.09,-12.38,-7.55,0
3608,3608,54.11,0.08,-9.38,0
3609,3609,54.12,16.28,-19.44,0
3610,3610,54.13,19.45,-23.32,0
3611,3611,54.15,17.37,-19.66,0
3612,3612,54.16,14.63,-30.71,0
3613,3613,54.17,5.32,-60.99,0
3614,3614,54.18,-4.77,-65.14,0
3615,3615,54.2,-1.32,17.02,0
3616,3616,54.21,10.34,129.75,0
3617,3617,54.22,4.93,147.92,0
3618,3618,54.24,-13.2,71.24,0
3619,3619,54.25,0.66,-10.58,0
3620,3620,54.26,50.22,-20.97,0
3621,3621,54.28,66.36,28.49,0
3622,3622,54.29,19.14,40.11,0
3623,3623,54.3,-28.86,26.49,0
3624,3624,54.32,-37.15,47.87,0
3625,3625,54.33,-27.27,26.56,0
3626,3626,54.34,-15.8,-39.22,0
3627,3627,54.36,-14.41,-27.08,0
3628,3628,54.37,-25.16,23.86,0
3629,3629,54.38,-24.35,11.45,0
3630,3630,54.4,-8.8,-2.36,0
3631,3631,54.41,-3.78,39.02,0
3632,3632,54.43,-8.97,39.75,0
3633,3633,54.44,-0.79,-51.37,0
3634,3634,54.45,9.38,-108.92,0
3635,3635,54.47,-6.65,-60.04,0
3636,3636,54.48,-23.08,-24.96,0
3637,3637,54.49,-5.49,-92.29,0
3638,3638,54.51,15.65,-160.14,0
3639,3639,54.52,11.56,-113.26,0
3640,3640,54.53,2.57,-6.52,0
3641,3641,54.54,-1.2,40.08,0
3642,3642,54.56,-8.08,1.75,0
3643,3643,54.57,-6.99,-59.7,0
3644,3644,54.59,8.43,-76.97,0
3645,3645,54.6,16.05,-58.51,0
3646,3646,54.61,6.22,-51.8,0
3647,3647,54.63,-1.26,-30.42,0
3648,3648,54.64,6.12,18.48,0
3649,3649,54.65,22.57,7.41,0
3650,3650,54.67,34.99,-71.55,0
3651,3651,54.68,29.49,-88.75,0
3652,3652,54.69,8.29,-16.92,0
3653,3653,54.71,-5.58,24.8,0
3654,3654,54.72,0.98,4.26,0
3655,3655,54.73,9.31,13.75,0
3656,3656,54.75,1.8,74.36,0
3657,3657,54.76,-6.19,89.2,0
3658,3658,54.77,-0.56,18.75,0
3659,3659,54.79,7.34,-55.9,0
3660,3660,54.8,6.58,-62.65,0
3661,3661,54.81,-0.77,-35.12,0
3662,3662,54.82,-10.95,-30.25,0
3663,3663,54.84,-18.2,-4.57,0
3664,3664,54.85,-12.64,47.27,0
3665,3665,54.86,1.81,28.44,0
3666,3666,54.88,8.81,-25.49,0
3667,3667,54.89,0.07,-6.13,0
3668,3668,54.9,-13.17,41.9,0
3669,3669,54.92,-12.08,35.63,0
3670,3670,54.93,-1.63,-1.82,0
3671,3671,54.94,1.88,-13.93,0
3672,3672,54.96,-2.53,-4.61,0
3673,3673,54.97,-11.61,-8.01,0
3674,3674,54.98,-16.25,-15.67,0
3675,3675,55.0,-7.3,-2.9,0
3676,3676,55.01,1.7,19.54,0
3677,3677,55.03,-3.71,30.69,0
3678,3678,55.04,-9.51,34.45,0
3679,3679,55.05,-2.02,23.5,0
3680,3680,55.06,3.66,-16.53,0
3681,3681,55.08,-3.35,-32.71,0
3682,3682,55.09,-5.92,20.61,0
3683,3683,55.11,2.75,72.12,0
3684,3684,55.12,4.38,42.72,0
3685,3685,55.13,-4.06,-14.71,0
3686,3686,55.15,-6.94,-0.91,0
3687,3687,55.16,-2.48,52.41,0
3688,3688,55.17,-1.62,47.22,0
3689,3689,55.19,-4.03,11.98,0
3690,3690,55.2,1.98,30.17,0
3691,3691,55.21,10.37,70.32,0
3692,3692,55.22,7.27,64.7,0
3693,3693,55.24,-2.26,28.34,0
3694,3694,55.25,-16.3,6.72,0
3695,3695,55.27,-31.13,9.92,0
3696,3696,55.28,-23.82,17.34,0
3697,3697,55.29,2.55,10.13,0
3698,3698,55.31,10.45,8.5,0
3699,3699,55.32,-6.22,34.24,0
3700,3700,55.33,-10.34,45.14,0
3701,3701,55.35,2.87,10.84,0
3702,3702,55.36,-1.73,-16.73,0
3703,3703,55.37,-13.34,-9.22,0
3704,3704,55.38,1.67,4.33,0
3705,3705,55.4,17.06,9.28,0
3706,3706,55.41,5.27,4.68,0
3707,3707,55.43,-2.23,3.18,0
3708,3708,55.44,10.15,16.97,0
3709,3709,55.45,9.36,27.46,0
3710,3710,55.46,-12.49,27.59,0
3711,3711,55.48,-21.21,26.13,0
3712,3712,55.49,-0.12,12.36,0
3713,3713,55.5,25.79,-6.01,0
3714,3714,55.52,25.54,-8.44,0
3715,3715,55.53,6.42,-1.11,0
3716,3716,55.54,-4.72,8.86,0
3717,3717,55.56,-10.52,1.14,0
3718,3718,55.57,-21.55,-20.06,0
3719,3719,55.58,-22.9,5.79,0
3720,3720,55.6,-8.25,56.78,0
3721,3721,55.61,7.23,59.17,0
3722,3722,55.62,11.67,36.86,0
3723,3723,55.64,8.7,16.5,0
3724,3724,55.65,9.06,-3.76,0
3725,3725,55.66,10.7,17.77,0
3726,3726,55.68,6.19,55.82,0
3727,3727,55.69,1.79,32.48,0
3728,3728,55.71,3.47,-11.32,0
3729,3729,55.72,6.47,-4.67,0
3730,3730,55.73,8.39,16.07,0
3731,3731,55.75,9.99,16.21,0
3732,3732,55.76,5.21,11.88,0
3733,3733,55.77,-3.25,2.91,0
3734,3734,55.79,0.16,-4.82,0
3735,3735,55.8,13.39,2.79,0
3736,3736,55.81,21.51,10.59,0
3737,3737,55.83,25.1,4.49,0
3738,3738,55.84,25.96,1.25,0
3739,3739,55.85,16.7,13.6,0
3740,3740,55.87,1.75,18.37,0
3741,3741,55.88,-5.68,0.96,0
3742,3742,55.89,-1.41,-4.67,0
3743,3743,55.9,10.86,9.13,0
3744,3744,55.92,19.18,-12.04,0
3745,3745,55.93,15.89,-53.63,0
3746,3746,55.95,11.33,-44.45,0
3747,3747,55.96,7.77,-8.56,0
3748,3748,55.97,-8.23,10.33,0
3749,3749,55.99,-25.82,9.32,0
3750,3750,56.0,-22.48,-25.56,0
3751,3751,56.01,-3.33,-53.48,0
3752,3752,56.03,14.65,-36.26,0
3753,3753,56.04,18.24,-22.47,0
3754,3754,56.05,5.12,-28.14,0
3755,3755,56.06,-9.82,-26.48,0
3756,3756,56.08,-17.04,-29.55,0
3757,3757,56.09,-21.07,-46.25,0
3758,3758,56.1,-20.15,-43.24,0
3759,3759,56.12,-10.95,-8.08,0
3760,3760,56.13,-1.82,-1.37,0
3761,3761,56.14,5.31,-49.23,0
3762,3762,56.16,10.8,-57.54,0
3763,3763,56.17,5.3,11.19,0
3764,3764,56.18,-6.54,40.33,0
3765,3765,56.2,-11.14,-8.94,0
3766,3766,56.21,-7.63,-42.17,0
3767,3767,56.22,-2.44,-57.57,0
3768,3768,56.24,-1.75,-116.89,0
3769,3769,56.25,-7.45,-177.5,0
3770,3770,56.26,-10.4,-179.63,0
3771,3771,56.28,1.63,-154.57,0
3772,3772,56.29,13.57,-153.01,0
3773,3773,56.3,-2.94,-164.26,0
3774,3774,56.32,-35.0,-146.69,0
3775,3775,56.33,-47.58,-97.44,0
3776,3776,56.35,-32.69,-41.08,0
3777,3777,56.36,-4.79,18.08,0
3778,3778,56.37,13.76,77.72,0
3779,3779,56.38,12.93,114.1,0
3780,3780,56.4,10.67,120.69,0
3781,3781,56.41,16.62,122.47,0
3782,3782,56.43,17.95,128.78,0
3783,3783,56.44,11.49,125.6,0
3784,3784,56.45,4.71,114.18,0
3785,3785,56.47,1.68,110.48,0
3786,3786,56.48,2.1,113.59,0
3787,3787,56.49,1.81,109.42,0
3788,3788,56.51,-1.7,96.72,0
3789,3789,56.52,-6.78,87.14,0
3790,3790,56.53,-6.26,88.03,0
3791,3791,56.54,0.04,87.46,0
3792,3792,56.56,-3.82,73.19,0
3793,3793,56.57,-12.96,59.21,0
3794,3794,56.59,-3.43,58.17,0
3795,3795,56.6,12.79,58.99,0
3796,3796,56.61,11.49,46.74,0
3797,3797,56.63,6.46,25.52,0
3798,3798,56.64,11.19,16.45,0
3799,3799,56.65,13.98,17.18,0
3800,3800,56.67,8.16,5.35,0
3801,3801,56.68,-4.68,-8.94,0
3802,3802,56.69,-16.44,-9.43,0
3803,3803,56.71,-12.68,-9.59,0
3804,3804,56.72,0.02,-10.35,0
3805,3805,56.73,4.11,-2.21,0
3806,3806,56.74,1.85,-0.25,0
3807,3807,56.76,-2.85,-12.39,0
3808,3808,56.77,-10.99,-20.89,0
3809,3809,56.78,-12.73,-15.47,0
3810,3810,56.8,-8.62,-7.51,0
3811,3811,56.81,-8.0,-10.85,0
3812,3812,56.82,-4.32,-19.58,0
3813,3813,56.84,1.51,-22.09,0
3814,3814,56.85,-0.97,-21.16,0
3815,3815,56.86,-4.22,-17.32,0
3816,3816,56.88,1.4,-9.42,0
3817,3817,56.89,11.83,-4.47,0
3818,3818,56.9,17.96,-4.65,0
3819,3819,56.92,15.74,-7.48,0
3820,3820,56.93,11.63,-11.78,0
3821,3821,56.94,4.74,-16.89,0
3822,3822,56.96,-13.19,-24.87,0
3823,3823,56.97,-32.14,-33.44,0
3824,3824,56.99,-33.64,-32.93,0
3825,3825,57.0,-13.97,-23.46,0
3826,3826,57.01,11.52,-16.67,0
3827,3827,57.03,20.81,-18.7,0
3828,3828,57.04,12.4,-24.08,0
3829,3829,57.05,7.53,-25.48,0
3830,3830,57.06,12.74,-24.89,0
3831,3831,57.08,9.49,-25.7,0
3832,3832,57.09,-9.93,-24.25,0
3833,3833,57.11,-25.45,-21.28,0
3834,3834,57.12,-25.02,-17.93,0
3835,3835,57.13,-18.3,-9.72,0
3836,3836,57.15,-7.08,0.28,0
3837,3837,57.16,7.85,10.67,0
3838,3838,57.17,11.31,17.19,0
3839,3839,57.19,-0.3,-2.09,0
3840,3840,57.2,-10.93,-40.03,0
3841,3841,57.21,-9.68,-51.69,0
3842,3842,57.22,0.61,-26.93,0
3843,3843,57.24,12.9,-3.67,0
3844,3844,57.25,19.6,-7.35,0
3845,3845,57.27,14.49,-16.9,0
3846,3846,57.28,-0.54,-4.6,0
3847,3847,57.29,-16.49,10.16,0
3848,3848,57.31,-22.1,-5.16,0
3849,3849,57.32,-15.73,-27.11,0
3850,3850,57.33,-5.64,-22.15,0
3851,3851,57.35,9.76,-10.54,0
3852,3852,57.36,29.9,-14.55,0
3853,3853,57.37,36.93,-23.18,0
3854,3854,57.38,24.37,-22.11,0
3855,3855,57.4,7.71,-8.48,0
3856,3856,57.41,-1.67,4.22,0
3857,3857,57.42,-5.6,-2.86,0
3858,3858,57.44,-7.96,-20.94,0
3859,3859,57.45,-2.36,-23.5,0
3860,3860,57.46,15.82,-14.04,0
3861,3861,57.48,24.66,-13.92,0
3862,3862,57.49,6.88,-15.93,0
3863,3863,57.5,-12.06,-4.61,0
3864,3864,57.52,-10.89,5.88,0
3865,3865,57.53,-4.03,1.41,0
3866,3866,57.54,1.89,-1.59,0
3867,3867,57.56,11.06,10.66,0
3868,3868,57.57,12.17,24.74,0
3869,3869,57.58,-2.58,23.65,0
3870,3870,57.6,-17.78,6.29,0
3871,3871,57.61,-11.48,-11.7,0
3872,3872,57.625,9.64,-13.58,0
3873,3873,57.64,13.66,-4.42,0
3874,3874,57.65,-1.56,1.71,0
3875,3875,57.67,-8.62,6.38,0
3876,3876,57.68,-5.86,13.84,0
3877,3877,57.69,-8.17,18.28,0
3878,3878,57.71,-7.15,18.72,0
3879,3879,57.72,5.86,19.12,0
3880,3880,57.73,10.98,12.02,0
3881,3881,57.75,-4.82,-2.96,0
3882,3882,57.76,-18.78,-3.9,0
3883,3883,57.77,-8.66,12.19,0
3884,3884,57.79,10.48,16.91,0
3885,3885,57.8,14.8,3.1,0
3886,3886,57.81,8.71,-2.96,0
3887,3887,57.83,2.91,7.41,0
3888,3888,57.84,-5.06,11.75,0
3889,3889,57.85,-8.36,4.19,0
3890,3890,57.87,3.2,3.9,0
3891,3891,57.88,12.71,10.37,0
3892,3892,57.89,1.72,9.98,0
3893,3893,57.9,-7.47,7.55,0
3894,3894,57.92,6.86,11.1,0
3895,3895,57.93,17.76,16.11,0
3896,3896,57.95,1.55,14.26,0
3897,3897,57.96,-15.57,2.72,0
3898,3898,57.97,-8.14,-10.53,0
3899,3899,57.99,5.55,-14.98,0
3900,3900,58.0,3.77,-6.89,0
3901,3901,58.01,-3.52,6.3,0
3902,3902,58.02,0.05,9.02,0
3903,3903,58.04,12.38,-4.24,0
3904,3904,58.05,21.62,-10.99,0
3905,3905,58.06,16.92,10.74,0
3906,3906,58.08,-0.92,29.09,0
3907,3907,58.09,-15.08,12.71,0
3908,3908,58.1,-16.75,2.93,0
3909,3909,58.12,-11.78,22.66,0
3910,3910,58.13,-0.41,26.44,0
3911,3911,58.14,7.24,4.96,0
3912,3912,58.16,-3.15,-0.83,0
3913,3913,58.17,-9.83,9.14,0
3914,3914,58.18,2.31,-1.71,0
3915,3915,58.2,4.69,-34.87,0
3916,3916,58.21,-8.01,-55.71,0
3917,3917,58.22,-8.18,-50.66,0
3918,3918,58.24,-6.02,-50.14,0
3919,3919,58.25,-23.85,-79.39,0
3920,3920,58.26,-28.16,-117.55,0
3921,3921,58.28,10.59,-137.95,0
3922,3922,58.29,47.76,-138.34,0
3923,3923,58.31,36.27,-125.62,0
3924,3924,58.32,3.38,-108.19,0
3925,3925,58.33,-2.2,-90.29,0
3926,3926,58.35,19.78,-71.21,0
3927,3927,58.36,38.08,-51.71,0
3928,3928,58.37,37.06,-32.87,0
3929,3929,58.38,23.66,-11.96,0
3930,3930,58.4,4.86,10.85,0
3931,3931,58.41,-16.69,29.56,0
3932,3932,58.43,-25.43,47.36,0
3933,3933,58.44,-10.45,73.85,0
3934,3934,58.45,9.94,100.85,0
3935,3935,58.47,12.84,112.08,0
3936,3936,58.48,-3.63,111.25,0
3937,3937,58.49,-24.98,111.93,0
3938,3938,58.51,-33.64,119.86,0
3939,3939,58.52,-22.29,132.55,0
3940,3940,58.53,0.82,137.42,0
3941,3941,58.54,16.81,128.39,0
3942,3942,58.56,9.71,120.36,0
3943,3943,58.57,-14.12,122.44,0
3944,3944,58.59,-27.6,121.21,0
3945,3945,58.6,-20.36,107.49,0
3946,3946,58.61,-13.04,94.97,0
3947,3947,58.63,-12.1,98.25,0
3948,3948,58.64,-0.08,108.02,0
3949,3949,58.65,16.51,103.87,0
3950,3950,58.66,10.85,86.93,0
3951,3951,58.68,-13.75,75.73,0
3952,3952,58.69,-28.08,72.46,0
3953,3953,58.7,-23.66,65.88,0
3954,3954,58.72,-19.75,52.75,0
3955,3955,58.73,-17.64,36.91,0
3956,3956,58.74,-0.25,25.23,0
3957,3957,58.76,11.48,19.74,0
3958,3958,58.77,-7.21,19.87,0
3959,3959,58.78,-25.3,24.95,0
3960,3960,58.8,-16.08,20.67,0
3961,3961,58.81,-3.36,-3.17,0
3962,3962,58.82,-7.72,-28.44,0
3963,3963,58.84,-16.7,-32.96,0
3964,3964,58.85,-15.73,-20.51,0
3965,3965,58.86,-9.1,-12.38,0
3966,3966,58.88,-4.85,-19.23,0
3967,3967,58.89,2.25,-32.23,0
3968,3968,58.9,13.75,-37.44,0
3969,3969,58.92,13.9,-33.86,0
3970,3970,58.93,1.97,-35.43,0
3971,3971,58.95,-2.82,-45.97,0
3972,3972,58.96,-5.96,-53.71,0
3973,3973,58.97,-16.15,-56.76,0
3974,3974,58.99,-9.28,-59.76,0
3975,3975,59.0,17.11,-57.13,0
3976,3976,59.01,29.98,-50.57,0
3977,3977,59.03,22.62,-54.09,0
3978,3978,59.04,9.85,-63.29,0
3979,3979,59.05,-5.54,-59.86,0
3980,3980,59.06,-11.33,-47.54,0
3981,3981,59.08,-0.42,-41.95,0
3982,3982,59.09,5.35,-45.52,0
3983,3983,59.11,-3.32,-53.11,0
3984,3984,59.12,-10.22,-56.29,0
3985,3985,59.13,-6.11,-49.27,0
3986,3986,59.15,7.63,-41.48,0
3987,3987,59.16,19.66,-42.21,0
3988,3988,59.17,15.54,-46.11,0
3989,3989,59.19,3.42,-48.03,0
3990,3990,59.2,1.73,-46.64,0
3991,3991,59.21,4.68,-41.83,0
3992,3992,59.22,-3.72,-39.57,0
3993,3993,59.24,-13.41,-42.51,0
3994,3994,59.25,-4.47,-46.16,0
3995,3995,59.27,17.76,-43.32,0
3996,3996,59.28,27.16,-33.58,0
3997,3997,59.29,14.75,-32.37,0
3998,3998,59.3,-1.43,-44.63,0
3999,3999,59.32,-8.3,-52.54,0
4000,4000,59.33,-6.94,-46.96,0
4001,4001,59.34,1.61,-31.66,0
4002,4002,59.36,13.11,-15.99,0
4003,4003,59.37,16.36,-17.28,0
4004,4004,59.38,7.23,-33.95,0
4005,4005,59.4,-1.44,-38.23,0
4006,4006,59.41,3.09,-22.28,0
4007,4007,59.42,15.48,-10.05,0
4008,4008,59.44,22.4,-16.14,0
4009,4009,59.45,20.69,-29.41,0
4010,4010,59.46,11.25,-30.36,0
4011,4011,59.48,-6.67,-14.31,0
4012,4012,59.49,-20.15,-0.91,0
4013,4013,59.5,-13.75,-5.92,0
4014,4014,59.52,-0.18,-16.69,0
4015,4015,59.53,3.23,-15.23,0
4016,4016,59.54,5.09,-5.59,0
4017,4017,59.56,13.19,-3.22,0
4018,4018,59.57,17.28,-7.61,0
4019,4019,59.59,12.96,-5.58,0
4020,4020,59.6,7.0,3.34,0
4021,4021,59.61,7.74,5.72,0
4022,4022,59.63,12.13,-2.24,0
4023,4023,59.64,6.55,-5.22,0
4024,4024,59.65,-4.49,1.58,0
4025,4025,59.67,-5.78,2.62,0
4026,4026,59.68,-3.89,-4.88,0
4027,4027,59.69,-7.84,-4.52,0
4028,4028,59.71,-9.28,7.83,0
4029,4029,59.72,-5.22,14.89,0
4030,4030,59.73,0.23,10.88,0
4031,4031,59.75,9.57,11.99,0
4032,4032,59.76,17.17,20.51,0
4033,4033,59.77,11.63,18.43,0
4034,4034,59.79,-3.32,5.5,0
4035,4035,59.8,-14.09,3.78,0
4036,4036,59.81,-10.38,17.23,0
4037,4037,59.83,3.71,25.3,0
4038,4038,59.84,8.95,22.26,0
4039,4039,59.85,2.2,25.12,0
4040,4040,59.87,1.65,37.6,0
4041,4041,59.88,7.15,40.76,0
4042,4042,59.89,2.94,27.68,0
4043,4043,59.9,-6.53,16.34,0
4044,4044,59.92,-10.38,18.0,0
4045,4045,59.93,-12.25,21.58,0
4046,4046,59.94,-14.88,18.69,0
4047,4047,59.96,-12.28,19.34,0
4048,4048,59.97,-5.74,27.18,0
4049,4049,59.98,-6.27,27.98,0
4050,4050,60.0,-13.71,18.43,0
4051,4051,60.01,-13.21,11.82,0
4052,4052,60.02,-1.07,13.55,0
4053,4053,60.04,6.76,18.02,0
4054,4054,60.05,-0.14,21.13,0
4055,4055,60.06,-11.76,20.87,0
4056,4056,60.08,-16.12,16.38,0
4057,4057,60.09,-15.11,12.5,0
4058,4058,60.1,-13.1,13.51,0
4059,4059,60.12,-8.13,17.86,0
4060,4060,60.13,-1.05,18.55,0
4061,4061,60.14,3.25,10.9,0
4062,4062,60.16,6.33,12.22,0
4063,4063,60.17,14.04,56.39,0
4064,4064,60.18,20.5,150.57,0
4065,4065,60.2,12.66,252.57,0
4066,4066,60.21,-0.93,309.5,0
4067,4067,60.22,2.99,305.33,0
4068,4068,60.24,11.1,256.1,0
4069,4069,60.25,-0.12,186.43,0
4070,4070,60.27,-2.75,119.26,0
4071,4071,60.28,21.43,68.94,0
4072,4072,60.29,30.67,30.39,0
4073,4073,60.31,0.01,-12.22,0
4074,4074,60.32,-42.96,-54.91,0
4075,4075,60.33,-71.06,-89.51,0
4076,4076,60.35,-79.68,-128.51,0
4077,4077,60.36,-67.18,-169.72,0
4078,4078,60.37,-36.76,-191.62,0
4079,4079,60.38,-10.58,-195.98,0
