,Timestamp,Data1,Data2,Label
0,6.0,-5.37,-3.93,0
1,6.01,-2.9,-14.73,0
2,6.03,1.22,-8.93,0
3,6.04,-8.76,6.84,0
4,6.05,-9.72,12.54,0
5,6.07,7.42,2.71,0
6,6.08,12.55,-6.54,0
7,6.09,0.13,-8.38,0
8,6.11,-3.54,-5.36,1
9,6.12,3.54,1.04,1
10,6.13,4.49,6.44,1
11,6.15,2.77,5.65,1
12,6.16,9.05,-3.37,1
13,6.17,16.98,-14.76,1
14,6.19,15.34,-11.41,1
15,6.2,-3.22,22.87,1
16,6.21,-28.55,62.86,1
17,6.23,-10.87,61.27,1
18,6.24,56.23,97.28,1
19,6.25,82.83,252.57,1
20,6.265,29.47,342.92,1
21,6.28,-32.56,278.77,1
22,6.29,-61.13,270.28,1
23,6.31,-71.27,322.34,1
24,6.32,-43.45,277.04,1
25,6.33,16.62,200.06,1
26,6.35,25.89,180.97,1
27,6.36,-29.99,164.89,1
28,6.37,-50.85,119.9,1
29,6.39,4.05,80.04,1
30,6.4,35.04,57.42,1
31,6.41,-17.99,34.62,1
32,6.43,-56.6,6.14,1
33,6.44,-15.09,-18.45,1
34,6.45,14.15,-67.65,1
35,6.47,-14.04,-170.51,1
36,6.48,-12.28,-229.11,1
37,6.49,40.77,-188.91,1
38,6.51,79.89,-189.49,1
39,6.52,66.18,-261.95,1
40,6.53,20.78,-301.34,1
41,6.55,7.38,-316.26,1
42,6.56,6.73,-352.76,1
43,6.57,-50.29,-389.96,1
44,6.59,-91.41,-360.46,1
45,6.6,-14.83,-226.14,1
46,6.61,84.4,-82.05,1
47,6.63,77.68,-84.08,1
48,6.64,22.23,-263.96,1
49,6.65,6.44,-439.4,1
50,6.67,12.87,-372.9,1
51,6.68,6.2,-111.89,1
52,6.69,-6.05,-0.75,1
53,6.71,-7.57,-165.74,1
54,6.72,-9.76,-270.21,1
55,6.73,-25.04,-130.15,1
56,6.75,-53.59,-38.11,1
57,6.76,-63.43,-106.9,1
58,6.77,-9.41,-110.07,1
59,6.79,44.46,-47.58,1
60,6.8,19.61,-60.84,1
61,6.81,-7.46,-87.76,1
62,6.82,17.45,-65.58,1
63,6.84,17.31,-62.6,1
64,6.85,-16.8,-67.03,1
65,6.86,-20.26,-4.55,1
66,6.88,-6.4,41.17,1
67,6.89,-10.79,-33.39,1
68,6.91,-6.97,-119.32,0
69,6.92,28.37,-91.26,0
70,6.93,74.14,-23.55,0
71,6.95,102.97,6.68,0
72,6.96,76.43,86.11,0
73,6.97,-4.81,206.0,0
74,6.99,-42.74,183.58,0
75,7.0,-8.46,50.47,0
76,7.01,1.91,35.69,0
77,7.03,-35.17,125.11,0
78,7.04,-49.02,126.11,0
79,7.05,-22.58,33.07,0
80,7.07,1.19,-19.45,0
81,7.08,8.78,6.05,0
82,7.09,-2.49,57.32,0
83,7.11,-39.67,80.09,0
84,7.12,-65.01,43.57,0
85,7.13,-46.21,25.28,0
86,7.15,-18.57,89.16,0
87,7.16,-25.64,98.98,0
88,7.17,-40.61,22.37,0
89,7.19,-26.49,36.19,0
90,7.2,-19.25,136.78,0
91,7.21,-34.3,188.63,0
92,7.23,-23.82,167.79,0
93,7.24,10.81,105.31,0
94,7.25,22.86,75.36,0
95,7.27,2.91,124.38,0
96,7.28,-22.31,156.11,0
97,7.29,-21.37,103.76,0
98,7.31,10.39,43.02,0
99,7.32,35.25,28.8,0
100,7.33,26.91,77.55,0
101,7.35,9.12,170.35,0
102,7.36,-0.89,189.11,0
103,7.37,-7.77,126.88,0
104,7.39,11.88,128.38,0
105,7.4,59.97,192.86,0
106,7.41,59.1,167.31,0
107,7.43,-11.09,57.68,0
108,7.44,-42.05,44.92,0
109,7.45,-6.6,122.06,0
110,7.47,7.39,140.5,0
111,7.48,-6.38,138.14,0
112,7.49,-3.77,172.79,0
113,7.51,7.01,144.5,0
114,7.52,15.08,41.43,0
115,7.53,16.62,23.07,0
116,7.55,1.31,129.45,0
117,7.56,-9.98,184.3,0
118,7.57,-2.34,109.53,0
119,7.59,4.13,54.65,0
120,7.6,12.12,90.75,0
121,7.61,20.71,68.16,0
122,7.63,7.16,-56.11,0
123,7.64,-5.73,-85.73,0
124,7.65,5.59,31.84,0
125,7.67,7.93,73.19,0
126,7.68,-4.85,-49.39,0
127,7.69,2.06,-124.19,0
128,7.71,14.97,-49.19,0
129,7.72,4.7,21.09,0
130,7.73,-2.41,30.52,0
131,7.75,6.98,57.73,0
132,7.76,8.26,79.48,0
133,7.77,3.67,24.39,0
134,7.79,-1.25,-78.05,0
135,7.8,-3.46,-117.34,0
136,7.81,8.31,-59.97,0
137,7.83,11.77,2.62,0
138,7.84,4.04,11.28,0
139,7.85,14.13,-21.74,0
140,7.87,19.08,-67.87,0
141,7.88,4.28,-45.22,0
142,7.89,11.77,62.29,0
143,7.91,36.61,100.79,0
144,7.92,35.99,13.79,0
145,7.93,2.58,-50.61,0
146,7.95,-36.84,-48.38,0
147,7.96,-32.74,-60.97,0
148,7.97,11.91,-61.26,0
149,7.99,27.4,-31.85,0
150,8.0,-0.95,-48.18,0
151,8.01,-14.18,-79.52,0
152,8.03,5.65,-61.24,0
153,8.04,0.33,-52.56,0
154,8.05,-50.14,-91.62,0
155,8.07,-63.42,-108.78,0
156,8.08,0.11,-69.74,0
157,8.09,44.43,-59.61,0
158,8.1,18.51,-106.03,0
159,8.12,2.29,-82.29,1
160,8.13,15.0,5.88,1
161,8.15,-3.21,-25.92,1
162,8.16,-28.51,-137.64,1
163,8.17,-15.95,-100.0,1
164,8.19,4.59,24.78,1
165,8.2,6.31,-0.24,1
166,8.21,-1.82,-92.5,1
167,8.23,-2.75,-59.89,1
168,8.24,1.47,4.92,1
169,8.25,-10.38,-18.96,1
170,8.27,-18.1,-49.14,1
171,8.28,7.92,-28.55,1
172,8.29,30.76,-28.2,1
173,8.31,15.93,-66.87,1
174,8.32,-10.28,-88.15,1
175,8.33,-22.73,-94.31,1
176,8.35,-16.01,-133.77,1
177,8.36,7.31,-210.41,1
178,8.37,26.0,-290.44,1
179,8.39,30.35,-344.37,1
180,8.4,32.14,-333.14,1
181,8.41,28.25,-244.3,1
182,8.43,7.59,-140.13,1
183,8.44,-19.63,-76.66,1
184,8.45,-32.74,-38.35,1
185,8.47,-28.95,4.32,1
186,8.48,-21.26,49.24,1
187,8.49,-14.48,80.82,1
188,8.51,-7.48,93.98,1
189,8.52,-5.28,98.79,1
190,8.53,-10.1,104.64,1
191,8.55,-21.13,107.16,1
192,8.56,-34.1,108.26,1
193,8.57,-33.08,122.04,1
194,8.59,-14.04,136.94,1
195,8.6,3.04,122.73,1
196,8.61,5.62,90.45,1
197,8.63,0.37,80.72,1
198,8.64,-3.35,94.53,1
199,8.65,-0.68,100.09,1
200,8.67,7.49,84.93,1
201,8.68,12.1,64.75,1
202,8.69,6.02,60.16,1
203,8.71,-7.94,71.17,1
204,8.72,-18.15,78.2,1
205,8.73,-10.58,71.28,1
206,8.75,5.88,60.73,1
207,8.76,7.69,57.57,1
208,8.77,1.87,59.21,1
209,8.78,6.79,49.08,1
210,8.8,9.48,25.91,1
211,8.81,1.52,20.92,1
212,8.82,0.98,43.25,1
213,8.84,8.17,52.58,1
214,8.85,4.07,30.72,1
215,8.87,-5.04,15.88,1
216,8.88,0.42,27.25,1
217,8.89,13.53,35.52,1
218,8.91,15.46,26.28,0
219,8.92,9.49,15.42,0
220,8.93,9.75,14.42,0
221,8.95,11.14,20.95,0
222,8.96,5.34,22.6,0
223,8.97,2.0,15.22,0
224,8.99,2.5,9.58,0
225,9.0,-4.24,8.71,0
226,9.01,-14.7,5.9,0
227,9.03,-11.47,0.44,0
228,9.04,6.97,-6.27,0
229,9.05,16.7,-11.07,0
230,9.07,1.73,-11.54,0
231,9.08,-20.92,-15.94,0
232,9.09,-23.48,-24.97,0
233,9.11,-6.3,-23.23,0
234,9.12,5.98,-12.72,0
235,9.13,4.13,-10.4,0
236,9.15,-2.51,-13.3,0
237,9.16,-8.73,-11.11,0
238,9.17,-12.27,-10.62,0
239,9.19,-9.93,-21.53,0
240,9.2,0.73,-29.36,0
241,9.21,16.03,-17.04,0
242,9.23,19.36,-8.08,0
243,9.24,2.99,-21.91,0
244,9.25,-11.78,-27.84,0
245,9.27,-6.61,-16.21,0
246,9.28,2.09,-20.92,0
247,9.29,-5.72,-35.06,0
248,9.31,-17.28,-23.96,0
249,9.32,-15.12,-7.73,0
250,9.33,-2.68,-15.48,0
251,9.35,14.41,-23.6,0
252,9.36,27.11,-16.52,0
253,9.37,16.31,-12.64,0
254,9.39,-10.68,-19.99,0
255,9.4,-18.93,-29.74,0
256,9.41,-5.11,-34.8,0
257,9.43,1.61,-38.12,0
258,9.44,-0.37,-39.63,0
259,9.45,7.29,-32.99,0
260,9.47,14.68,-22.9,0
261,9.48,6.88,-17.76,0
262,9.49,-3.76,-20.07,0
263,9.51,-5.6,-27.9,0
264,9.52,-5.96,-28.62,0
265,9.53,-8.74,-14.09,0
266,9.55,-1.42,-3.82,0
267,9.56,17.06,-14.8,0
268,9.57,22.09,-20.93,0
269,9.59,7.37,-2.26,0
270,9.6,-2.98,8.46,0
271,9.61,-3.06,-7.95,0
272,9.63,-7.51,-23.56,0
273,9.64,-9.38,-24.67,0
274,9.65,6.14,-21.22,0
275,9.67,24.17,-17.81,0
276,9.68,25.39,-23.3,0
277,9.69,16.91,-34.83,0
278,9.71,5.9,-26.4,0
279,9.72,-9.75,-3.25,0
280,9.73,-17.61,0.28,0
281,9.75,-9.02,-7.41,0
282,9.76,3.19,1.89,0
283,9.77,8.84,14.69,0
284,9.79,5.9,7.66,0
285,9.8,-1.91,-8.57,0
286,9.81,-2.25,-10.2,0
287,9.83,3.21,-1.03,0
288,9.84,-0.17,-2.36,0
289,9.85,-6.5,-9.39,0
290,9.87,-2.85,-3.15,0
291,9.88,2.26,8.86,0
292,9.89,0.58,7.35,0
293,9.91,3.46,-4.96,0
294,9.92,15.08,-11.85,0
295,9.93,17.76,-6.68,0
296,9.95,3.29,-0.98,0
297,9.96,-9.11,-7.01,0
298,9.97,-7.71,-8.27,0
299,9.99,-5.44,6.89,0
300,10.0,-8.1,12.95,0
301,10.01,-9.57,4.77,0
302,10.02,-12.79,6.4,0
303,10.04,-14.61,12.75,0
304,10.05,-3.31,10.14,0
305,10.06,9.74,10.49,0
306,10.08,8.87,21.15,0
307,10.09,3.82,31.22,0
308,10.1,2.89,30.11,0
309,10.12,4.45,18.96,1
310,10.13,12.4,8.77,1
311,10.15,18.08,9.88,1
312,10.16,8.46,18.34,1
313,10.17,0.15,23.85,1
314,10.19,8.22,22.02,1
315,10.2,17.0,-4.57,1
316,10.21,26.04,-57.29,1
317,10.23,53.26,-91.89,1
318,10.24,77.86,-97.81,1
319,10.25,64.54,-112.99,1
320,10.27,29.4,-138.26,1
321,10.28,15.02,-152.1,1
322,10.29,18.69,-159.21,1
323,10.31,7.59,-157.8,1
324,10.32,-14.21,-133.37,1
325,10.33,-19.7,-92.75,1
326,10.35,-19.55,-52.37,1
327,10.36,-35.18,-16.34,1
328,10.37,-51.67,18.63,1
329,10.39,-55.01,52.12,1
330,10.4,-50.34,74.2,1
331,10.41,-33.5,89.34,1
332,10.43,-16.31,119.8,1
333,10.44,-29.62,155.1,1
334,10.45,-60.46,166.22,1
335,10.47,-59.91,165.13,1
336,10.48,-25.69,173.91,1
337,10.49,-4.33,183.61,1
338,10.51,-13.1,180.91,1
339,10.52,-21.98,167.82,1
340,10.53,-14.71,150.75,1
341,10.55,-12.82,134.23,1
342,10.56,-24.81,120.75,1
343,10.57,-29.01,113.1,1
344,10.59,-17.66,110.33,1
345,10.6,-3.32,103.13,1
346,10.61,5.78,90.15,1
347,10.63,7.56,82.62,1
348,10.64,-1.51,78.04,1
349,10.65,-18.49,61.12,1
350,10.67,-26.72,34.75,1
351,10.68,-12.91,20.87,1
352,10.69,10.22,30.54,1
353,10.71,17.0,45.77,1
354,10.72,6.23,42.3,1
355,10.73,-3.38,23.69,1
356,10.75,-7.0,10.5,1
357,10.76,-11.69,7.42,1
358,10.77,-9.87,8.1,1
359,10.78,8.64,6.67,1
360,10.8,29.4,-1.81,1
361,10.81,32.48,-10.82,1
362,10.83,19.9,-15.31,1
363,10.84,3.87,-26.36,1
364,10.85,-5.47,-40.9,1
365,10.87,-5.25,-40.08,1
366,10.88,-0.94,-31.04,1
367,10.89,3.02,-34.93,1
368,10.91,1.16,-43.34,0
369,10.92,-5.54,-42.21,0
370,10.93,-1.47,-45.03,0
371,10.95,13.39,-57.61,0
372,10.96,20.89,-59.95,0
373,10.97,23.47,-45.6,0
374,10.99,26.8,-35.29,0
375,11.0,21.05,-43.4,0
376,11.01,14.25,-54.95,0
377,11.03,16.76,-51.83,0
378,11.04,15.72,-46.01,0
379,11.05,9.29,-49.91,0
380,11.07,7.84,-50.61,0
381,11.08,10.24,-44.51,0
382,11.09,12.02,-45.52,0
383,11.11,7.38,-52.59,0
384,11.12,-2.29,-54.2,0
385,11.13,1.75,-53.54,0
386,11.15,16.94,-55.67,0
387,11.16,20.14,-50.54,0
388,11.17,14.01,-38.05,0
389,11.19,10.46,-38.6,0
390,11.2,6.56,-53.49,0
391,11.21,1.45,-56.09,0
392,11.23,-2.63,-41.05,0
393,11.24,-3.07,-34.14,0
394,11.25,4.06,-42.86,0
395,11.27,9.47,-45.42,0
396,11.28,4.17,-35.78,0
397,11.29,-0.14,-29.96,0
398,11.31,3.31,-28.35,0
399,11.32,3.62,-20.27,0
400,11.33,0.04,-13.54,0
401,11.35,0.69,-24.07,0
402,11.36,1.57,-44.92,0
403,11.37,-0.04,-49.54,0
404,11.39,1.89,-28.93,0
405,11.4,3.13,-8.47,0
406,11.41,-3.79,-9.64,0
407,11.43,-11.56,-13.8,0
408,11.44,-10.57,-5.37,0
409,11.45,0.44,-4.39,0
410,11.47,14.37,-18.55,0
411,11.48,17.4,-29.0,0
412,11.49,8.03,-22.21,0
413,11.51,-1.29,-3.98,0
414,11.52,-5.07,2.67,0
415,11.53,-4.19,-11.74,0
416,11.55,0.07,-22.58,0
417,11.56,2.73,-13.39,0
418,11.57,2.56,-2.76,0
419,11.59,5.04,-0.41,0
420,11.6,7.19,4.16,0
421,11.61,-1.67,6.73,0
422,11.63,-15.61,1.79,0
423,11.64,-13.43,-1.13,0
424,11.65,3.95,-0.02,0
425,11.67,10.17,2.45,0
426,11.68,-0.42,8.57,0
427,11.69,-7.34,12.78,0
428,11.71,-4.84,10.77,0
429,11.72,-2.66,8.11,0
430,11.73,-4.48,6.06,0
431,11.75,-8.74,5.41,0
432,11.76,-7.66,10.37,0
433,11.77,3.08,17.45,0
434,11.79,11.21,17.53,0
435,11.8,6.32,10.64,0
436,11.81,-2.53,8.19,0
437,11.83,-4.13,13.97,0
438,11.84,-1.08,16.69,0
439,11.85,0.75,16.16,0
440,11.87,0.52,21.65,0
441,11.88,-7.17,23.07,0
442,11.89,-16.23,12.65,0
443,11.91,-5.8,10.38,0
444,11.92,12.04,26.36,0
445,11.93,9.49,39.34,0
446,11.94,-2.49,32.19,0
447,11.96,-6.29,12.28,0
448,11.97,-7.33,-1.69,0
449,11.98,-10.55,2.59,0
450,12.0,-13.21,13.57,0
451,12.01,-13.8,12.02,0
452,12.02,-13.48,6.68,0
453,12.04,-11.54,11.8,0
454,12.05,-6.09,15.92,0
455,12.06,0.81,15.45,0
456,12.08,5.74,24.52,0
457,12.09,7.48,34.47,0
458,12.11,4.9,28.15,1
459,12.12,-2.2,16.7,1
460,12.13,-7.55,15.6,1
461,12.15,-3.62,23.3,1
462,12.16,6.62,28.96,1
463,12.17,12.33,27.4,1
464,12.19,3.86,44.47,1
465,12.2,-17.22,115.65,1
466,12.21,-36.76,224.99,1
467,12.23,-48.85,315.55,1
468,12.24,-62.98,350.1,1
469,12.25,-81.01,323.64,1
470,12.27,-85.28,249.76,1
471,12.28,-67.05,161.54,1
472,12.29,-38.45,90.09,1
473,12.31,-8.41,36.53,1
474,12.32,15.72,-17.98,1
475,12.33,23.65,-89.35,1
476,12.35,23.23,-174.1,1
477,12.36,30.53,-237.35,1
478,12.37,43.37,-246.18,1
479,12.39,48.05,-221.0,1
480,12.4,42.51,-201.36,1
481,12.41,37.68,-188.57,1
482,12.43,41.0,-175.71,1
483,12.44,44.68,-167.72,1
484,12.45,38.38,-155.72,1
485,12.47,30.46,-129.38,1
486,12.48,35.92,-99.58,1
487,12.49,55.06,-81.21,1
488,12.51,69.51,-80.21,1
489,12.52,57.96,-97.49,1
490,12.53,26.41,-114.58,1
491,12.55,2.16,-105.16,1
492,12.56,-1.7,-78.79,1
493,12.57,5.01,-62.59,1
494,12.59,8.06,-52.87,1
495,12.6,3.31,-35.88,1
496,12.61,-3.63,-18.29,1
497,12.63,-7.92,-9.99,1
498,12.64,-9.91,-14.52,1
499,12.65,-9.14,-25.2,1
500,12.67,-7.49,-20.23,1
501,12.68,-8.26,-3.09,1
502,12.69,-10.15,-2.0,1
503,12.71,-13.55,-7.76,1
504,12.72,-15.42,1.74,1
505,12.73,-8.65,10.16,1
506,12.75,0.63,5.56,1
507,12.76,1.58,1.74,1
508,12.77,-4.37,4.51,1
509,12.79,-11.13,15.71,1
510,12.8,-16.83,32.98,1
511,12.81,-17.44,37.67,1
512,12.83,-8.03,29.77,1
513,12.84,1.97,31.21,1
514,12.85,-1.24,39.09,1
515,12.87,-13.79,38.1,1
516,12.88,-19.46,36.66,1
517,12.89,-14.17,40.36,1
518,12.91,-10.11,41.38,0
519,12.92,-12.69,40.82,0
520,12.93,-11.77,40.05,0
521,12.95,-6.6,40.71,0
522,12.96,-8.92,45.4,0
523,12.97,-12.19,41.3,0
524,12.99,-3.96,29.26,0
525,13.0,-0.79,27.25,0
526,13.01,-15.96,33.11,0
527,13.03,-23.58,41.5,0
528,13.04,-0.7,51.2,0
529,13.05,25.66,49.19,0
530,13.07,17.79,40.18,0
531,13.08,-9.18,39.45,0
532,13.09,-17.61,41.67,0
533,13.11,-9.73,40.13,0
534,13.12,-5.64,36.93,0
535,13.13,-5.31,31.77,0
536,13.15,-4.86,28.28,0
537,13.16,-4.39,31.35,0
538,13.17,-2.02,32.76,0
539,13.19,-1.56,33.61,0
540,13.2,-1.73,43.62,0
541,13.21,3.35,48.53,0
542,13.23,0.62,35.08,0
543,13.24,-13.76,21.01,0
544,13.25,-15.44,18.08,0
545,13.27,-2.15,16.06,0
546,13.28,4.81,13.63,0
547,13.29,5.76,16.76,0
548,13.31,4.61,23.29,0
549,13.32,-5.17,28.17,0
550,13.33,-11.14,24.58,0
551,13.35,-0.21,15.05,0
552,13.36,10.47,13.07,0
553,13.37,5.46,13.41,0
554,13.39,-1.69,4.8,0
555,13.4,3.57,-1.73,0
556,13.41,8.29,4.81,0
557,13.43,-3.33,17.65,0
558,13.44,-13.47,21.31,0
559,13.45,-0.97,11.75,0
560,13.47,17.53,5.1,0
561,13.48,18.53,11.83,0
562,13.49,7.62,18.86,0
563,13.51,2.69,13.65,0
564,13.52,4.47,1.63,0
565,13.53,3.77,-9.59,0
566,13.55,5.28,-16.47,0
567,13.56,10.86,-11.49,0
568,13.57,4.32,-3.55,0
569,13.59,-12.38,-7.1,0
570,13.6,-14.14,-8.58,0
571,13.61,0.02,-2.01,0
572,13.63,4.06,-6.42,0
573,13.64,-10.62,-15.49,0
574,13.65,-20.74,-12.44,0
575,13.67,-9.7,-9.91,0
576,13.68,5.67,-16.43,0
577,13.69,9.91,-19.1,0
578,13.71,12.75,-14.5,0
579,13.72,13.13,-13.95,0
580,13.73,0.89,-16.65,0
581,13.75,-8.29,-10.98,0
582,13.76,2.57,-4.25,0
583,13.77,17.57,-11.84,0
584,13.79,13.73,-21.81,0
585,13.8,-3.01,-15.8,0
586,13.81,-8.12,-5.05,0
587,13.83,-0.23,-4.83,0
588,13.84,2.19,-11.18,0
589,13.85,0.22,-19.41,0
590,13.86,5.09,-26.0,0
591,13.88,7.56,-25.73,0
592,13.89,1.87,-25.29,0
593,13.9,2.35,-28.6,0
594,13.92,9.51,-23.14,0
595,13.93,7.77,-10.46,0
596,13.94,0.38,-8.02,0
597,13.96,-0.38,-14.83,0
598,13.97,2.02,-19.47,0
599,13.98,0.9,-18.5,0
600,14.0,-2.94,-11.34,0
601,14.01,-8.19,-7.28,0
602,14.02,-12.98,-14.96,0
603,14.04,-17.69,-21.0,0
604,14.05,-18.48,-15.64,0
605,14.07,-3.52,-9.97,0
606,14.08,15.04,-13.52,0
607,14.09,14.26,-19.44,0
608,14.11,8.89,-16.71,1
609,14.12,15.53,-11.0,1
610,14.13,14.23,-11.45,1
611,14.15,-0.49,-7.92,1
612,14.16,-4.57,-0.8,1
613,14.17,5.17,-7.62,1
614,14.19,8.25,-19.03,1
615,14.2,3.29,-15.11,1
616,14.21,4.95,-5.54,1
617,14.23,10.04,-6.6,1
618,14.24,9.65,-14.74,1
619,14.25,9.88,-19.23,1
620,14.27,14.49,-15.86,1
621,14.28,14.69,-7.25,1
622,14.29,5.63,-8.18,1
623,14.31,-3.85,-39.06,1
624,14.32,-7.8,-98.37,1
625,14.33,-12.13,-149.24,1
626,14.35,-28.83,-88.89,1
627,14.36,-66.31,184.67,1
628,14.37,-102.97,469.2,1
629,14.39,-87.45,419.51,1
630,14.4,-18.56,197.98,1
631,14.41,19.47,204.74,1
632,14.43,-3.02,349.31,1
633,14.44,-3.94,349.15,1
634,14.45,37.93,245.64,1
635,14.47,44.26,193.5,1
636,14.48,2.89,184.52,1
637,14.49,-7.35,153.22,1
638,14.51,39.05,107.14,1
639,14.52,68.14,75.97,1
640,14.53,41.98,53.78,1
641,14.55,16.23,20.46,1
642,14.56,-4.69,-35.15,1
643,14.57,-63.66,-86.84,1
644,14.59,-101.39,-111.67,1
645,14.6,-51.25,-180.76,1
646,14.61,12.72,-316.77,1
647,14.63,3.7,-369.17,1
648,14.64,-33.48,-271.57,1
649,14.65,-12.93,-184.99,1
650,14.67,74.69,-273.43,1
651,14.68,143.63,-444.4,1
652,14.69,97.13,-425.29,1
653,14.71,0.71,-253.21,1
654,14.72,-4.6,-254.8,1
655,14.73,35.51,-365.94,1
656,14.75,8.01,-277.65,1
657,14.76,-16.78,-124.24,1
658,14.77,34.22,-150.6,1
659,14.79,43.9,-208.11,1
660,14.8,-38.91,-170.05,1
661,14.81,-59.96,-154.05,1
662,14.83,45.76,-190.87,1
663,14.84,107.14,-196.35,1
664,14.85,25.78,-127.06,1
665,14.87,-41.32,-57.5,1
666,14.88,2.18,-96.34,1
667,14.89,48.28,-149.57,1
668,14.91,35.4,-90.16,0
669,14.92,8.79,-15.81,0
670,14.93,-17.6,20.87,0
671,14.95,-52.89,93.2,0
672,14.96,-56.28,121.87,0
673,14.97,-6.22,41.14,0
674,14.99,39.2,5.22,0
675,15.0,2.46,99.08,0
676,15.01,-106.31,204.95,0
677,15.03,-131.53,174.15,0
678,15.04,-16.31,-7.85,0
679,15.05,38.41,-88.17,0
680,15.07,-40.12,102.82,0
681,15.08,-51.73,237.09,0
682,15.09,58.17,57.02,0
683,15.11,117.64,-133.7,0
684,15.12,69.3,-64.33,0
685,15.13,10.11,78.92,0
686,15.15,-15.05,68.43,0
687,15.16,-19.59,13.27,0
688,15.17,-0.44,96.83,0
689,15.19,25.41,195.98,0
690,15.2,29.04,115.65,0
691,15.21,8.23,-9.33,0
692,15.23,-44.64,45.21,0
693,15.24,-104.28,189.42,0
694,15.25,-90.16,206.54,0
695,15.27,-13.23,80.84,0
696,15.28,20.12,-34.28,0
697,15.29,-2.68,-11.09,0
698,15.31,-14.99,102.1,0
699,15.32,-0.37,132.14,0
700,15.33,13.14,46.94,0
701,15.35,13.06,6.52,0
702,15.36,33.18,74.57,0
703,15.37,69.82,133.19,0
704,15.39,45.45,108.65,0
705,15.4,-25.12,83.39,0
706,15.41,-31.23,131.74,0
707,15.43,13.15,135.27,0
708,15.44,12.43,7.43,0
709,15.45,-26.57,-53.69,0
710,15.47,-51.3,60.41,0
711,15.48,-38.78,122.0,0
712,15.49,0.49,43.32,0
713,15.51,14.84,24.96,0
714,15.52,-8.22,93.77,0
715,15.53,-20.3,89.43,0
716,15.55,-7.67,16.98,0
717,15.56,-4.25,-19.22,0
718,15.57,-8.87,-6.38,0
719,15.59,5.85,18.68,0
720,15.6,13.05,33.26,0
721,15.61,-16.4,45.45,0
722,15.63,-47.32,84.0,0
723,15.64,-41.65,135.41,0
724,15.65,1.8,128.41,0
725,15.67,43.09,72.99,0
726,15.68,22.92,88.91,0
727,15.69,-32.95,161.67,0
728,15.71,-43.77,133.11,0
729,15.72,-21.12,22.04,0
730,15.73,-9.97,-15.7,0
731,15.75,-6.87,38.34,0
732,15.76,-11.94,97.13,0
733,15.77,-12.49,70.56,0
734,15.78,7.59,-18.43,0
735,15.8,22.35,-41.97,0
736,15.81,15.06,-23.22,0
737,15.82,-3.69,-51.42,0
738,15.84,-8.42,-78.25,0
739,15.85,16.61,-52.84,0
740,15.86,37.39,0.42,0
741,15.88,20.73,23.82,0
742,15.89,-16.14,-8.48,0
743,15.9,-40.05,3.26,0
744,15.92,-27.65,100.01,0
745,15.93,28.04,109.65,0
746,15.94,70.69,-2.85,0
747,15.96,23.14,-37.77,0
748,15.97,-50.6,29.57,0
749,15.98,-24.86,59.72,0
750,16.0,38.16,33.01,0
751,16.01,12.91,-2.94,0
752,16.03,-42.25,-46.19,0
753,16.04,-42.65,-65.32,0
754,16.05,-21.52,-14.21,0
755,16.07,-1.84,49.51,0
756,16.08,14.8,50.1,0
757,16.09,16.27,-23.36,0
758,16.11,43.64,-168.05,1
759,16.12,95.54,-288.7,1
760,16.13,63.36,-236.96,1
761,16.15,-41.25,-87.93,1
762,16.16,-67.4,-48.78,1
763,16.17,-14.13,-67.4,1
764,16.19,2.85,18.01,1
765,16.2,-12.98,91.77,1
766,16.21,3.29,17.99,1
767,16.23,32.91,-45.79,1
768,16.24,25.93,45.29,1
769,16.25,-1.17,109.3,1
770,16.27,-8.99,-54.18,1
771,16.28,-8.77,-188.93,1
772,16.29,-12.8,-30.37,1
773,16.31,-9.34,114.94,1
774,16.32,-28.84,21.84,1
775,16.33,-68.13,-41.5,1
776,16.35,-30.97,34.01,1
777,16.36,84.57,47.4,1
778,16.37,136.92,-43.08,1
779,16.39,76.87,-70.2,1
780,16.4,8.21,3.25,1
781,16.41,-9.93,49.13,1
782,16.42,-17.74,39.3,1
783,16.44,-16.02,-11.87,1
784,16.45,26.66,-121.34,1
785,16.46,56.12,-150.97,1
786,16.48,15.48,-25.92,1
787,16.49,-28.16,23.77,1
788,16.5,-8.6,-129.91,1
789,16.52,15.13,-277.75,1
790,16.53,-5.68,-257.79,1
791,16.54,-23.31,-174.8,1
792,16.56,-15.23,-151.52,1
793,16.57,-9.97,-168.88,1
794,16.58,0.93,-200.57,1
795,16.6,28.81,-243.91,1
796,16.61,38.34,-243.67,1
797,16.62,17.79,-169.99,1
798,16.64,-1.12,-79.96,1
799,16.65,-6.27,-26.7,1
800,16.67,-3.12,-2.06,1
801,16.68,6.28,24.1,1
802,16.69,11.39,57.67,1
803,16.71,2.88,76.12,1
804,16.72,-14.32,77.61,1
805,16.73,-26.08,92.39,1
806,16.75,-21.51,120.78,1
807,16.76,-8.41,133.8,1
808,16.77,-2.07,126.05,1
809,16.79,-5.33,111.88,1
810,16.8,-13.73,101.57,1
811,16.81,-17.81,99.39,1
812,16.83,-13.84,102.8,1
813,16.84,-9.46,100.41,1
814,16.85,-2.64,81.08,1
815,16.87,0.45,58.51,1
816,16.88,-18.78,59.85,1
817,16.89,-33.98,75.72,1
818,16.91,-10.43,72.91,0
819,16.92,15.22,52.96,0
820,16.93,6.0,43.11,0
821,16.95,-5.79,49.84,0
822,16.96,3.69,53.18,0
823,16.97,8.29,41.34,0
824,16.99,-6.31,32.85,0
825,17.0,-18.94,40.62,0
826,17.01,-14.03,48.23,0
827,17.03,-0.4,45.07,0
828,17.04,8.41,38.88,0
829,17.05,7.36,39.25,0
830,17.06,3.59,39.27,0
831,17.08,3.68,17.92,0
832,17.09,0.26,-2.08,0
833,17.1,-4.25,18.1,0
834,17.12,3.77,41.47,0
835,17.13,12.28,29.81,0
836,17.14,5.26,20.9,0
837,17.16,-5.18,33.4,0
838,17.17,-7.38,35.62,0
839,17.18,-2.82,23.36,0
840,17.2,5.39,19.39,0
841,17.21,4.16,24.07,0
842,17.22,-13.58,14.88,0
843,17.24,-27.07,-12.26,0
844,17.25,-22.84,-19.95,0
845,17.26,-12.26,1.55,0
846,17.28,-3.62,9.0,0
847,17.29,-2.79,-1.05,0
848,17.3,-13.33,-0.19,0
849,17.32,-18.05,1.49,0
850,17.33,-1.22,-9.95,0
851,17.35,17.62,-21.62,0
852,17.36,12.42,-20.33,0
853,17.37,-3.36,-7.6,0
854,17.39,-6.4,-2.76,0
855,17.4,-3.27,-16.74,0
856,17.41,-4.49,-27.73,0
857,17.43,-6.91,-18.59,0
858,17.44,-9.18,-0.98,0
859,17.45,-9.99,1.34,0
860,17.47,-6.38,-23.97,0
861,17.48,-0.34,-48.82,0
862,17.49,4.1,-41.67,0
863,17.51,5.63,-21.4,0
864,17.52,5.72,-18.31,0
865,17.53,7.95,-30.81,0
866,17.55,9.11,-44.74,0
867,17.56,3.77,-48.89,0
868,17.57,2.19,-34.12,0
869,17.59,12.15,-8.19,0
870,17.6,20.81,-0.18,0
871,17.61,18.73,-18.76,0
872,17.63,6.5,-35.16,0
873,17.64,-9.52,-34.3,0
874,17.65,-13.6,-30.71,0
875,17.67,-2.22,-27.29,0
876,17.68,10.26,-15.67,0
877,17.69,11.67,-7.54,0
878,17.7,1.15,-18.46,0
879,17.72,-4.92,-31.01,0
880,17.73,2.01,-25.37,0
881,17.75,0.91,-19.78,0
882,17.76,-14.12,-26.04,0
883,17.77,-15.48,-22.72,0
884,17.78,1.79,-9.24,0
885,17.8,7.09,-7.35,0
886,17.81,-7.63,-10.85,0
887,17.82,-11.82,-7.62,0
888,17.84,8.99,-9.63,0
889,17.85,24.6,-16.05,0
890,17.86,10.29,-12.24,0
891,17.88,-10.41,-5.27,0
892,17.89,-3.83,-6.81,0
893,17.9,19.11,-11.1,0
894,17.92,26.79,-10.65,0
895,17.93,20.24,-7.3,0
896,17.94,10.11,-10.53,0
897,17.96,-5.26,-20.9,0
898,17.97,-10.46,-25.5,0
899,17.99,3.71,-19.85,0
900,18.0,13.06,-4.58,0
901,18.01,5.79,16.03,0
902,18.03,-4.52,17.96,0
903,18.04,-9.91,-3.37,0
904,18.05,-7.18,-16.05,0
905,18.07,1.79,-10.79,0
906,18.08,7.54,-7.31,0
907,18.09,11.67,-6.62,0
908,18.11,15.08,-0.3,1
909,18.12,7.5,6.44,1
910,18.13,-3.87,9.28,1
911,18.15,-1.39,7.73,1
912,18.16,9.71,-0.6,1
913,18.17,12.96,-8.07,1
914,18.19,1.17,-4.78,1
915,18.2,-15.5,2.56,1
916,18.21,-14.33,6.66,1
917,18.23,7.65,11.46,1
918,18.24,26.09,14.91,1
919,18.25,30.33,1.74,1
920,18.27,25.89,-38.45,1
921,18.28,9.69,-94.34,1
922,18.29,-10.68,-139.62,1
923,18.31,-12.72,-156.78,1
924,18.32,4.01,-156.57,1
925,18.33,19.76,-162.11,1
926,18.34,23.14,-167.77,1
927,18.36,14.94,-150.21,1
928,18.37,4.9,-115.63,1
929,18.38,1.22,-88.24,1
930,18.4,0.35,-63.87,1
931,18.41,-0.13,-17.77,1
932,18.42,-0.31,37.44,1
933,18.44,-5.92,60.13,1
934,18.45,-13.41,61.25,1
935,18.46,-13.34,86.07,1
936,18.48,-9.34,125.42,1
937,18.49,-8.63,143.48,1
938,18.5,-12.3,149.16,1
939,18.52,-16.22,162.52,1
940,18.53,-17.86,172.6,1
941,18.54,-23.48,166.05,1
942,18.56,-31.71,151.33,1
943,18.57,-32.31,145.09,1
944,18.58,-25.27,145.43,1
945,18.6,-16.47,141.17,1
946,18.61,-15.07,140.68,1
947,18.63,-24.18,148.04,1
948,18.64,-25.34,144.42,1
949,18.65,-9.96,128.64,1
950,18.67,2.75,115.62,1
951,18.68,1.63,99.83,1
952,18.69,-6.03,80.74,1
953,18.71,-9.9,74.33,1
954,18.72,-4.08,74.42,1
955,18.73,3.32,64.62,1
956,18.75,-0.39,49.23,1
957,18.76,-10.23,37.5,1
958,18.77,-10.29,32.86,1
959,18.79,-1.2,34.13,1
960,18.8,-1.19,30.95,1
961,18.81,-11.38,18.76,1
962,18.83,-9.7,5.74,1
963,18.84,5.44,-0.99,1
964,18.85,12.24,-3.08,1
965,18.87,8.02,-7.45,1
966,18.88,2.58,-13.31,1
967,18.89,-5.01,-13.66,1
968,18.91,-9.74,-14.99,0
969,18.92,-4.56,-25.55,0
970,18.93,-1.3,-33.99,0
971,18.95,-7.74,-32.03,0
972,18.96,-8.28,-35.14,0
973,18.97,3.05,-47.47,0
974,18.98,9.91,-47.81,0
975,19.0,8.22,-35.83,0
976,19.01,13.14,-35.8,0
977,19.02,26.91,-50.8,0
978,19.04,32.84,-63.06,0
979,19.05,21.63,-62.64,0
980,19.06,10.41,-54.26,0
981,19.08,15.23,-47.81,0
982,19.09,21.06,-42.91,0
983,19.1,13.37,-37.39,0
984,19.12,3.7,-43.34,0
985,19.13,-2.05,-58.41,0
986,19.14,-6.87,-58.51,0
987,19.16,-3.47,-44.95,0
988,19.17,5.64,-42.89,0
989,19.18,4.53,-52.38,0
990,19.2,-5.56,-56.5,0
991,19.21,-5.51,-53.98,0
992,19.22,5.98,-49.41,0
993,19.24,9.73,-43.94,0
994,19.25,0.29,-40.57,0
995,19.265,-8.52,-42.36,0
996,19.28,-5.55,-47.73,0
997,19.29,6.91,-48.25,0
998,19.31,17.54,-41.39,0
999,19.32,16.84,-34.55,0
1000,19.33,7.38,-31.2,0
1001,19.35,2.79,-33.9,0
1002,19.36,6.78,-41.56,0
1003,19.37,5.38,-39.21,0
1004,19.39,-3.67,-25.0,0
1005,19.4,-6.03,-22.66,0
1006,19.41,-0.5,-34.1,0
1007,19.43,0.3,-34.12,0
1008,19.44,-6.11,-24.78,0
1009,19.45,-10.59,-24.35,0
1010,19.47,-6.89,-26.54,0
1011,19.48,4.0,-24.08,0
1012,19.49,14.85,-23.95,0
1013,19.51,12.5,-24.64,0
1014,19.52,-2.45,-18.97,0
1015,19.53,-7.19,-9.63,0
1016,19.55,2.01,-6.62,0
1017,19.56,5.54,-16.88,0
1018,19.57,5.4,-25.09,0
1019,19.59,10.19,-7.34,0
1020,19.6,6.78,17.46,0
1021,19.61,-6.28,13.71,0
1022,19.62,-7.65,-6.14,0
1023,19.64,3.0,-10.3,0
1024,19.65,3.95,-1.49,0
1025,19.67,-3.11,1.97,0
1026,19.68,-2.42,-1.06,0
1027,19.69,1.57,-5.43,0
1028,19.7,0.72,-8.64,0
1029,19.72,-0.92,-4.83,0
1030,19.73,-0.86,3.65,0
1031,19.75,-2.29,6.76,0
1032,19.76,-4.02,6.17,0
1033,19.77,-0.22,8.25,0
1034,19.78,4.4,9.46,0
1035,19.8,-1.13,6.31,0
1036,19.81,-8.45,6.44,0
1037,19.82,-1.23,9.47,0
1038,19.84,8.75,4.52,0
1039,19.85,2.03,3.58,0
1040,19.86,-11.71,19.35,0
1041,19.88,-16.44,28.43,0
1042,19.89,-10.38,17.48,0
1043,19.9,0.9,10.03,0
1044,19.92,1.7,16.39,0
1045,19.93,-10.81,19.83,0
1046,19.95,-11.82,16.5,0
1047,19.96,1.59,17.68,0
1048,19.97,0.47,21.71,0
1049,19.99,-11.97,20.1,0
1050,20.0,-7.97,16.66,0
1051,20.01,2.27,16.95,0
1052,20.03,-5.19,15.05,0
1053,20.04,-19.6,11.77,0
1054,20.05,-17.6,20.69,0
1055,20.07,0.04,34.76,0
1056,20.08,12.84,30.18,0
1057,20.09,14.99,11.66,0
1058,20.11,15.16,3.86,1
1059,20.12,10.25,6.42,1
1060,20.13,0.62,7.29,1
1061,20.15,1.75,9.76,1
1062,20.16,9.22,12.79,1
1063,20.17,2.29,11.02,1
1064,20.19,-10.12,15.71,1
1065,20.2,-5.6,40.91,1
1066,20.21,2.64,106.94,1
1067,20.23,1.34,223.38,1
1068,20.24,8.63,328.15,1
1069,20.25,14.57,356.96,1
1070,20.26,-10.86,348.83,1
1071,20.28,-46.62,341.4,1
1072,20.29,-56.26,287.96,1
1073,20.3,-45.66,173.55,1
1074,20.32,-32.66,55.23,1
1075,20.33,-17.74,-37.8,1
1076,20.34,-2.69,-125.35,1
1077,20.36,2.56,-213.53,1
1078,20.37,2.55,-271.83,1
1079,20.38,10.79,-273.73,1
1080,20.4,22.19,-245.88,1
1081,20.41,21.21,-223.79,1
1082,20.42,14.78,-203.94,1
1083,20.44,17.65,-187.86,1
1084,20.45,18.62,-178.95,1
1085,20.46,10.9,-162.84,1
1086,20.48,13.58,-149.73,1
1087,20.49,24.28,-152.44,1
1088,20.5,19.09,-143.78,1
1089,20.52,7.98,-113.31,1
1090,20.53,17.15,-95.27,1
1091,20.54,35.81,-96.24,1
1092,20.56,31.21,-81.79,1
1093,20.57,0.54,-45.68,1
1094,20.59,-22.12,-30.25,1
1095,20.6,-12.74,-53.05,1
1096,20.61,9.5,-71.69,1
1097,20.63,15.82,-56.41,1
1098,20.64,11.68,-29.12,1
1099,20.65,10.07,-14.34,1
1100,20.67,2.94,-2.89,1
1101,20.68,-9.3,11.11,1
1102,20.69,-8.64,3.7,1
1103,20.71,1.55,-21.27,1
1104,20.72,0.73,-21.75,1
1105,20.73,-6.72,3.32,1
1106,20.75,-3.93,14.24,1
1107,20.76,8.75,9.93,1
1108,20.77,18.24,20.01,1
1109,20.79,14.19,42.12,1
1110,20.8,3.71,54.89,1
1111,20.81,1.95,46.33,1
1112,20.83,4.22,25.92,1
1113,20.84,-0.88,27.02,1
1114,20.85,-5.6,52.33,1
1115,20.87,-4.45,70.74,1
1116,20.88,-3.64,69.99,1
1117,20.89,-0.31,59.95,1
1118,20.9,5.94,58.68,1
1119,20.92,2.12,63.22,0
1120,20.93,-15.4,58.05,0
1121,20.94,-25.45,59.36,0
1122,20.96,-14.99,69.29,0
1123,20.97,-3.7,58.69,0
1124,20.98,-2.32,37.69,0
1125,21.0,2.34,31.27,0
1126,21.01,9.14,26.53,0
1127,21.02,5.4,24.13,0
1128,21.04,-7.18,39.48,0
1129,21.05,-16.42,61.11,0
1130,21.06,-14.12,73.84,0
1131,21.08,-3.85,67.67,0
1132,21.09,2.97,46.05,0
1133,21.1,-0.21,36.76,0
1134,21.12,-11.92,37.6,0
1135,21.13,-21.0,26.4,0
1136,21.14,-11.74,19.32,0
1137,21.16,7.05,27.11,0
1138,21.17,9.24,25.32,0
1139,21.18,1.58,14.24,0
1140,21.2,4.45,23.48,0
1141,21.21,7.36,46.45,0
1142,21.23,-0.09,44.57,0
1143,21.24,-7.43,23.33,0
1144,21.25,-11.54,20.07,0
1145,21.27,-11.18,28.73,0
1146,21.28,-4.48,21.13,0
1147,21.29,-5.34,11.04,0
1148,21.31,-13.24,22.61,0
1149,21.32,-8.58,31.76,0
1150,21.33,-0.18,16.63,0
1151,21.35,-7.76,6.35,0
1152,21.36,-21.06,16.9,0
1153,21.37,-24.69,24.48,0
1154,21.39,-18.55,18.65,0
1155,21.4,-4.16,12.53,0
1156,21.41,15.02,11.36,0
1157,21.43,23.34,8.4,0
1158,21.44,12.58,-0.87,0
1159,21.45,1.25,-7.98,0
1160,21.47,1.08,2.27,0
1161,21.48,-3.22,17.65,0
1162,21.49,-13.56,11.58,0
1163,21.51,-9.66,-0.2,0
1164,21.52,9.27,8.01,0
1165,21.53,19.76,11.45,0
1166,21.54,10.76,-8.08,0
1167,21.56,-4.32,-20.87,0
1168,21.57,-13.06,-15.98,0
1169,21.58,-13.22,-18.65,0
1170,21.6,-3.64,-29.48,0
1171,21.61,6.53,-25.12,0
1172,21.62,5.75,-10.51,0
1173,21.64,3.86,-10.51,0
1174,21.65,13.36,-19.53,0
1175,21.67,23.68,-18.92,0
1176,21.68,21.95,-22.15,0
1177,21.69,8.42,-40.17,0
1178,21.7,-9.46,-46.29,0
1179,21.72,-18.08,-27.26,0
1180,21.73,-16.44,-10.27,0
1181,21.75,-11.95,-14.01,0
1182,21.76,5.49,-25.13,0
1183,21.77,30.23,-27.37,0
1184,21.78,31.75,-21.12,0
1185,21.8,7.48,-18.55,0
1186,21.81,-17.44,-26.88,0
1187,21.82,-28.15,-32.03,0
1188,21.84,-24.17,-22.65,0
1189,21.85,-8.46,-16.95,0
1190,21.865,14.0,-24.72,0
1191,21.88,24.88,-27.14,0
1192,21.89,9.72,-17.06,0
1193,21.91,-12.74,-7.8,0
1194,21.92,-19.12,-8.68,0
1195,21.93,-15.36,-14.67,0
1196,21.95,-15.09,-12.55,0
1197,21.96,-13.84,-6.06,0
1198,21.97,0.74,-15.05,0
1199,21.99,21.97,-35.07,0
1200,22.0,27.75,-37.92,0
1201,22.01,14.63,-17.22,0
1202,22.03,-1.5,2.61,0
1203,22.04,-13.12,2.0,0
1204,22.05,-22.65,-10.24,0
1205,22.07,-21.94,-14.62,0
1206,22.08,-0.09,-8.28,0
1207,22.09,22.68,0.07,0
1208,22.11,16.69,5.0,1
1209,22.12,-3.87,0.72,1
1210,22.13,-5.48,-13.88,1
1211,22.15,8.94,-26.19,1
1212,22.16,16.31,-29.76,1
1213,22.17,12.86,-31.21,1
1214,22.18,6.37,-35.05,1
1215,22.2,-5.0,-36.65,1
1216,22.21,-15.88,-21.96,1
1217,22.22,-6.06,18.36,1
1218,22.24,16.6,96.28,1
1219,22.25,21.78,198.99,1
1220,22.26,-14.77,266.77,1
1221,22.28,-83.04,240.31,1
1222,22.29,-94.02,144.74,1
1223,22.3,-23.36,126.39,1
1224,22.32,31.85,218.34,1
1225,22.33,46.82,270.13,1
1226,22.34,40.74,250.04,1
1227,22.36,5.22,213.69,1
1228,22.37,-18.69,136.87,1
1229,22.38,15.63,58.92,1
1230,22.4,71.84,5.56,1
1231,22.41,59.36,-125.08,1
1232,22.42,-17.18,-273.49,1
1233,22.44,-45.19,-295.59,1
1234,22.45,-6.14,-253.34,1
1235,22.46,9.44,-211.36,1
1236,22.48,-13.41,-154.81,1
1237,22.49,0.84,-106.74,1
1238,22.5,65.0,-72.11,1
1239,22.52,95.7,-58.51,1
1240,22.53,42.91,-108.65,1
1241,22.55,-32.76,-218.98,1
1242,22.56,-44.94,-267.77,1
1243,22.57,-15.44,-166.52,1
1244,22.59,-5.51,-94.97,1
1245,22.6,12.5,-173.26,1
1246,22.61,41.37,-151.31,1
1247,22.63,19.01,30.73,1
1248,22.64,-25.89,40.48,1
1249,22.65,-30.56,-133.39,1
1250,22.67,-24.9,-149.86,1
1251,22.68,-29.78,-28.18,1
1252,22.69,-25.55,-36.49,1
1253,22.71,-23.66,-112.83,1
1254,22.72,-2.72,-73.04,1
1255,22.73,66.93,20.87,1
1256,22.75,95.13,19.9,1
1257,22.76,12.99,-105.35,1
1258,22.77,-55.52,-210.68,1
1259,22.79,-18.41,-153.12,1
1260,22.8,16.89,-36.06,1
1261,22.81,4.26,6.28,1
1262,22.82,23.32,47.63,1
1263,22.84,44.51,81.15,1
1264,22.85,7.28,-11.02,1
1265,22.86,-33.29,-116.07,1
1266,22.88,-31.18,-72.57,1
1267,22.89,-9.9,23.41,1
1268,22.9,3.1,19.91,1
1269,22.92,3.56,-47.11,0
1270,22.93,2.13,-43.72,0
1271,22.94,-2.01,27.09,0
1272,22.96,-15.3,47.14,0
1273,22.97,-24.75,-6.56,0
1274,22.98,-29.05,-65.33,0
1275,23.0,-36.24,-47.3,0
1276,23.01,-29.86,50.41,0
1277,23.02,-12.31,104.63,0
1278,23.04,2.91,76.48,0
1279,23.05,19.1,58.62,0
1280,23.06,12.29,85.7,0
1281,23.08,-9.46,132.27,0
1282,23.09,11.28,146.49,0
1283,23.1,34.75,73.93,0
1284,23.12,-4.57,-8.1,0
1285,23.13,-21.79,13.81,0
1286,23.14,41.55,101.93,0
1287,23.16,71.12,163.92,0
1288,23.17,6.73,154.53,0
1289,23.19,-41.86,84.01,0
1290,23.2,-7.57,10.28,0
1291,23.21,36.08,-8.73,0
1292,23.23,35.59,44.44,0
1293,23.24,31.45,100.16,0
1294,23.25,44.95,82.4,0
1295,23.27,30.24,39.51,0
1296,23.28,-18.08,30.4,0
1297,23.29,-35.97,19.2,0
1298,23.31,-26.69,19.81,0
1299,23.32,-50.71,78.0,0
1300,23.33,-83.72,97.51,0
1301,23.35,-53.82,7.88,0
1302,23.36,28.69,-53.3,0
1303,23.37,63.56,9.12,0
1304,23.39,7.07,83.91,0
1305,23.4,-49.49,105.62,0
1306,23.41,-31.51,109.54,0
1307,23.43,11.98,88.17,0
1308,23.44,6.05,65.4,0
1309,23.45,-47.68,46.46,0
1310,23.46,-76.28,-14.57,0
1311,23.48,-39.79,-50.67,0
1312,23.49,5.39,-2.57,0
1313,23.5,5.36,45.86,0
1314,23.52,-9.05,9.23,0
1315,23.53,6.41,-41.23,0
1316,23.54,26.34,10.9,0
1317,23.56,13.59,84.91,0
1318,23.57,9.34,73.88,0
1319,23.58,46.72,24.55,0
1320,23.6,61.54,-5.36,0
1321,23.61,15.73,19.78,0
1322,23.62,-32.36,62.92,0
1323,23.64,-39.98,52.04,0
1324,23.65,-20.36,40.93,0
1325,23.67,10.61,71.84,0
1326,23.68,33.79,90.11,0
1327,23.69,24.23,73.17,0
1328,23.7,-7.83,30.83,0
1329,23.72,-3.73,10.96,0
1330,23.73,35.19,63.72,0
1331,23.75,14.25,95.99,0
1332,23.76,-56.38,27.23,0
1333,23.77,-64.68,-27.91,0
1334,23.78,-13.33,6.41,0
1335,23.8,22.87,57.92,0
1336,23.81,19.05,75.28,0
1337,23.83,-14.57,61.04,0
1338,23.84,-55.38,22.03,0
1339,23.85,-67.49,-35.54,0
1340,23.87,-27.06,-74.52,0
1341,23.88,5.53,-66.63,0
1342,23.89,-19.89,-44.2,0
1343,23.91,-20.28,-41.94,0
1344,23.92,43.5,-63.37,0
1345,23.93,70.59,-99.25,0
1346,23.95,28.39,-106.23,0
1347,23.96,2.43,-38.12,0
1348,23.97,13.33,16.87,0
1349,23.99,16.74,-45.1,0
1350,24.0,11.74,-105.57,0
1351,24.01,3.65,-63.31,0
1352,24.03,-2.13,-10.2,0
1353,24.04,11.92,22.36,0
1354,24.05,21.77,62.32,0
1355,24.07,-7.71,50.92,0
1356,24.08,-47.41,-19.01,0
1357,24.09,-38.15,-69.64,0
1358,24.1,4.77,-114.93,1
1359,24.12,22.61,-167.35,1
1360,24.13,27.5,-95.22,1
1361,24.14,34.06,74.24,1
1362,24.16,12.04,108.16,1
1363,24.17,-11.88,32.54,1
1364,24.18,-2.23,36.83,1
1365,24.2,-2.82,66.68,1
1366,24.21,-30.38,13.81,1
1367,24.22,-20.54,-56.31,1
1368,24.24,31.47,-92.64,1
1369,24.25,44.73,-149.8,1
1370,24.26,10.07,-229.31,1
1371,24.28,-10.13,-265.18,1
1372,24.29,-0.26,-258.11,1
1373,24.3,14.58,-256.27,1
1374,24.32,18.2,-249.79,1
1375,24.33,9.86,-191.42,1
1376,24.34,-0.86,-89.53,1
1377,24.36,-5.07,-7.24,1
1378,24.37,-3.7,30.67,1
1379,24.38,-7.96,59.71,1
1380,24.4,-20.33,98.84,1
1381,24.41,-22.31,124.87,1
1382,24.42,-6.85,129.24,1
1383,24.44,0.46,133.03,1
1384,24.45,-5.98,133.49,1
1385,24.465,-0.38,113.64,1
1386,24.48,12.15,97.56,1
1387,24.49,5.78,100.1,1
1388,24.51,-8.23,88.12,1
1389,24.52,-10.07,57.26,1
1390,24.53,-5.55,42.01,1
1391,24.55,-0.67,46.59,1
1392,24.56,4.16,51.28,1
1393,24.57,0.81,50.78,1
1394,24.59,-8.88,45.32,1
1395,24.6,-8.54,38.28,1
1396,24.61,-1.7,39.49,1
1397,24.63,-3.06,40.02,1
1398,24.64,-1.07,27.17,1
1399,24.65,12.53,16.99,1
1400,24.67,17.96,19.96,1
1401,24.68,8.14,16.97,1
1402,24.69,-3.21,0.6,1
1403,24.71,-5.96,-10.72,1
1404,24.72,0.3,-5.92,1
1405,24.73,6.27,6.13,1
1406,24.75,6.76,11.62,1
1407,24.76,6.48,9.3,1
1408,24.77,2.25,9.46,1
1409,24.78,-6.31,9.78,1
1410,24.8,-7.79,3.55,1
1411,24.81,-9.09,4.52,1
1412,24.82,-16.17,14.94,1
1413,24.84,-9.45,13.23,1
1414,24.85,6.71,-0.22,1
1415,24.86,5.05,-7.02,1
1416,24.88,-8.76,-6.42,1
1417,24.89,-10.32,-5.49,1
1418,24.9,-1.8,-2.48,1
1419,24.92,-0.18,2.9,0
1420,24.93,-3.41,0.84,0
1421,24.94,-0.6,-10.63,0
1422,24.96,4.21,-16.28,0
1423,24.97,3.5,-9.34,0
1424,24.98,1.96,-4.17,0
1425,25.0,4.9,-9.95,0
1426,25.01,7.12,-16.19,0
1427,25.02,4.5,-12.96,0
1428,25.04,1.21,-8.55,0
1429,25.05,0.96,-15.35,0
1430,25.06,2.71,-27.79,0
1431,25.08,1.21,-30.46,0
1432,25.09,-3.43,-23.22,0
1433,25.1,-0.04,-20.87,0
1434,25.12,10.96,-29.11,0
1435,25.13,13.16,-34.97,0
1436,25.15,9.21,-28.05,0
1437,25.16,9.31,-19.08,0
1438,25.17,2.04,-23.78,0
1439,25.19,-11.57,-32.15,0
1440,25.2,-4.9,-21.77,0
1441,25.21,14.82,-0.64,0
1442,25.23,14.57,1.79,0
1443,25.24,2.8,-15.9,0
1444,25.25,3.67,-27.61,0
1445,25.27,8.64,-28.96,0
1446,25.28,8.55,-32.64,0
1447,25.29,7.4,-31.09,0
1448,25.31,3.86,-18.52,0
1449,25.32,3.23,-11.63,0
1450,25.33,6.62,-19.69,0
1451,25.35,2.99,-29.1,0
1452,25.36,-3.51,-26.26,0
1453,25.37,-4.74,-18.12,0
1454,25.38,-3.8,-16.17,0
1455,25.4,1.53,-17.01,0
1456,25.41,8.32,-17.33,0
1457,25.42,4.57,-19.03,0
1458,25.44,-1.7,-14.95,0
1459,25.45,3.85,-5.51,0
1460,25.46,10.6,-2.73,0
1461,25.48,3.91,-3.51,0
1462,25.49,-9.21,-5.48,0
1463,25.5,-10.98,-16.13,0
1464,25.52,1.3,-19.51,0
1465,25.53,8.17,0.49,0
1466,25.54,2.19,15.47,0
1467,25.56,-1.49,1.18,0
1468,25.57,-3.21,-16.42,0
1469,25.58,-11.12,-12.34,0
1470,25.6,-6.52,0.35,0
1471,25.61,13.83,4.81,0
1472,25.62,10.47,-1.13,0
1473,25.64,-20.19,-8.25,0
1474,25.65,-29.93,-7.55,0
1475,25.67,-8.94,-7.72,0
1476,25.68,5.91,-9.7,0
1477,25.69,1.56,-1.15,0
1478,25.7,-1.45,7.07,0
1479,25.72,8.94,4.0,0
1480,25.73,17.1,4.46,0
1481,25.75,5.6,13.85,0
1482,25.76,-13.33,18.82,0
1483,25.77,-17.23,15.84,0
1484,25.79,-9.5,13.52,0
1485,25.8,-4.31,15.83,0
1486,25.81,-0.83,18.89,0
1487,25.83,5.26,18.49,0
1488,25.84,10.59,14.62,0
1489,25.85,6.64,11.19,0
1490,25.87,-5.22,10.32,0
1491,25.88,-7.84,13.03,0
1492,25.89,-2.3,20.25,0
1493,25.91,-6.74,28.0,0
1494,25.92,-14.19,27.75,0
1495,25.93,-10.66,11.96,0
1496,25.95,-1.63,-11.46,0
1497,25.96,9.24,-17.88,0
1498,25.97,15.99,-3.57,0
1499,25.99,7.07,6.19,0
1500,26.0,-6.69,4.18,0
1501,26.01,-8.98,4.07,0
1502,26.02,-6.25,6.26,0
1503,26.04,-9.78,7.46,0
1504,26.05,-18.37,11.02,0
1505,26.06,-17.29,11.96,0
1506,26.08,2.01,9.66,0
1507,26.09,15.77,14.06,0
1508,26.1,6.52,16.61,1
1509,26.12,-4.46,7.12,1
1510,26.13,-3.84,7.03,1
1511,26.14,-3.11,24.54,1
1512,26.16,0.85,30.51,1
1513,26.17,11.76,14.22,1
1514,26.18,12.74,-11.84,1
1515,26.2,5.49,-49.26,1
1516,26.21,9.85,-95.32,1
1517,26.22,29.57,-123.33,1
1518,26.24,55.15,-119.12,1
1519,26.25,65.89,-107.43,1
1520,26.26,48.25,-115.16,1
1521,26.28,28.06,-130.81,1
1522,26.29,22.17,-126.29,1
1523,26.3,11.91,-110.8,1
1524,26.32,0.98,-112.8,1
1525,26.33,2.88,-113.42,1
1526,26.34,2.54,-79.31,1
1527,26.36,-4.21,-27.53,1
1528,26.37,-6.87,11.85,1
1529,26.38,-6.19,38.51,1
1530,26.4,-5.51,65.58,1
1531,26.41,-14.75,101.61,1
1532,26.43,-34.25,133.05,1
1533,26.44,-42.53,141.46,1
1534,26.45,-42.16,141.43,1
1535,26.47,-50.86,146.43,1
1536,26.48,-52.2,148.27,1
1537,26.49,-37.75,152.16,1
1538,26.51,-32.94,158.02,1
1539,26.52,-36.3,154.88,1
1540,26.53,-26.22,149.58,1
1541,26.55,-13.62,143.63,1
1542,26.56,-13.41,135.98,1
1543,26.57,-11.81,138.04,1
1544,26.59,-3.21,135.09,1
1545,26.6,-7.93,111.25,1
1546,26.61,-24.3,98.21,1
1547,26.63,-18.88,106.25,1
1548,26.64,2.91,95.02,1
1549,26.65,-0.35,67.12,1
1550,26.67,-16.92,58.88,1
1551,26.68,-1.85,57.77,1
1552,26.69,22.26,40.54,1
1553,26.7,7.15,23.91,1
1554,26.72,-18.32,20.25,1
1555,26.73,-12.32,17.99,1
1556,26.75,-2.17,13.43,1
1557,26.76,-10.11,6.96,1
1558,26.77,-8.29,-3.27,1
1559,26.78,11.05,-5.82,1
1560,26.8,20.28,1.63,1
1561,26.81,10.66,-0.65,1
1562,26.82,0.57,-16.16,1
1563,26.84,6.16,-30.82,1
1564,26.85,16.04,-42.72,1
1565,26.86,7.08,-46.39,1
1566,26.88,-6.05,-37.84,1
1567,26.89,5.8,-34.09,1
1568,26.9,23.55,-40.27,1
1569,26.92,14.66,-47.49,0
1570,26.93,-4.39,-50.48,0
1571,26.94,-5.29,-45.55,0
1572,26.96,5.72,-42.49,0
1573,26.97,13.95,-48.58,0
1574,26.98,12.81,-58.4,0
1575,27.0,2.8,-68.2,0
1576,27.01,-2.27,-69.13,0
1577,27.02,7.12,-63.68,0
1578,27.04,18.34,-67.47,0
1579,27.05,14.56,-69.44,0
1580,27.06,3.87,-60.83,0
1581,27.08,4.37,-64.65,0
1582,27.09,13.66,-76.43,0
1583,27.11,19.77,-68.46,0
1584,27.12,15.63,-54.15,0
1585,27.13,2.31,-57.7,0
1586,27.15,-6.61,-65.72,0
1587,27.16,-2.5,-58.51,0
1588,27.17,5.28,-41.16,0
1589,27.19,10.37,-31.38,0
1590,27.2,15.53,-36.25,0
1591,27.21,17.07,-43.19,0
1592,27.23,9.1,-44.71,0
1593,27.24,-2.67,-48.95,0
1594,27.25,-4.77,-51.52,0
1595,27.27,5.86,-43.9,0
1596,27.28,17.97,-34.48,0
1597,27.29,18.67,-31.34,0
1598,27.3,5.23,-34.81,0
1599,27.32,-7.9,-40.91,0
1600,27.33,-5.37,-39.49,0
1601,27.34,8.16,-33.09,0
1602,27.36,15.76,-32.31,0
1603,27.37,10.85,-30.11,0
1604,27.38,4.5,-22.52,0
1605,27.4,3.35,-22.04,0
1606,27.41,1.19,-29.32,0
1607,27.42,-5.06,-33.87,0
1608,27.44,-10.11,-32.13,0
1609,27.45,-6.2,-23.9,0
1610,27.46,7.59,-15.59,0
1611,27.48,23.92,-11.06,0
1612,27.49,26.05,-0.78,0
1613,27.5,2.35,6.87,0
1614,27.52,-20.26,1.66,0
1615,27.53,-12.1,4.12,0
1616,27.54,-1.36,15.21,0
1617,27.56,-20.76,11.13,0
1618,27.57,-32.77,-0.33,0
1619,27.58,-6.18,-1.76,0
1620,27.6,14.52,-2.22,0
1621,27.61,3.24,-3.09,0
1622,27.62,-3.32,5.64,0
1623,27.64,10.92,12.61,0
1624,27.65,22.71,10.3,0
1625,27.67,12.4,8.24,0
1626,27.68,-14.61,5.89,0
1627,27.69,-22.54,8.13,0
1628,27.7,2.89,19.32,0
1629,27.72,20.8,20.44,0
1630,27.73,10.46,7.81,0
1631,27.75,0.52,5.94,0
1632,27.76,2.0,22.02,0
1633,27.77,2.69,32.48,0
1634,27.79,0.78,19.05,0
1635,27.8,-3.19,2.68,0
1636,27.81,-4.66,7.14,0
1637,27.83,6.55,14.99,0
1638,27.84,16.62,11.67,0
1639,27.85,1.02,12.59,0
1640,27.87,-24.58,21.49,0
1641,27.88,-24.42,21.25,0
1642,27.89,-11.97,12.96,0
1643,27.91,-16.53,12.79,0
1644,27.92,-16.49,18.12,0
1645,27.93,0.02,15.65,0
1646,27.94,1.95,5.35,0
1647,27.96,-8.23,0.48,0
1648,27.97,-7.09,10.84,0
1649,27.98,-5.82,26.18,0
1650,28.0,-9.39,28.94,0
1651,28.01,-3.14,23.73,0
1652,28.02,3.54,24.71,0
1653,28.04,-1.33,28.78,0
1654,28.05,-9.68,32.09,0
1655,28.06,-15.75,33.34,0
1656,28.08,-16.79,18.42,0
1657,28.09,-10.43,-0.36,0
1658,28.1,-0.5,11.87,1
1659,28.12,10.76,34.28,1
1660,28.13,20.15,29.44,1
1661,28.14,20.46,25.34,1
1662,28.16,8.45,58.81,1
1663,28.17,-5.95,132.2,1
1664,28.18,-11.59,240.69,1
1665,28.2,-15.57,351.62,1
1666,28.21,-28.81,407.48,1
1667,28.22,-48.71,378.46,1
1668,28.24,-59.92,270.83,1
1669,28.25,-48.94,131.18,1
1670,28.26,-26.95,33.79,1
1671,28.28,-15.59,-9.02,1
1672,28.29,-11.46,-55.13,1
1673,28.3,0.63,-119.88,1
1674,28.32,16.47,-167.81,1
1675,28.33,25.8,-193.39,1
1676,28.34,28.95,-211.75,1
1677,28.36,28.15,-216.14,1
1678,28.37,26.63,-198.9,1
1679,28.39,25.65,-177.8,1
1680,28.4,21.32,-171.08,1
1681,28.41,15.09,-168.36,1
1682,28.43,15.81,-153.52,1
1683,28.44,24.27,-133.77,1
1684,28.45,30.16,-118.33,1
1685,28.47,26.98,-97.29,1
1686,28.48,18.89,-67.19,1
1687,28.49,21.06,-50.98,1
1688,28.51,38.38,-64.6,1
1689,28.52,45.44,-84.02,1
1690,28.53,27.95,-82.08,1
1691,28.55,6.91,-73.05,1
1692,28.56,-1.42,-72.87,1
1693,28.57,0.24,-62.93,1
1694,28.58,6.74,-37.25,1
1695,28.6,7.47,-21.52,1
1696,28.61,-5.63,-24.63,1
1697,28.62,-17.39,-29.67,1
1698,28.64,-12.2,-25.5,1
1699,28.65,-1.78,-18.1,1
1700,28.67,-0.04,-18.28,1
1701,28.68,-1.3,-22.54,1
1702,28.69,1.4,-16.69,1
1703,28.7,4.16,-0.09,1
1704,28.72,2.15,9.04,1
1705,28.73,-6.75,4.87,1
1706,28.75,-18.23,5.63,1
1707,28.76,-18.62,16.98,1
1708,28.77,-4.31,22.36,1
1709,28.78,6.99,19.98,1
1710,28.8,-0.47,20.79,1
1711,28.81,-18.17,24.41,1
1712,28.82,-27.15,30.26,1
1713,28.84,-22.89,40.84,1
1714,28.85,-13.85,50.37,1
1715,28.86,-5.12,51.77,1
1716,28.88,1.03,47.22,1
1717,28.89,-2.04,47.73,1
1718,28.9,-12.66,52.49,1
1719,28.92,-15.25,47.88,0
1720,28.93,-8.17,40.55,0
1721,28.94,-7.61,44.84,0
1722,28.96,-9.83,48.08,0
1723,28.97,-1.41,39.57,0
1724,28.98,4.04,34.07,0
1725,29.0,-4.81,37.36,0
1726,29.01,-11.62,38.86,0
1727,29.03,-6.5,37.97,0
1728,29.04,-0.89,39.76,0
1729,29.05,-1.01,42.48,0
1730,29.07,-1.51,42.67,0
1731,29.08,-3.58,39.76,0
1732,29.09,-14.23,39.45,0
1733,29.11,-26.91,42.05,0
1734,29.12,-23.03,39.38,0
1735,29.13,-0.26,35.4,0
1736,29.15,19.03,36.4,0
1737,29.16,21.76,34.51,0
1738,29.17,15.62,29.13,0
1739,29.19,4.08,30.33,0
1740,29.2,-12.15,33.31,0
1741,29.21,-21.17,28.61,0
1742,29.22,-15.63,20.07,0
1743,29.24,-2.98,12.38,0
1744,29.25,9.25,13.25,0
1745,29.26,15.79,25.94,0
1746,29.28,12.56,32.14,0
1747,29.29,6.72,21.0,0
1748,29.3,2.96,12.82,0
1749,29.32,-2.01,14.77,0
1750,29.33,-0.73,11.38,0
1751,29.34,8.86,6.87,0
1752,29.36,11.51,10.2,0
1753,29.37,5.04,12.59,0
1754,29.38,1.31,11.92,0
1755,29.4,2.85,12.78,0
1756,29.41,4.25,12.38,0
1757,29.42,-0.28,8.59,0
1758,29.44,-11.55,2.65,0
1759,29.45,-20.79,-0.05,0
1760,29.46,-16.28,4.68,0
1761,29.48,1.22,7.76,0
1762,29.49,15.24,2.57,0
1763,29.5,17.68,0.0,0
1764,29.52,21.17,5.58,0
1765,29.53,29.02,8.88,0
1766,29.54,20.83,1.31,0
1767,29.56,-8.47,-11.96,0
1768,29.57,-32.09,-15.93,0
1769,29.58,-32.76,-9.19,0
1770,29.6,-21.4,-9.64,0
1771,29.61,-11.36,-19.22,0
1772,29.62,-4.23,-18.15,0
1773,29.64,-2.93,-7.37,0
1774,29.65,-10.86,-8.37,0
1775,29.67,-17.59,-15.52,0
1776,29.68,-11.93,-10.95,0
1777,29.69,-1.1,-4.59,0
1778,29.71,4.67,-8.02,0
1779,29.72,8.82,-16.45,0
1780,29.73,12.18,-22.32,0
1781,29.75,6.6,-15.52,0
1782,29.76,-5.55,-3.19,0
1783,29.77,-9.18,-6.67,0
1784,29.79,-1.31,-18.66,0
1785,29.8,4.19,-16.81,0
1786,29.81,1.58,-9.3,0
1787,29.83,-0.33,-13.53,0
1788,29.84,5.23,-21.02,0
1789,29.85,13.3,-19.18,0
1790,29.86,14.78,-13.39,0
1791,29.88,12.06,-14.79,0
1792,29.89,12.04,-19.3,0
1793,29.9,9.3,-13.21,0
1794,29.92,-1.3,-3.47,0
1795,29.93,-9.83,-8.27,0
1796,29.94,-3.33,-19.78,0
1797,29.96,14.2,-23.19,0
1798,29.97,21.1,-22.95,0
1799,29.98,8.79,-21.31,0
1800,30.0,-0.51,-16.9,0
1801,30.01,9.39,-21.28,0
1802,30.02,20.87,-34.64,0
1803,30.04,16.49,-36.16,0
1804,30.05,3.13,-20.17,0
1805,30.06,-6.52,-8.81,0
1806,30.08,-5.89,-21.51,0
1807,30.09,-2.14,-42.72,0
1808,30.1,-7.51,-47.98,1
1809,30.12,-13.95,-46.6,1
1810,30.13,-8.22,-37.98,1
1811,30.14,5.18,-26.69,1
1812,30.16,18.29,-64.55,1
1813,30.17,3.99,-83.94,1
1814,30.18,-45.99,31.72,1
1815,30.2,-62.71,168.78,1
1816,30.21,-37.06,238.42,1
1817,30.22,-42.25,352.2,1
1818,30.24,-54.93,460.31,1
1819,30.25,-34.19,413.73,1
1820,30.26,-3.02,298.95,1
1821,30.28,53.85,254.65,1
1822,30.29,107.48,244.44,1
1823,30.3,78.78,202.88,1
1824,30.32,3.94,151.5,1
1825,30.33,-25.17,119.24,1
1826,30.35,12.63,93.73,1
1827,30.36,50.37,56.99,1
1828,30.37,8.86,8.54,1
1829,30.39,-47.39,-50.76,1
1830,30.4,-17.8,-146.12,1
1831,30.41,24.1,-250.49,1
1832,30.43,3.46,-259.75,1
1833,30.44,1.0,-224.63,1
1834,30.45,48.54,-281.75,1
1835,30.47,62.45,-365.71,1
1836,30.48,30.24,-432.43,1
1837,30.49,0.23,-499.79,1
1838,30.5,-23.16,-398.39,1
1839,30.52,-8.73,-154.73,1
1840,30.53,57.22,-108.7,1
1841,30.54,65.38,-297.87,1
1842,30.56,-17.77,-402.48,1
1843,30.57,-53.75,-278.57,1
1844,30.58,13.44,-113.57,1
1845,30.6,69.56,-95.12,1
1846,30.61,36.47,-175.3,1
1847,30.62,-10.85,-220.14,1
1848,30.64,9.85,-174.15,1
1849,30.65,36.88,-74.87,1
1850,30.67,-7.65,-36.71,1
1851,30.68,-57.18,-111.57,1
1852,30.69,-37.22,-168.72,1
1853,30.7,15.95,-57.07,1
1854,30.72,51.55,104.23,1
1855,30.73,28.0,61.02,1
1856,30.75,-50.19,-95.79,1
1857,30.76,-76.61,-97.46,1
1858,30.77,-12.9,24.9,1
1859,30.78,29.76,92.41,1
1860,30.8,-9.1,64.18,1
1861,30.81,-49.13,33.67,1
1862,30.82,-27.97,69.3,1
1863,30.84,-7.48,96.73,1
1864,30.85,-32.57,77.6,1
1865,30.86,-33.55,94.08,1
1866,30.88,12.5,113.22,1
1867,30.89,23.24,30.09,1
1868,30.9,-18.74,-67.65,1
1869,30.92,-48.24,-35.61,0
1870,30.93,-57.91,67.54,0
1871,30.94,-59.18,113.16,0
1872,30.96,-23.96,85.34,0
1873,30.97,17.81,30.69,0
1874,30.99,9.93,17.41,0
1875,31.0,-20.23,61.79,0
1876,31.01,-23.34,96.79,0
1877,31.03,-9.37,90.75,0
1878,31.04,0.62,59.16,0
1879,31.05,13.62,62.23,0
1880,31.07,19.38,146.24,0
1881,31.08,-3.81,184.77,0
1882,31.09,-30.39,84.48,0
1883,31.11,-11.84,5.55,0
1884,31.12,33.5,63.1,0
1885,31.13,33.7,116.5,0
1886,31.14,-10.38,78.52,0
1887,31.16,-28.71,70.95,0
1888,31.17,-6.75,117.44,0
1889,31.18,13.43,102.12,0
1890,31.2,8.03,51.73,0
1891,31.21,-6.06,78.96,0
1892,31.22,0.88,127.51,0
1893,31.24,22.11,80.95,0
1894,31.25,27.02,6.73,0
1895,31.26,11.68,13.93,0
1896,31.28,-5.53,57.45,0
1897,31.29,-14.3,64.31,0
1898,31.3,-22.49,39.98,0
1899,31.32,-27.64,40.3,0
1900,31.33,-8.77,104.34,0
1901,31.34,29.38,172.64,0
1902,31.36,50.47,170.18,0
1903,31.37,28.53,122.52,0
1904,31.38,-16.65,97.86,0
1905,31.4,-28.54,124.73,0
1906,31.41,3.48,144.93,0
1907,31.42,23.38,68.5,0
1908,31.44,3.95,-48.17,0
1909,31.45,-23.58,-46.8,0
1910,31.46,-23.91,55.13,0
1911,31.48,9.03,99.31,0
1912,31.49,37.54,69.04,0
1913,31.5,25.67,58.56,0
1914,31.52,5.4,62.46,0
1915,31.53,15.86,44.26,0
1916,31.54,29.01,49.73,0
1917,31.56,13.4,58.47,0
1918,31.57,-4.98,21.19,0
1919,31.58,2.49,-1.27,0
1920,31.6,8.1,-8.01,0
1921,31.61,-16.31,-37.86,0
1922,31.63,-30.45,-37.27,0
1923,31.64,-0.35,-5.76,0
1924,31.65,24.64,-2.52,0
1925,31.67,4.54,-21.08,0
1926,31.68,-14.02,-40.05,0
1927,31.69,10.24,-49.73,0
1928,31.71,40.3,-18.35,0
1929,31.72,29.8,34.01,0
1930,31.73,-1.12,46.96,0
1931,31.75,-6.55,12.08,0
1932,31.76,4.38,-33.13,0
1933,31.77,3.85,-35.92,0
1934,31.78,9.63,-14.78,0
1935,31.8,23.1,-38.57,0
1936,31.81,11.05,-72.51,0
1937,31.82,-13.65,-65.41,0
1938,31.84,-16.44,-58.22,0
1939,31.85,-4.99,-49.96,0
1940,31.86,-2.14,-21.52,0
1941,31.88,-4.55,-33.55,0
1942,31.89,0.55,-68.05,0
1943,31.9,-3.32,-51.37,0
1944,31.92,-20.81,-33.22,0
1945,31.93,-14.64,-48.49,0
1946,31.94,13.34,-48.34,0
1947,31.96,6.0,-45.61,0
1948,31.97,-32.84,-54.63,0
1949,31.98,-32.91,-12.85,0
1950,32.0,1.43,60.58,0
1951,32.01,5.75,59.79,0
1952,32.03,-12.17,-5.72,0
1953,32.04,-5.53,-39.58,0
1954,32.05,10.43,-15.86,0
1955,32.06,-1.9,-1.32,0
1956,32.08,-23.23,-79.28,0
1957,32.09,-19.24,-203.86,0
1958,32.11,0.91,-241.96,1
1959,32.12,13.2,-186.69,1
1960,32.13,13.18,-126.28,1
1961,32.15,7.51,-94.76,1
1962,32.16,-11.38,-86.37,1
1963,32.17,-39.29,-109.57,1
1964,32.19,-33.11,-154.17,1
1965,32.2,12.83,-167.11,1
1966,32.21,40.94,-123.46,1
1967,32.22,29.21,-58.01,1
1968,32.24,14.66,-7.87,1
1969,32.25,17.13,19.02,1
1970,32.27,20.83,36.53,1
1971,32.28,11.57,56.3,1
1972,32.29,-3.89,70.29,1
1973,32.31,-6.0,72.57,1
1974,32.32,5.54,73.2,1
1975,32.33,3.36,72.07,1
1976,32.35,-14.69,64.53,1
1977,32.36,-17.64,66.32,1
1978,32.37,-3.71,74.82,1
1979,32.39,1.39,66.35,1
1980,32.4,-4.73,49.7,1
1981,32.41,-10.87,41.94,1
1982,32.43,-17.4,38.32,1
1983,32.44,-21.66,37.97,1
1984,32.45,-12.42,35.83,1
1985,32.47,3.75,27.08,1
1986,32.48,3.83,30.08,1
1987,32.49,-7.54,47.11,1
1988,32.51,-10.93,50.42,1
1989,32.52,-14.88,35.23,1
1990,32.53,-19.49,18.9,1
1991,32.54,-6.43,8.87,1
1992,32.56,7.71,10.46,1
1993,32.57,-0.54,17.07,1
1994,32.59,-13.71,13.96,1
1995,32.6,-10.34,8.82,1
1996,32.61,2.83,7.49,1
1997,32.63,8.58,3.65,1
1998,32.64,3.18,2.66,1
1999,32.65,-1.69,1.66,1
2000,32.67,-2.31,-7.98,1
2001,32.68,-5.88,-12.57,1
2002,32.69,-9.05,-4.88,1
2003,32.71,-3.86,-0.48,1
2004,32.72,7.78,-7.0,1
2005,32.73,16.08,-12.45,1
2006,32.75,12.97,-8.24,1
2007,32.76,2.59,-7.09,1
2008,32.77,-0.83,-17.99,1
2009,32.79,6.06,-19.43,1
2010,32.8,8.84,-0.03,1
2011,32.81,1.37,10.5,1
2012,32.83,-2.5,-5.11,1
2013,32.84,0.72,-23.12,1
2014,32.85,-4.81,-27.59,1
2015,32.87,-16.54,-22.52,1
2016,32.88,-9.79,-13.93,1
2017,32.89,12.55,-9.94,1
2018,32.9,19.03,-7.62,1
2019,32.92,4.65,-2.02,0
2020,32.93,-3.67,-3.71,0
2021,32.95,5.15,-10.93,0
2022,32.96,13.31,-9.3,0
2023,32.97,6.39,-7.02,0
2024,32.99,-2.62,-14.19,0
2025,33.0,5.35,-15.88,0
2026,33.01,20.03,-9.1,0
2027,33.03,22.04,-13.1,0
2028,33.04,15.0,-21.71,0
2029,33.05,10.41,-13.15,0
2030,33.06,7.85,2.15,0
2031,33.08,2.98,0.1,0
2032,33.09,-1.25,-17.86,0
2033,33.11,-1.03,-27.84,0
2034,33.12,0.05,-18.64,0
2035,33.13,1.98,-9.97,0
2036,33.15,4.94,-15.42,0
2037,33.16,1.89,-20.22,0
2038,33.17,-6.03,-15.24,0
2039,33.19,-8.36,-8.73,0
2040,33.2,-1.38,-3.88,0
2041,33.21,7.79,-1.74,0
2042,33.22,6.32,-8.41,0
2043,33.24,-5.46,-15.45,0
2044,33.25,-7.8,-10.38,0
2045,33.27,2.13,-5.28,0
2046,33.28,1.16,-10.67,0
2047,33.29,-9.69,-11.31,0
2048,33.31,-4.57,-4.24,0
2049,33.32,12.15,-7.19,0
2050,33.33,16.12,-17.05,0
2051,33.35,8.42,-15.09,0
2052,33.36,1.11,-4.89,0
2053,33.37,-5.28,-1.43,0
2054,33.38,-6.21,-2.67,0
2055,33.4,1.52,1.59,0
2056,33.41,5.04,3.76,0
2057,33.43,-1.06,-7.24,0
2058,33.44,-5.84,-15.37,0
2059,33.45,-3.78,-4.52,0
2060,33.47,2.44,9.93,0
2061,33.48,7.69,8.26,0
2062,33.49,7.8,-3.92,0
2063,33.51,4.85,-5.61,0
2064,33.52,-0.13,7.83,0
2065,33.53,-8.44,15.86,0
2066,33.54,-15.16,5.4,0
2067,33.56,-14.15,-7.26,0
2068,33.57,-4.39,-1.72,0
2069,33.59,5.01,14.82,0
2070,33.6,3.43,23.46,0
2071,33.61,0.92,19.34,0
2072,33.63,8.42,11.31,0
2073,33.64,10.84,11.91,0
2074,33.65,-0.84,18.2,0
2075,33.67,-7.28,18.46,0
2076,33.68,2.98,14.74,0
2077,33.69,15.46,11.55,0
2078,33.71,14.44,7.75,0
2079,33.72,0.17,7.3,0
2080,33.73,-16.54,11.89,0
2081,33.75,-21.36,17.28,0
2082,33.76,-11.56,17.37,0
2083,33.77,-2.16,7.44,0
2084,33.79,1.39,-1.73,0
2085,33.8,7.17,4.27,0
2086,33.81,10.45,12.34,0
2087,33.83,6.17,7.77,0
2088,33.84,1.7,8.5,0
2089,33.85,-2.45,22.54,0
2090,33.87,-10.03,26.11,0
2091,33.88,-13.36,15.33,0
2092,33.89,-5.44,5.58,0
2093,33.9,4.16,-0.27,0
2094,33.92,5.64,4.34,0
2095,33.93,3.06,16.12,0
2096,33.95,-0.25,12.99,0
2097,33.96,-5.56,2.34,0
2098,33.97,-7.56,7.12,0
2099,33.99,-8.03,14.38,0
2100,34.0,-13.34,4.4,0
2101,34.01,-10.93,-13.0,0
2102,34.03,2.26,-17.8,0
2103,34.04,1.99,-3.5,0
2104,34.05,-16.66,16.28,0
2105,34.06,-25.99,23.39,0
2106,34.08,-13.04,17.47,0
2107,34.09,3.06,10.04,0
2108,34.11,2.41,5.53,1
2109,34.12,-3.23,2.88,1
2110,34.13,7.51,3.42,1
2111,34.15,18.21,8.92,1
2112,34.16,5.36,16.79,1
2113,34.17,-12.54,18.12,1
2114,34.19,-11.77,6.18,1
2115,34.2,0.99,-21.04,1
2116,34.21,14.52,-61.17,1
2117,34.23,29.86,-97.18,1
2118,34.24,41.67,-112.42,1
2119,34.25,40.24,-115.57,1
2120,34.27,31.69,-122.59,1
2121,34.28,25.9,-134.67,1
2122,34.29,22.19,-147.71,1
2123,34.31,19.74,-152.11,1
2124,34.32,23.26,-132.34,1
2125,34.33,32.14,-95.25,1
2126,34.35,29.13,-66.45,1
2127,34.36,10.16,-51.11,1
2128,34.37,0.25,-34.07,1
2129,34.38,4.17,-8.49,1
2130,34.4,-0.62,24.6,1
2131,34.41,-25.58,59.84,1
2132,34.43,-52.54,85.56,1
2133,34.44,-47.68,107.27,1
2134,34.45,-26.6,140.09,1
2135,34.47,-39.12,165.43,1
2136,34.48,-68.69,156.96,1
2137,34.49,-63.04,135.13,1
2138,34.51,-34.46,132.74,1
2139,34.52,-18.91,142.49,1
2140,34.53,-11.12,145.4,1
2141,34.54,-10.42,145.83,1
2142,34.56,-26.36,148.94,1
2143,34.57,-30.16,145.92,1
2144,34.59,-10.32,134.08,1
2145,34.6,-10.14,122.27,1
2146,34.61,-31.76,112.1,1
2147,34.63,-26.79,94.74,1
2148,34.64,-1.14,74.56,1
2149,34.65,5.14,69.23,1
2150,34.67,-5.01,76.81,1
2151,34.68,-11.68,77.47,1
2152,34.69,-10.41,63.25,1
2153,34.71,-2.13,41.29,1
2154,34.72,6.56,21.36,1
2155,34.73,12.38,7.88,1
2156,34.75,16.53,3.65,1
2157,34.76,10.39,7.22,1
2158,34.77,0.18,7.31,1
2159,34.79,4.37,-0.96,1
2160,34.8,10.74,-11.13,1
2161,34.81,6.84,-21.72,1
2162,34.83,8.6,-34.2,1
2163,34.84,18.58,-40.06,1
2164,34.85,23.62,-35.1,1
2165,34.87,23.9,-31.44,1
2166,34.88,19.76,-35.33,1
2167,34.89,6.37,-38.8,1
2168,34.91,-0.93,-41.36,0
2169,34.92,10.46,-46.38,0
2170,34.93,19.23,-49.01,0
2171,34.95,11.17,-50.46,0
2172,34.96,2.05,-53.18,0
2173,34.97,3.75,-52.14,0
2174,34.99,13.35,-51.8,0
2175,35.0,21.23,-55.0,0
2176,35.01,16.2,-53.99,0
2177,35.03,1.33,-53.98,0
2178,35.04,-5.11,-60.37,0
2179,35.05,4.12,-61.89,0
2180,35.06,14.43,-57.45,0
2181,35.08,13.37,-58.59,0
2182,35.09,7.64,-64.16,0
2183,35.11,6.31,-64.41,0
2184,35.12,2.74,-56.44,0
2185,35.13,-7.92,-45.21,0
2186,35.15,-13.49,-40.86,0
2187,35.16,-5.58,-45.01,0
2188,35.17,8.94,-44.49,0
2189,35.19,20.24,-38.39,0
2190,35.2,19.48,-44.34,0
2191,35.21,5.4,-59.44,0
2192,35.22,-6.05,-60.9,0
2193,35.24,-1.03,-48.69,0
2194,35.25,11.08,-41.34,0
2195,35.27,14.51,-43.43,0
2196,35.28,8.41,-43.54,0
2197,35.29,4.08,-35.15,0
2198,35.31,7.56,-28.92,0
2199,35.32,6.05,-29.74,0
2200,35.33,-4.0,-25.63,0
2201,35.35,-1.28,-17.51,0
2202,35.36,10.35,-21.0,0
2203,35.37,4.1,-31.83,0
2204,35.38,-8.4,-33.7,0
2205,35.4,-2.06,-30.32,0
2206,35.41,9.06,-30.78,0
2207,35.43,8.57,-29.68,0
2208,35.44,4.2,-23.18,0
2209,35.45,1.46,-16.42,0
2210,35.47,-2.85,-12.55,0
2211,35.48,-9.03,-8.53,0
2212,35.49,-7.94,-5.16,0
2213,35.51,3.16,-8.95,0
2214,35.52,8.57,-15.36,0
2215,35.53,0.43,-15.3,0
2216,35.55,-7.21,-12.29,0
2217,35.56,-1.05,-7.19,0
2218,35.57,12.96,0.06,0
2219,35.59,13.36,1.37,0
2220,35.6,-3.9,3.05,0
2221,35.61,-11.34,10.81,0
2222,35.63,-2.16,6.87,0
2223,35.64,-2.26,-9.33,0
2224,35.65,-10.72,-11.49,0
2225,35.67,-11.72,1.22,0
2226,35.68,-16.11,8.99,0
2227,35.69,-22.99,13.87,0
2228,35.71,-12.05,21.93,0
2229,35.72,4.16,22.11,0
2230,35.73,1.81,14.1,0
2231,35.75,-7.23,12.16,0
2232,35.76,-6.66,15.51,0
2233,35.77,-3.19,14.86,0
2234,35.79,-4.45,15.88,0
2235,35.8,-6.03,26.1,0
2236,35.81,0.94,34.67,0
2237,35.83,11.32,28.89,0
2238,35.84,7.62,18.37,0
2239,35.85,-2.74,20.23,0
2240,35.87,-1.43,27.77,0
2241,35.88,0.25,24.37,0
2242,35.89,-3.69,17.0,0
2243,35.9,2.01,16.97,0
2244,35.92,8.43,16.75,0
2245,35.93,-1.65,16.08,0
2246,35.95,-14.16,20.97,0
2247,35.96,-14.88,25.14,0
2248,35.97,-8.06,26.27,0
2249,35.99,3.16,28.64,0
2250,36.0,11.46,28.89,0
2251,36.01,7.81,22.13,0
2252,36.03,-2.75,11.82,0
2253,36.04,-9.26,9.49,0
2254,36.05,-8.43,24.3,0
2255,36.06,-8.85,41.48,0
2256,36.08,-16.38,37.93,0
2257,36.09,-16.83,23.12,0
2258,36.11,-2.87,17.41,1
2259,36.12,7.33,16.34,1
2260,36.13,5.67,13.8,1
2261,36.15,5.11,12.36,1
2262,36.16,5.85,11.58,1
2263,36.17,3.71,15.56,1
2264,36.19,6.93,23.7,1
2265,36.2,9.18,25.86,1
2266,36.21,1.18,26.39,1
2267,36.23,-1.83,55.54,1
2268,36.24,5.61,143.99,1
2269,36.25,4.87,272.83,1
2270,36.27,-12.24,376.22,1
2271,36.28,-37.63,404.77,1
2272,36.29,-61.63,363.87,1
2273,36.31,-77.9,300.87,1
2274,36.32,-83.04,249.62,1
2275,36.33,-70.28,181.07,1
2276,36.35,-39.33,49.02,1
2277,36.36,-6.28,-118.06,1
2278,36.37,14.07,-237.88,1
2279,36.38,19.84,-289.89,1
2280,36.4,19.37,-319.39,1
2281,36.41,24.63,-338.09,1
2282,36.43,37.3,-321.93,1
2283,36.44,47.34,-278.96,1
2284,36.45,48.77,-235.97,1
2285,36.47,45.29,-197.49,1
2286,36.48,38.21,-163.31,1
2287,36.49,30.71,-140.2,1
2288,36.51,30.43,-128.56,1
2289,36.52,32.22,-123.51,1
2290,36.53,24.91,-110.54,1
2291,36.54,16.24,-82.83,1
2292,36.56,28.25,-63.54,1
2293,36.57,61.66,-66.67,1
2294,36.59,79.27,-71.34,1
2295,36.6,51.9,-64.59,1
2296,36.61,11.71,-57.43,1
2297,36.63,4.57,-53.17,1
2298,36.64,14.62,-44.54,1
2299,36.65,6.55,-31.54,1
2300,36.67,-10.85,-23.44,1
2301,36.68,-17.22,-23.14,1
2302,36.69,-13.52,-19.88,1
2303,36.71,-8.45,-7.55,1
2304,36.72,-9.95,2.91,1
2305,36.73,-17.77,2.7,1
2306,36.75,-20.6,3.59,1
2307,36.76,-14.08,14.97,1
2308,36.77,-7.3,23.04,1
2309,36.79,-11.35,18.48,1
2310,36.8,-20.18,13.59,1
2311,36.81,-14.46,18.64,1
2312,36.83,-0.46,29.72,1
2313,36.84,-2.69,36.91,1
2314,36.85,-16.48,33.59,1
2315,36.87,-16.87,26.94,1
2316,36.88,-3.63,32.64,1
2317,36.89,-0.92,46.39,1
2318,36.9,-13.04,47.54,1
2319,36.92,-16.2,39.35,0
2320,36.93,-4.52,45.25,0
2321,36.95,2.88,60.52,0
2322,36.96,-3.64,63.21,0
2323,36.97,-15.46,59.4,0
2324,36.99,-15.77,59.38,0
2325,37.0,-2.47,53.01,0
2326,37.01,4.86,43.27,0
2327,37.03,-1.54,42.82,0
2328,37.04,-6.68,45.71,0
2329,37.05,-5.72,45.13,0
2330,37.06,-8.77,42.57,0
2331,37.08,-11.72,39.49,0
2332,37.09,-2.74,39.37,0
2333,37.11,4.66,41.28,0
2334,37.12,-8.75,38.19,0
2335,37.13,-28.82,33.28,0
2336,37.15,-27.16,34.46,0
2337,37.16,-6.5,36.45,0
2338,37.17,4.34,33.19,0
2339,37.19,-2.81,30.29,0
2340,37.2,-10.27,32.14,0
2341,37.21,-12.23,36.44,0
2342,37.22,-14.48,36.64,0
2343,37.24,-10.05,27.64,0
2344,37.25,6.36,21.03,0
2345,37.27,17.94,27.39,0
2346,37.28,9.88,29.02,0
2347,37.29,-3.1,19.54,0
2348,37.31,0.14,23.76,0
2349,37.32,8.27,37.93,0
2350,37.33,-0.73,33.06,0
2351,37.35,-14.89,13.76,0
2352,37.36,-13.97,4.81,0
2353,37.37,-10.74,12.44,0
2354,37.38,-17.84,21.28,0
2355,37.4,-14.38,17.97,0
2356,37.41,7.69,11.75,0
2357,37.43,15.69,10.9,0
2358,37.44,-2.83,7.49,0
2359,37.45,-17.21,6.49,0
2360,37.47,-9.69,17.31,0
2361,37.48,0.81,22.12,0
2362,37.49,-0.61,10.43,0
2363,37.51,-0.24,-1.13,0
2364,37.52,9.97,-5.94,0
2365,37.53,10.66,-9.93,0
2366,37.54,0.44,-11.1,0
2367,37.56,4.27,-5.11,0
2368,37.57,16.67,3.42,0
2369,37.59,9.98,7.68,0
2370,37.6,-6.88,9.67,0
2371,37.61,-7.7,6.02,0
2372,37.63,-0.52,-8.15,0
2373,37.64,0.82,-19.97,0
2374,37.65,9.0,-19.51,0
2375,37.67,23.46,-12.38,0
2376,37.68,21.82,-3.88,0
2377,37.69,4.51,1.27,0
2378,37.71,-5.23,-3.46,0
2379,37.72,0.79,-19.2,0
2380,37.73,4.4,-34.38,0
2381,37.75,-2.92,-34.61,0
2382,37.76,-1.8,-22.8,0
2383,37.77,9.42,-10.99,0
2384,37.79,8.63,-6.5,0
2385,37.8,-0.6,-11.83,0
2386,37.81,-0.48,-20.46,0
2387,37.83,4.74,-22.24,0
2388,37.84,4.88,-17.05,0
2389,37.85,2.22,-14.92,0
2390,37.87,3.3,-18.02,0
2391,37.88,7.93,-18.25,0
2392,37.89,10.81,-22.97,0
2393,37.9,8.59,-36.06,0
2394,37.92,4.17,-34.13,0
2395,37.93,1.03,-14.32,0
2396,37.95,-4.26,-7.44,0
2397,37.96,-6.6,-14.73,0
2398,37.97,5.46,-11.23,0
2399,37.99,18.16,-6.61,0
2400,38.0,11.92,-18.52,0
2401,38.01,0.47,-25.84,0
2402,38.03,1.74,-21.43,0
2403,38.04,2.85,-30.18,0
2404,38.05,-6.11,-40.38,0
2405,38.06,-10.66,-26.11,0
2406,38.08,-6.4,-11.49,0
2407,38.09,-5.57,-16.38,0
2408,38.11,-7.88,-18.03,1
2409,38.12,-2.29,-10.57,1
2410,38.13,10.16,-11.39,1
2411,38.15,14.24,-23.25,1
2412,38.16,7.86,-33.05,1
2413,38.17,6.29,-25.58,1
2414,38.19,10.04,-16.68,1
2415,38.2,5.65,-31.55,1
2416,38.21,-2.8,-22.1,1
2417,38.22,2.01,31.79,1
2418,38.24,16.43,81.5,1
2419,38.25,10.09,195.48,1
2420,38.27,-17.35,372.16,1
2421,38.28,-31.8,358.71,1
2422,38.29,-36.84,122.01,1
2423,38.31,-47.48,30.7,1
2424,38.32,-22.95,220.26,1
2425,38.33,32.55,313.35,1
2426,38.35,15.32,124.47,1
2427,38.36,-55.97,0.35,1
2428,38.37,-31.73,122.26,1
2429,38.38,55.52,202.74,1
2430,38.4,58.9,78.06,1
2431,38.41,10.44,-63.34,1
2432,38.43,18.55,-95.76,1
2433,38.44,50.57,-90.52,1
2434,38.45,27.54,-110.85,1
2435,38.47,-0.29,-159.42,1
2436,38.48,30.63,-193.54,1
2437,38.49,41.74,-203.7,1
2438,38.51,-25.12,-272.77,1
2439,38.52,-69.74,-351.46,1
2440,38.53,-33.42,-291.43,1
2441,38.54,-0.91,-168.96,1
2442,38.56,-6.0,-120.84,1
2443,38.57,-5.41,-99.5,1
2444,38.59,-8.74,-95.76,1
2445,38.6,-28.11,-195.38,1
2446,38.61,-24.4,-306.91,1
2447,38.63,6.81,-286.8,1
2448,38.64,15.23,-232.52,1
2449,38.65,2.71,-254.35,1
2450,38.67,14.44,-235.87,1
2451,38.68,33.48,-129.64,1
2452,38.69,29.13,-87.26,1
2453,38.71,19.6,-96.24,1
2454,38.72,19.65,-29.41,1
2455,38.73,22.16,17.49,1
2456,38.75,24.5,-50.17,1
2457,38.76,20.91,-109.04,1
2458,38.77,5.14,-63.02,1
2459,38.79,-11.28,12.4,1
2460,38.8,-7.3,23.35,1
2461,38.81,21.6,-22.79,1
2462,38.83,31.82,-49.41,1
2463,38.84,-4.51,-2.6,1
2464,38.85,-34.97,54.49,1
2465,38.87,-32.02,60.84,1
2466,38.88,-23.86,75.73,1
2467,38.89,-19.38,100.06,1
2468,38.9,-24.32,70.66,1
2469,38.92,-38.43,46.97,0
2470,38.93,-40.45,89.55,0
2471,38.95,-33.31,109.8,0
2472,38.96,-22.27,58.51,0
2473,38.97,8.91,41.57,0
2474,38.99,38.47,96.58,0
2475,39.0,19.98,113.82,0
2476,39.01,-26.81,90.16,0
2477,39.03,-26.81,108.05,0
2478,39.04,19.42,104.52,0
2479,39.05,27.3,46.61,0
2480,39.06,-13.08,34.64,0
2481,39.08,-30.39,60.73,0
2482,39.09,-3.36,73.94,0
2483,39.11,20.75,93.0,0
2484,39.12,3.39,72.55,0
2485,39.13,-19.53,28.27,0
2486,39.15,-5.06,75.79,0
2487,39.16,0.98,130.38,0
2488,39.17,-23.3,66.28,0
2489,39.19,-16.01,25.41,0
2490,39.2,9.12,94.94,0
2491,39.21,-8.1,129.42,0
2492,39.22,-19.78,83.18,0
2493,39.24,8.43,63.08,0
2494,39.25,17.08,102.87,0
2495,39.27,3.87,128.47,0
2496,39.28,11.21,90.54,0
2497,39.29,20.87,33.02,0
2498,39.31,13.64,34.42,0
2499,39.32,10.91,82.44,0
2500,39.33,9.03,70.09,0
2501,39.35,-12.93,1.65,0
2502,39.36,-25.38,-13.66,0
2503,39.37,2.59,36.62,0
2504,39.38,38.02,105.2,0
2505,39.4,39.1,143.3,0
2506,39.41,13.02,104.92,0
2507,39.43,-10.16,22.91,0
2508,39.44,-15.49,-23.53,0
2509,39.45,-13.62,3.63,0
2510,39.47,-17.7,69.4,0
2511,39.48,-8.43,87.95,0
2512,39.49,25.95,32.46,0
2513,39.51,47.41,-42.0,0
2514,39.52,29.19,-95.71,0
2515,39.53,-7.45,-81.22,0
2516,39.54,-34.02,8.49,0
2517,39.56,-31.5,43.94,0
2518,39.57,4.53,-8.03,0
2519,39.59,32.82,-1.04,0
2520,39.6,6.06,82.57,0
2521,39.61,-43.32,90.73,0
2522,39.63,-52.12,-0.27,0
2523,39.64,-12.74,-41.66,0
2524,39.65,34.83,-2.19,0
2525,39.67,31.16,-8.98,0
2526,39.68,-26.98,-65.58,0
2527,39.69,-48.17,-37.33,0
2528,39.71,-3.25,57.03,0
2529,39.72,8.67,55.55,0
2530,39.73,-36.69,-37.33,0
2531,39.75,-41.41,-75.51,0
2532,39.76,11.99,-55.02,0
2533,39.77,41.27,-41.71,0
2534,39.79,22.79,-0.77,0
2535,39.8,1.53,56.82,0
2536,39.81,4.2,55.93,0
2537,39.83,15.18,7.96,0
2538,39.84,9.46,-35.49,0
2539,39.85,-5.32,-24.89,0
2540,39.87,-4.35,58.53,0
2541,39.88,3.21,101.06,0
2542,39.89,-12.33,22.3,0
2543,39.9,-36.66,-47.98,0
2544,39.92,-20.09,-38.81,0
2545,39.93,22.85,-54.54,0
2546,39.95,30.19,-95.17,0
2547,39.96,20.5,-68.56,0
2548,39.97,33.29,-10.59,0
2549,39.99,37.35,-4.7,0
2550,40.0,23.03,-30.57,0
2551,40.01,6.24,-46.81,0
2552,40.03,-11.89,-69.09,0
2553,40.04,-0.76,-76.51,0
2554,40.05,26.84,-26.14,0
2555,40.07,5.8,27.24,0
2556,40.08,-25.04,17.44,0
2557,40.09,4.45,-3.47,0
2558,40.11,30.34,11.8,1
2559,40.12,-16.96,-7.49,1
2560,40.13,-62.44,-92.72,1
2561,40.15,-12.13,-126.35,1
2562,40.16,66.09,-48.93,1
2563,40.17,46.93,12.38,1
2564,40.19,-29.95,-18.37,1
2565,40.2,-44.48,-61.61,1
2566,40.21,-7.67,-71.92,1
2567,40.22,-5.7,-71.6,1
2568,40.24,-35.53,-72.44,1
2569,40.25,-40.76,-83.95,1
2570,40.27,-19.0,-111.51,1
2571,40.28,-4.07,-157.48,1
2572,40.29,-5.4,-219.26,1
2573,40.31,-0.46,-253.95,1
2574,40.32,18.39,-218.51,1
2575,40.33,30.75,-143.4,1
2576,40.35,34.22,-80.84,1
2577,40.36,37.36,-31.74,1
2578,40.37,26.77,18.03,1
2579,40.38,3.03,54.42,1
2580,40.4,-7.08,66.36,1
2581,40.41,-5.0,71.16,1
2582,40.43,-12.47,84.13,1
2583,40.44,-21.81,91.27,1
2584,40.45,-19.33,81.48,1
2585,40.47,-14.52,78.7,1
2586,40.48,-13.4,92.25,1
2587,40.49,-7.87,92.73,1
2588,40.51,-1.19,74.12,1
2589,40.52,-4.22,59.58,1
2590,40.53,-10.08,58.45,1
2591,40.54,-9.49,66.23,1
2592,40.56,-7.25,70.04,1
2593,40.57,-5.38,62.16,1
2594,40.59,-0.55,59.44,1
2595,40.6,3.03,68.6,1
2596,40.61,-4.09,64.91,1
2597,40.63,-17.49,45.34,1
2598,40.64,-20.89,39.98,1
2599,40.65,-16.05,52.39,1
2600,40.67,-13.95,52.87,1
2601,40.68,-6.99,33.68,1
2602,40.69,5.89,22.79,1
2603,40.71,9.43,33.38,1
2604,40.72,2.72,39.98,1
2605,40.73,-1.16,30.85,1
2606,40.75,3.67,28.21,1
2607,40.76,10.07,37.61,1
2608,40.77,8.44,35.07,1
2609,40.79,5.47,14.95,1
2610,40.8,10.73,4.01,1
2611,40.81,11.01,11.69,1
2612,40.83,-2.31,17.25,1
2613,40.84,-10.96,12.51,1
2614,40.85,-4.2,2.67,1
2615,40.87,7.29,-7.73,1
2616,40.88,8.73,-9.49,1
2617,40.89,-2.95,-3.62,1
2618,40.9,-16.05,-2.87,1
2619,40.92,-15.34,-6.64,0
2620,40.93,1.31,-7.03,0
2621,40.95,15.98,-5.94,0
2622,40.96,14.35,-7.04,0
2623,40.97,3.6,-12.62,0
2624,40.99,-4.14,-19.88,0
2625,41.0,-2.27,-17.06,0
2626,41.01,6.84,-8.05,0
2627,41.03,10.09,-8.08,0
2628,41.04,3.44,-11.32,0
2629,41.05,0.93,-11.47,0
2630,41.06,8.9,-13.49,0
2631,41.08,14.39,-15.46,0
2632,41.09,10.46,-19.03,0
2633,41.11,7.58,-20.53,0
2634,41.12,11.99,-12.93,0
2635,41.13,11.31,-13.15,0
2636,41.15,-2.93,-24.79,0
2637,41.16,-12.61,-21.74,0
2638,41.17,-4.94,-6.55,0
2639,41.19,3.79,-2.93,0
2640,41.2,7.62,-9.83,0
2641,41.21,14.82,-18.81,0
2642,41.22,14.05,-26.08,0
2643,41.24,-0.09,-25.39,0
2644,41.25,-8.18,-23.75,0
2645,41.27,-2.5,-24.49,0
2646,41.28,5.57,-17.55,0
2647,41.29,5.48,-10.94,0
2648,41.31,-0.28,-12.63,0
2649,41.32,2.89,-13.69,0
2650,41.33,14.21,-18.62,0
2651,41.35,15.94,-25.48,0
2652,41.36,11.21,-12.4,0
2653,41.37,12.83,7.96,0
2654,41.38,9.87,1.83,0
2655,41.4,-4.54,-20.54,0
2656,41.41,-10.79,-28.68,0
2657,41.43,1.96,-20.61,0
2658,41.44,12.44,-11.38,0
2659,41.45,1.29,-7.53,0
2660,41.47,-13.48,-8.54,0
2661,41.48,-10.28,-13.57,0
2662,41.49,-0.6,-17.37,0
2663,41.51,1.22,-11.22,0
2664,41.52,-0.76,-0.56,0
2665,41.53,-2.56,-4.9,0
2666,41.54,-0.29,-18.53,0
2667,41.56,5.49,-17.56,0
2668,41.57,2.06,-13.84,0
2669,41.59,-7.45,-23.4,0
2670,41.6,-7.48,-26.15,0
2671,41.61,-4.61,-16.52,0
2672,41.63,-3.89,-11.63,0
2673,41.64,1.94,-8.46,0
2674,41.65,0.78,-6.41,0
2675,41.67,-11.53,-17.09,0
2676,41.68,-10.58,-21.95,0
2677,41.69,5.37,-1.56,0
2678,41.71,11.01,17.32,0
2679,41.72,3.57,11.68,0
2680,41.73,-0.2,-2.21,0
2681,41.75,7.58,-6.23,0
2682,41.76,11.8,-1.13,0
2683,41.77,-4.76,0.28,0
2684,41.79,-21.55,-7.53,0
2685,41.8,-11.79,-7.12,0
2686,41.81,7.28,6.99,0
2687,41.83,10.36,14.82,0
2688,41.84,0.66,15.51,0
2689,41.85,-8.93,17.29,0
2690,41.87,-13.27,10.34,0
2691,41.88,-13.64,3.28,0
2692,41.89,-11.7,10.63,0
2693,41.9,-6.61,10.59,0
2694,41.92,-1.94,-6.86,0
2695,41.93,-1.44,-10.73,0
2696,41.95,-0.27,9.71,0
2697,41.96,2.05,22.28,0
2698,41.97,0.42,8.41,0
2699,41.99,0.84,-7.92,0
2700,42.0,5.31,-5.29,0
2701,42.01,3.82,-0.48,0
2702,42.03,-1.56,-8.78,0
2703,42.04,0.4,-8.94,0
2704,42.05,2.25,10.37,0
2705,42.06,-13.47,22.84,0
2706,42.08,-32.58,14.3,0
2707,42.09,-26.56,2.89,0
2708,42.11,-3.83,-7.49,1
2709,42.12,8.09,-40.63,1
2710,42.13,4.78,-91.67,1
2711,42.15,-0.24,-111.81,1
2712,42.16,3.04,-88.61,1
2713,42.17,13.78,-70.85,1
2714,42.19,25.2,-84.85,1
2715,42.2,32.29,-110.51,1
2716,42.21,33.04,-129.36,1
2717,42.22,33.27,-130.75,1
2718,42.24,38.31,-108.4,1
2719,42.25,42.76,-77.34,1
2720,42.27,47.43,-56.74,1
2721,42.28,46.53,-39.46,1
2722,42.29,21.05,-9.92,1
2723,42.31,-10.87,26.41,1
2724,42.32,-16.68,57.4,1
2725,42.33,-16.05,83.24,1
2726,42.35,-29.89,106.73,1
2727,42.36,-32.06,126.47,1
2728,42.37,-16.24,142.04,1
2729,42.38,-14.02,153.88,1
2730,42.4,-28.17,160.63,1
2731,42.41,-33.86,161.1,1
2732,42.43,-31.07,160.56,1
2733,42.44,-32.72,165.21,1
2734,42.45,-35.0,165.19,1
2735,42.47,-33.16,151.83,1
2736,42.48,-30.13,142.65,1
2737,42.49,-28.08,146.87,1
2738,42.51,-23.69,148.3,1
2739,42.52,-13.0,138.42,1
2740,42.53,-6.79,121.15,1
2741,42.54,-11.55,101.73,1
2742,42.56,-15.67,86.43,1
2743,42.57,-18.64,76.13,1
2744,42.59,-20.29,68.38,1
2745,42.6,-6.77,62.52,1
2746,42.61,12.2,51.13,1
2747,42.63,11.87,30.79,1
2748,42.64,-3.68,19.53,1
2749,42.65,-9.97,24.97,1
2750,42.66,2.38,18.91,1
2751,42.68,12.89,-7.75,1
2752,42.69,4.27,-17.37,1
2753,42.71,-3.75,-1.23,1
2754,42.72,5.92,2.01,1
2755,42.73,12.81,-14.96,1
2756,42.75,3.91,-24.69,1
2757,42.76,-1.91,-24.46,1
2758,42.77,1.95,-30.04,1
2759,42.79,2.62,-39.25,1
2760,42.8,3.02,-40.88,1
2761,42.81,6.56,-42.96,1
2762,42.83,1.73,-57.8,1
2763,42.84,-9.02,-67.91,1
2764,42.85,-11.49,-56.38,1
2765,42.87,-2.23,-44.76,1
2766,42.88,11.68,-45.71,1
2767,42.89,16.86,-44.68,1
2768,42.9,7.54,-46.38,1
2769,42.92,-3.12,-58.56,0
2770,42.93,-0.02,-62.8,0
2771,42.95,14.86,-52.1,0
2772,42.96,24.82,-45.78,0
2773,42.97,19.9,-52.38,0
2774,42.99,11.97,-58.19,0
2775,43.0,14.86,-54.17,0
2776,43.01,21.47,-50.68,0
2777,43.03,19.16,-57.18,0
2778,43.04,9.95,-64.41,0
2779,43.05,3.19,-63.88,0
2780,43.06,0.04,-62.01,0
2781,43.08,-4.95,-58.34,0
2782,43.09,-10.53,-51.26,0
2783,43.11,-6.32,-50.89,0
2784,43.12,11.26,-55.21,0
2785,43.13,23.76,-54.77,0
2786,43.15,13.39,-50.3,0
2787,43.16,-2.06,-44.07,0
2788,43.17,3.0,-39.18,0
2789,43.19,17.47,-37.3,0
2790,43.2,17.64,-35.45,0
2791,43.21,7.07,-36.69,0
2792,43.22,2.02,-40.4,0
2793,43.24,2.84,-35.19,0
2794,43.25,1.51,-25.87,0
2795,43.27,-2.22,-31.67,0
2796,43.28,-4.34,-44.74,0
2797,43.29,-3.63,-40.08,0
2798,43.3,-1.87,-24.22,0
2799,43.32,1.18,-20.04,0
2800,43.33,4.26,-23.21,0
2801,43.35,1.89,-21.02,0
2802,43.36,-2.81,-19.24,0
2803,43.37,-1.56,-20.29,0
2804,43.38,3.1,-16.02,0
2805,43.4,2.39,-7.29,0
2806,43.41,-5.17,-3.99,0
2807,43.43,-8.62,-10.58,0
2808,43.44,-2.57,-16.25,0
2809,43.45,0.7,-9.79,0
2810,43.47,-2.16,-0.12,0
2811,43.48,-1.53,0.81,0
2812,43.49,-0.41,-3.16,0
2813,43.51,-2.88,-6.25,0
2814,43.52,-2.15,-7.71,0
2815,43.53,1.56,-4.58,0
2816,43.54,3.53,0.89,0
2817,43.56,5.59,0.39,0
2818,43.57,6.45,-1.28,0
2819,43.59,1.68,8.21,0
2820,43.6,-6.07,21.38,0
2821,43.61,-8.82,18.12,0
2822,43.63,-1.73,3.14,0
2823,43.64,9.56,2.15,0
2824,43.65,12.83,13.88,0
2825,43.67,7.66,14.81,0
2826,43.68,5.46,8.21,0
2827,43.69,7.27,9.98,0
2828,43.71,4.46,18.78,0
2829,43.72,-2.84,29.58,0
2830,43.73,-8.65,33.67,0
2831,43.75,-8.25,21.46,0
2832,43.76,-1.43,5.95,0
2833,43.77,2.8,5.74,0
2834,43.79,2.12,13.81,0
2835,43.8,4.7,16.22,0
2836,43.81,3.7,15.93,0
2837,43.83,-6.34,20.64,0
2838,43.84,-7.65,28.56,0
2839,43.85,4.08,31.86,0
2840,43.87,9.14,28.16,0
2841,43.88,2.44,25.56,0
2842,43.89,-4.63,25.36,0
2843,43.9,-3.85,20.05,0
2844,43.92,5.79,17.49,0
2845,43.93,12.19,27.3,0
2846,43.94,5.15,31.16,0
2847,43.96,-6.9,20.97,0
2848,43.97,-14.88,16.28,0
2849,43.99,-16.53,16.04,0
2850,44.0,-5.82,12.13,0
2851,44.01,9.23,16.57,0
2852,44.03,6.74,23.25,0
2853,44.04,-7.41,18.8,0
2854,44.05,-13.35,15.53,0
2855,44.06,-16.78,20.39,0
2856,44.08,-20.77,21.31,0
2857,44.09,-11.09,15.17,0
2858,44.11,3.93,11.22,1
2859,44.12,4.36,13.94,1
2860,44.13,-1.16,20.8,1
2861,44.15,3.92,40.91,1
2862,44.16,11.87,109.36,1
2863,44.17,7.99,235.0,1
2864,44.19,-5.34,354.65,1
2865,44.2,-13.01,403.08,1
2866,44.21,-14.14,380.94,1
2867,44.22,-24.08,319.97,1
2868,44.24,-37.8,227.31,1
2869,44.25,-31.57,101.73,1
2870,44.27,-11.22,-14.69,1
2871,44.28,-6.1,-84.2,1
2872,44.29,-17.94,-137.11,1
2873,44.31,-20.98,-204.85,1
2874,44.32,-5.95,-260.63,1
2875,44.33,9.63,-271.17,1
2876,44.35,11.71,-249.95,1
2877,44.36,8.59,-227.85,1
2878,44.37,10.88,-204.13,1
2879,44.38,14.84,-171.53,1
2880,44.4,15.78,-148.47,1
2881,44.41,17.38,-145.73,1
2882,44.43,20.31,-145.32,1
2883,44.44,16.54,-133.61,1
2884,44.45,6.62,-106.21,1
2885,44.47,3.17,-65.09,1
2886,44.48,8.77,-40.53,1
2887,44.49,10.49,-56.05,1
2888,44.51,5.57,-84.91,1
2889,44.52,4.73,-94.54,1
2890,44.53,3.29,-86.53,1
2891,44.54,-3.99,-73.14,1
2892,44.56,0.08,-62.23,1
2893,44.57,17.94,-57.91,1
2894,44.58,24.68,-54.85,1
2895,44.6,10.93,-46.06,1
2896,44.61,-2.3,-33.65,1
2897,44.63,0.01,-21.56,1
2898,44.64,4.28,-8.47,1
2899,44.65,-0.37,2.84,1
2900,44.67,-3.57,7.11,1
2901,44.68,-0.41,7.89,1
2902,44.69,-0.53,9.38,1
2903,44.71,-6.87,10.96,1
2904,44.72,-9.72,16.48,1
2905,44.73,-4.09,27.39,1
2906,44.75,1.56,32.08,1
2907,44.76,2.25,21.73,1
2908,44.77,1.26,10.12,1
2909,44.79,-2.51,15.35,1
2910,44.8,-3.79,33.8,1
2911,44.81,4.73,45.43,1
2912,44.83,11.04,39.45,1
2913,44.84,5.39,29.73,1
2914,44.85,-1.91,33.67,1
2915,44.87,-3.95,45.83,1
2916,44.88,-3.3,53.42,1
2917,44.89,-0.48,53.68,1
2918,44.9,0.08,47.77,1
2919,44.92,-8.08,43.78,0
2920,44.93,-18.03,46.99,0
2921,44.95,-15.83,46.55,0
2922,44.96,-4.89,40.72,0
2923,44.97,-1.02,42.95,0
2924,44.99,-2.71,50.37,0
2925,45.0,3.31,48.04,0
2926,45.01,11.23,36.79,0
2927,45.03,8.49,32.42,0
2928,45.04,1.25,43.31,0
2929,45.05,1.14,56.42,0
2930,45.06,6.0,57.25,0
2931,45.08,4.11,49.95,0
2932,45.09,-7.46,44.38,0
2933,45.11,-15.62,37.55,0
2934,45.12,-11.6,26.13,0
2935,45.13,-5.3,21.97,0
2936,45.15,-7.6,30.57,0
2937,45.16,-9.53,34.19,0
2938,45.17,-1.92,27.13,0
2939,45.19,2.46,26.22,0
2940,45.2,-5.3,34.88,0
2941,45.21,-10.12,40.22,0
2942,45.22,-1.05,34.45,0
2943,45.24,5.79,22.63,0
2944,45.25,-2.2,15.3,0
2945,45.26,-8.51,14.19,0
2946,45.28,-2.05,18.04,0
2947,45.29,2.25,30.01,0
2948,45.31,-1.37,40.41,0
2949,45.32,-0.94,32.95,0
2950,45.33,-0.02,16.97,0
2951,45.35,-5.31,12.58,0
2952,45.36,-2.59,11.96,0
2953,45.37,7.23,5.62,0
2954,45.38,3.56,6.05,0
2955,45.4,-5.82,6.96,0
2956,45.41,-0.49,-6.04,0
2957,45.43,10.17,-13.01,0
2958,45.44,9.42,-4.4,0
2959,45.45,-2.09,-0.92,0
2960,45.47,-13.79,-2.1,0
2961,45.48,-14.16,1.12,0
2962,45.49,-4.75,-1.66,0
2963,45.51,2.63,-13.85,0
2964,45.52,7.66,-22.08,0
2965,45.53,12.86,-16.39,0
2966,45.54,9.38,-8.14,0
2967,45.56,-1.32,-11.68,0
2968,45.57,-5.0,-14.97,0
2969,45.59,0.72,-10.38,0
2970,45.6,6.01,-10.51,0
2971,45.61,4.38,-10.59,0
2972,45.63,-3.84,-3.73,0
2973,45.64,-11.16,-5.24,0
2974,45.65,-12.56,-17.79,0
2975,45.67,-9.3,-23.11,0
2976,45.68,-0.59,-14.41,0
2977,45.69,7.16,-4.55,0
2978,45.71,3.48,-3.67,0
2979,45.72,-5.69,-9.06,0
2980,45.73,-7.04,-12.95,0
2981,45.75,-1.02,-12.46,0
2982,45.76,4.19,-12.46,0
2983,45.77,9.3,-16.77,0
2984,45.79,16.54,-25.34,0
2985,45.8,18.85,-33.97,0
2986,45.81,14.06,-33.4,0
2987,45.83,6.23,-25.92,0
2988,45.84,-1.13,-17.94,0
2989,45.85,-0.31,-7.79,0
2990,45.86,7.42,-5.47,0
2991,45.88,6.71,-15.59,0
2992,45.89,-4.99,-21.81,0
2993,45.9,-13.01,-23.42,0
2994,45.92,-11.61,-28.26,0
2995,45.93,-4.2,-24.15,0
2996,45.95,3.62,-11.37,0
2997,45.96,2.6,-9.9,0
2998,45.97,-2.08,-11.43,0
2999,45.99,0.88,0.54,0
3000,46.0,0.26,2.59,0
3001,46.01,-9.67,-17.15,0
3002,46.03,-8.86,-25.38,0
3003,46.04,4.0,-15.1,0
3004,46.05,2.9,-10.73,0
3005,46.06,-17.46,-12.25,0
3006,46.08,-32.88,-14.21,0
3007,46.09,-24.65,-18.93,0
3008,46.11,1.1,-18.9,1
3009,46.12,19.3,-16.22,1
3010,46.13,13.69,-18.91,1
3011,46.15,-0.02,-21.29,1
3012,46.16,-0.03,-23.97,1
3013,46.17,9.21,-30.49,1
3014,46.19,13.78,-33.85,1
3015,46.2,10.34,-35.18,1
3016,46.21,7.67,-25.19,1
3017,46.22,15.01,46.7,1
3018,46.24,26.42,185.9,1
3019,46.25,26.27,284.28,1
3020,46.27,17.79,267.28,1
3021,46.28,36.3,218.86,1
3022,46.29,70.86,210.29,1
3023,46.31,39.36,144.21,1
3024,46.32,-43.02,10.07,1
3025,46.33,-68.64,-2.11,1
3026,46.35,-43.89,126.16,1
3027,46.36,-26.69,190.46,1
3028,46.37,-3.23,106.36,1
3029,46.38,23.99,-21.69,1
3030,46.4,22.77,-71.34,1
3031,46.41,-7.83,-41.96,1
3032,46.43,-27.66,-44.7,1
3033,46.44,-3.03,-126.27,1
3034,46.45,24.7,-183.16,1
3035,46.47,11.69,-146.0,1
3036,46.48,3.75,-102.58,1
3037,46.49,28.79,-140.16,1
3038,46.5,36.52,-227.8,1
3039,46.52,12.07,-278.77,1
3040,46.53,-20.21,-237.34,1
3041,46.54,-44.84,-153.58,1
3042,46.56,-34.02,-139.31,1
3043,46.57,-3.0,-171.73,1
3044,46.59,-12.48,-132.21,1
3045,46.6,-50.59,-50.47,1
3046,46.61,-36.82,-31.63,1
3047,46.63,20.31,-63.86,1
3048,46.64,18.9,-77.81,1
3049,46.65,-30.81,-51.73,1
3050,46.67,-36.25,-26.42,1
3051,46.68,-14.77,-68.22,1
3052,46.69,-11.74,-155.18,1
3053,46.71,-10.32,-174.95,1
3054,46.72,-10.32,-111.74,1
3055,46.73,-1.78,-65.19,1
3056,46.75,37.19,-78.01,1
3057,46.76,55.94,-85.77,1
3058,46.77,18.66,-35.36,1
3059,46.79,-11.84,19.75,1
3060,46.8,2.23,23.98,1
3061,46.81,13.12,8.29,1
3062,46.83,-5.34,0.01,1
3063,46.84,-16.96,6.13,1
3064,46.85,-6.31,45.49,1
3065,46.87,-0.75,72.04,1
3066,46.88,-2.68,40.42,1
3067,46.89,12.27,3.09,1
3068,46.9,40.36,-1.65,1
3069,46.92,51.43,17.4,0
3070,46.93,32.57,40.2,0
3071,46.95,4.88,32.36,0
3072,46.96,-15.08,29.01,0
3073,46.97,-34.32,83.87,0
3074,46.99,-43.72,135.5,0
3075,47.0,-22.19,117.53,0
3076,47.01,15.34,78.78,0
3077,47.03,29.54,79.61,0
3078,47.04,12.94,87.4,0
3079,47.05,-7.02,61.3,0
3080,47.06,-9.85,37.29,0
3081,47.08,2.41,30.78,0
3082,47.09,11.8,19.5,0
3083,47.11,14.48,31.75,0
3084,47.12,27.67,56.2,0
3085,47.13,39.66,41.29,0
3086,47.14,17.99,33.43,0
3087,47.16,-24.88,71.29,0
3088,47.17,-51.59,101.73,0
3089,47.18,-47.57,88.78,0
3090,47.2,-10.13,61.23,0
3091,47.21,31.37,55.54,0
3092,47.22,29.86,43.3,0
3093,47.24,1.96,7.15,0
3094,47.25,-4.8,1.66,0
3095,47.27,6.65,37.6,0
3096,47.28,4.93,58.98,0
3097,47.29,-16.43,43.0,0
3098,47.31,-28.14,26.1,0
3099,47.32,-8.01,34.73,0
3100,47.33,12.71,58.57,0
3101,47.35,2.64,80.76,0
3102,47.36,-10.43,75.44,0
3103,47.37,-8.21,24.81,0
3104,47.38,-17.04,-39.22,0
3105,47.4,-35.6,-48.53,0
3106,47.41,-25.13,1.07,0
3107,47.43,19.0,14.17,0
3108,47.44,46.97,-24.78,0
3109,47.45,29.97,-9.68,0
3110,47.47,-0.79,61.44,0
3111,47.48,-18.78,70.46,0
3112,47.49,-21.35,20.99,0
3113,47.51,-7.15,16.28,0
3114,47.52,5.95,45.57,0
3115,47.53,1.75,56.99,0
3116,47.54,-0.88,66.41,0
3117,47.56,10.1,76.48,0
3118,47.57,9.42,68.74,0
3119,47.59,-10.38,44.43,0
3120,47.6,-13.31,15.31,0
3121,47.61,3.81,-2.12,0
3122,47.63,-1.48,8.36,0
3123,47.64,-22.47,41.31,0
3124,47.65,-15.13,67.49,0
3125,47.67,6.27,70.48,0
3126,47.68,2.24,48.99,0
3127,47.69,-15.22,0.65,0
3128,47.71,-16.78,-28.91,0
3129,47.72,-5.08,6.59,0
3130,47.73,10.47,47.8,0
3131,47.75,24.58,36.1,0
3132,47.76,20.84,3.36,0
3133,47.77,3.58,-24.77,0
3134,47.78,2.41,-49.05,0
3135,47.8,27.02,-56.31,0
3136,47.81,48.11,-41.54,0
3137,47.82,22.01,-21.86,0
3138,47.84,-36.75,-13.19,0
3139,47.85,-47.2,-5.69,0
3140,47.86,-3.96,7.18,0
3141,47.88,15.58,1.58,0
3142,47.89,5.9,-24.26,0
3143,47.9,4.51,-40.36,0
3144,47.92,2.49,-41.61,0
3145,47.93,-8.78,-35.35,0
3146,47.95,-14.78,-21.47,0
3147,47.96,-9.13,-35.09,0
3148,47.97,0.6,-80.31,0
3149,47.99,6.23,-69.43,0
3150,48.0,6.2,7.45,0
3151,48.01,-4.08,17.81,0
3152,48.03,-21.7,-73.99,0
3153,48.04,-23.0,-121.76,0
3154,48.05,-8.21,-68.57,0
3155,48.06,-10.89,-28.08,0
3156,48.08,-26.53,-6.84,0
3157,48.09,-11.15,65.42,0
3158,48.11,26.75,99.31,1
3159,48.12,21.03,20.24,1
3160,48.13,-29.52,-62.78,1
3161,48.15,-45.9,-56.74,1
3162,48.16,-5.13,-14.54,1
3163,48.17,34.89,-6.17,1
3164,48.19,35.62,-11.33,1
3165,48.2,11.08,-22.84,1
3166,48.21,-1.38,-67.98,1
3167,48.22,14.6,-92.32,1
3168,48.24,28.67,-58.3,1
3169,48.25,16.28,-29.29,1
3170,48.27,-1.16,-46.72,1
3171,48.28,-6.57,-95.53,1
3172,48.29,-6.01,-151.64,1
3173,48.31,4.44,-188.39,1
3174,48.32,22.47,-192.97,1
3175,48.33,30.66,-174.01,1
3176,48.35,28.77,-143.1,1
3177,48.36,27.13,-105.12,1
3178,48.37,21.96,-56.66,1
3179,48.38,7.98,2.96,1
3180,48.4,-4.66,60.01,1
3181,48.41,-7.08,96.26,1
3182,48.42,-5.45,105.64,1
3183,48.44,-2.55,100.42,1
3184,48.45,4.4,102.05,1
3185,48.46,4.56,114.47,1
3186,48.48,-8.58,113.95,1
3187,48.49,-17.1,91.92,1
3188,48.5,-15.87,72.4,1
3189,48.52,-17.59,66.12,1
3190,48.53,-15.85,61.11,1
3191,48.54,0.34,51.16,1
3192,48.56,22.75,36.11,1
3193,48.57,27.8,21.13,1
3194,48.59,0.25,18.28,1
3195,48.6,-29.43,30.56,1
3196,48.61,-22.65,44.96,1
3197,48.63,-2.41,43.64,1
3198,48.64,-4.6,28.03,1
3199,48.65,-12.59,23.33,1
3200,48.67,-1.93,37.28,1
3201,48.68,13.46,45.75,1
3202,48.69,8.7,36.82,1
3203,48.71,-15.93,24.81,1
3204,48.72,-32.78,21.28,1
3205,48.73,-20.74,23.69,1
3206,48.75,4.5,24.48,1
3207,48.76,8.96,18.47,1
3208,48.77,-10.3,8.0,1
3209,48.79,-23.01,1.13,1
3210,48.8,-19.35,-1.68,1
3211,48.81,-15.15,-2.66,1
3212,48.83,-13.4,1.65,1
3213,48.84,-6.33,4.54,1
3214,48.85,3.04,-0.9,1
3215,48.87,2.23,-5.07,1
3216,48.88,-8.21,-0.49,1
3217,48.89,-13.16,4.89,1
3218,48.9,-8.43,1.52,1
3219,48.92,0.92,-9.55,0
3220,48.93,9.69,-19.19,0
3221,48.95,9.93,-17.66,0
3222,48.96,1.62,-6.37,0
3223,48.97,-2.88,-1.34,0
3224,48.99,3.17,-9.57,0
3225,49.0,13.27,-18.84,0
3226,49.01,15.89,-19.93,0
3227,49.03,5.71,-16.01,0
3228,49.04,-5.1,-15.37,0
3229,49.05,-5.04,-23.6,0
3230,49.06,-0.97,-36.27,0
3231,49.08,-0.53,-43.65,0
3232,49.09,0.84,-36.58,0
3233,49.1,4.07,-17.56,0
3234,49.12,1.94,-8.36,0
3235,49.13,-6.87,-19.21,0
3236,49.14,-10.4,-28.96,0
3237,49.16,1.47,-22.11,0
3238,49.17,15.67,-10.06,0
3239,49.19,11.65,-6.66,0
3240,49.2,-1.57,-10.17,0
3241,49.21,2.27,-8.91,0
3242,49.22,14.05,-3.17,0
3243,49.24,1.47,-5.08,0
3244,49.25,-21.41,-9.49,0
3245,49.27,-13.36,-6.4,0
3246,49.28,17.03,-8.83,0
3247,49.29,30.48,-22.35,0
3248,49.31,21.94,-28.13,0
3249,49.32,7.31,-21.39,0
3250,49.33,-3.63,-14.8,0
3251,49.35,-1.42,-11.98,0
3252,49.36,6.29,-15.91,0
3253,49.37,1.4,-24.48,0
3254,49.38,-8.02,-17.41,0
3255,49.4,-0.64,7.5,0
3256,49.41,14.67,19.4,0
3257,49.43,9.64,5.21,0
3258,49.44,-8.44,-12.22,0
3259,49.45,-7.39,-16.92,0
3260,49.47,7.77,-14.83,0
3261,49.48,11.73,-12.79,0
3262,49.49,9.05,-12.43,0
3263,49.51,12.06,-11.5,0
3264,49.52,15.9,-9.06,0
3265,49.53,10.68,-6.4,0
3266,49.54,-2.64,3.76,0
3267,49.56,-6.99,17.86,0
3268,49.57,-0.63,10.31,0
3269,49.59,-4.0,-14.43,0
3270,49.6,-13.13,-18.47,0
3271,49.61,-4.08,-2.72,0
3272,49.63,14.69,1.14,0
3273,49.64,14.84,-7.0,0
3274,49.65,2.04,-10.13,0
3275,49.67,0.23,-5.72,0
3276,49.68,5.1,4.91,0
3277,49.69,2.81,15.91,0
3278,49.7,0.62,15.96,0
3279,49.72,5.71,7.09,0
3280,49.73,6.52,-0.88,0
3281,49.74,-2.13,-0.58,0
3282,49.76,-6.03,5.24,0
3283,49.77,1.45,2.56,0
3284,49.78,5.01,-1.2,0
3285,49.8,-7.99,10.21,0
3286,49.81,-22.61,18.27,0
3287,49.83,-18.17,8.65,0
3288,49.84,-4.09,4.85,0
3289,49.85,0.44,12.57,0
3290,49.87,-1.52,7.98,0
3291,49.88,-2.16,-7.63,0
3292,49.89,-6.28,-12.87,0
3293,49.9,-11.51,-4.38,0
3294,49.92,-5.52,9.37,0
3295,49.93,4.16,23.26,0
3296,49.95,-2.65,28.37,0
3297,49.96,-13.43,14.1,0
3298,49.97,-2.3,-8.12,0
3299,49.99,12.37,-13.31,0
3300,50.0,6.98,-1.72,0
3301,50.01,3.61,4.62,0
3302,50.03,12.34,0.37,0
3303,50.04,7.53,-0.37,0
3304,50.05,-11.92,7.06,0
3305,50.06,-19.66,16.84,0
3306,50.08,-10.01,23.08,0
3307,50.09,-7.01,17.48,0
3308,50.11,-17.62,3.5,1
3309,50.12,-12.19,-2.72,1
3310,50.13,11.88,2.0,1
3311,50.15,18.94,4.72,1
3312,50.16,7.93,-15.22,1
3313,50.17,8.32,-66.6,1
3314,50.19,16.73,-116.2,1
3315,50.2,5.43,-129.63,1
3316,50.21,-15.26,-128.04,1
3317,50.22,-4.97,-138.25,1
3318,50.24,25.54,-146.78,1
3319,50.25,27.95,-140.28,1
3320,50.27,7.98,-120.86,1
3321,50.28,12.42,-95.24,1
3322,50.29,40.02,-75.63,1
3323,50.31,44.7,-55.89,1
3324,50.32,25.91,-22.6,1
3325,50.33,24.09,11.96,1
3326,50.34,35.1,38.11,1
3327,50.36,24.39,62.46,1
3328,50.37,-2.9,87.54,1
3329,50.38,-21.32,113.29,1
3330,50.4,-37.27,133.13,1
3331,50.41,-56.6,140.5,1
3332,50.42,-48.55,147.94,1
3333,50.44,-10.75,161.3,1
3334,50.45,1.09,163.03,1
3335,50.46,-33.62,150.11,1
3336,50.48,-58.83,138.79,1
3337,50.49,-44.76,133.55,1
3338,50.51,-35.36,135.79,1
3339,50.52,-43.8,148.14,1
3340,50.53,-31.39,155.1,1
3341,50.54,-8.01,141.05,1
3342,50.56,-4.9,117.34,1
3343,50.57,-7.94,100.03,1
3344,50.59,-6.56,89.73,1
3345,50.6,-3.84,83.44,1
3346,50.61,7.43,74.46,1
3347,50.63,12.66,59.27,1
3348,50.64,-1.95,50.08,1
3349,50.65,-10.9,45.53,1
3350,50.67,-8.45,31.45,1
3351,50.68,-11.19,19.3,1
3352,50.69,-3.02,18.46,1
3353,50.71,15.16,9.36,1
3354,50.72,17.41,-5.02,1
3355,50.73,10.07,-2.69,1
3356,50.75,7.21,4.26,1
3357,50.76,7.11,-1.73,1
3358,50.77,1.51,-16.35,1
3359,50.79,-1.24,-31.2,1
3360,50.8,18.16,-33.22,1
3361,50.81,32.56,-24.93,1
3362,50.83,7.71,-26.19,1
3363,50.84,-11.95,-33.81,1
3364,50.85,18.1,-36.94,1
3365,50.87,39.95,-41.99,1
3366,50.88,6.91,-48.86,1
3367,50.89,-20.33,-52.75,1
3368,50.9,-3.87,-56.81,1
3369,50.92,10.27,-57.24,0
3370,50.93,0.43,-50.85,0
3371,50.95,-8.74,-48.99,0
3372,50.96,-6.17,-56.6,0
3373,50.97,1.11,-62.56,0
3374,50.98,4.1,-59.52,0
3375,51.0,-2.81,-55.24,0
3376,51.01,-11.14,-57.77,0
3377,51.02,-7.63,-62.13,0
3378,51.04,6.6,-65.43,0
3379,51.05,18.04,-69.01,0
3380,51.06,13.91,-65.62,0
3381,51.08,-0.56,-55.34,0
3382,51.09,-1.58,-51.66,0
3383,51.1,12.28,-56.49,0
3384,51.12,16.06,-57.51,0
3385,51.13,6.01,-47.75,0
3386,51.15,0.58,-33.61,0
3387,51.16,4.65,-32.58,0
3388,51.17,6.93,-48.13,0
3389,51.19,0.95,-54.61,0
3390,51.2,-8.42,-41.07,0
3391,51.21,-16.27,-36.09,0
3392,51.22,-19.84,-50.31,0
3393,51.24,-12.78,-53.01,0
3394,51.25,6.94,-33.19,0
3395,51.27,21.85,-17.93,0
3396,51.28,14.99,-23.11,0
3397,51.29,4.74,-32.6,0
3398,51.31,10.4,-28.85,0
3399,51.32,11.87,-17.88,0
3400,51.33,-3.48,-14.01,0
3401,51.35,-11.98,-17.52,0
3402,51.36,-0.61,-19.85,0
3403,51.37,10.99,-18.7,0
3404,51.38,9.02,-19.2,0
3405,51.4,7.62,-20.62,0
3406,51.41,17.1,-16.99,0
3407,51.43,19.94,-13.66,0
3408,51.44,2.98,-17.54,0
3409,51.45,-10.0,-18.83,0
3410,51.47,-2.1,-7.66,0
3411,51.48,2.41,5.02,0
3412,51.49,-5.5,3.85,0
3413,51.51,-4.6,-5.03,0
3414,51.52,5.18,-4.08,0
3415,51.53,6.22,3.85,0
3416,51.54,-0.09,2.53,0
3417,51.56,-1.15,-1.96,0
3418,51.57,-1.67,5.57,0
3419,51.59,-10.52,13.62,0
3420,51.6,-15.68,8.23,0
3421,51.61,-6.15,4.92,0
3422,51.62,5.36,15.82,0
3423,51.64,3.12,19.97,0
3424,51.65,-6.74,4.42,0
3425,51.66,-6.23,-6.0,0
3426,51.68,5.54,6.27,0
3427,51.69,11.68,21.31,0
3428,51.7,3.58,17.62,0
3429,51.72,-9.25,5.63,0
3430,51.73,-13.13,5.97,0
3431,51.74,-4.75,14.49,0
3432,51.76,9.47,14.51,0
3433,51.77,15.28,9.3,0
3434,51.79,4.44,10.17,0
3435,51.8,-9.66,11.07,0
3436,51.81,-12.88,6.96,0
3437,51.83,-7.67,8.93,0
3438,51.84,-2.32,19.89,0
3439,51.85,-1.47,24.04,0
3440,51.87,-1.43,14.98,0
3441,51.88,1.61,9.06,0
3442,51.89,-0.19,16.2,0
3443,51.9,-9.19,22.73,0
3444,51.92,-10.49,19.76,0
3445,51.93,1.45,19.07,0
3446,51.95,10.0,26.93,0
3447,51.96,6.01,29.57,0
3448,51.97,0.14,17.13,0
3449,51.99,1.29,4.61,0
3450,52.0,9.5,13.24,0
3451,52.01,18.13,31.81,0
3452,52.03,17.61,30.59,0
3453,52.04,8.74,12.99,0
3454,52.05,-0.19,6.74,0
3455,52.06,-6.78,14.71,0
3456,52.08,-14.9,21.87,0
3457,52.09,-23.63,24.62,0
3458,52.11,-23.11,24.53,1
3459,52.12,-7.91,19.83,1
3460,52.13,9.24,11.37,1
3461,52.15,12.11,9.24,1
3462,52.16,6.11,34.75,1
3463,52.17,11.28,103.86,1
3464,52.19,25.59,204.2,1
3465,52.2,21.86,291.04,1
3466,52.21,-4.61,324.8,1
3467,52.22,-24.23,308.68,1
3468,52.24,-26.27,266.55,1
3469,52.25,-26.7,206.4,1
3470,52.26,-30.45,131.05,1
3471,52.28,-29.84,59.15,1
3472,52.29,-21.95,1.29,1
3473,52.3,-18.35,-53.89,1
3474,52.32,-31.15,-110.22,1
3475,52.33,-42.12,-156.91,1
3476,52.34,-24.12,-190.52,1
3477,52.36,9.52,-212.99,1
3478,52.37,26.46,-218.02,1
3479,52.38,21.4,-200.51,1
3480,52.4,10.15,-173.45,1
3481,52.41,6.09,-160.53,1
3482,52.43,10.49,-167.11,1
3483,52.44,18.59,-167.88,1
3484,52.45,27.96,-144.77,1
3485,52.47,30.38,-116.74,1
3486,52.48,18.16,-104.61,1
3487,52.49,3.92,-98.68,1
3488,52.51,0.57,-90.5,1
3489,52.52,0.17,-92.08,1
3490,52.53,-1.59,-101.79,1
3491,52.54,6.23,-98.27,1
3492,52.56,23.08,-78.47,1
3493,52.57,27.85,-60.58,1
3494,52.59,11.61,-46.32,1
3495,52.6,-7.15,-26.01,1
3496,52.61,-11.39,-10.28,1
3497,52.63,-4.54,-13.85,1
3498,52.64,2.54,-24.85,1
3499,52.65,5.87,-22.57,1
3500,52.67,9.12,-11.69,1
3501,52.68,15.13,-9.6,1
3502,52.69,17.56,-9.83,1
3503,52.71,7.22,0.99,1
3504,52.72,-14.66,12.95,1
3505,52.73,-32.49,16.77,1
3506,52.75,-24.57,20.51,1
3507,52.76,7.65,27.0,1
3508,52.77,28.56,25.3,1
3509,52.79,16.63,15.59,1
3510,52.8,0.93,18.86,1
3511,52.81,11.15,39.59,1
3512,52.83,24.67,46.06,1
3513,52.84,13.54,29.06,1
3514,52.85,-2.27,23.81,1
3515,52.87,-2.53,37.06,1
3516,52.88,-6.56,38.61,1
3517,52.89,-17.58,30.71,1
3518,52.9,-10.49,38.22,1
3519,52.92,5.04,54.02,0
3520,52.93,-0.55,57.15,0
3521,52.94,-17.84,48.64,0
3522,52.96,-20.81,38.06,0
3523,52.97,-9.72,32.81,0
3524,52.98,-0.68,36.53,0
3525,53.0,0.28,45.85,0
3526,53.01,-1.17,54.06,0
3527,53.02,-2.51,55.23,0
3528,53.04,-4.74,46.87,0
3529,53.05,-6.58,32.87,0
3530,53.06,-6.26,23.74,0
3531,53.08,-2.69,27.88,0
3532,53.09,1.31,42.75,0
3533,53.11,2.15,51.56,0
3534,53.12,1.81,40.6,0
3535,53.13,2.69,26.19,0
3536,53.15,1.82,27.58,0
3537,53.16,-7.24,32.07,0
3538,53.17,-17.48,30.68,0
3539,53.19,-9.66,33.4,0
3540,53.2,9.47,39.5,0
3541,53.21,13.9,37.33,0
3542,53.22,1.24,25.28,0
3543,53.24,-7.73,17.93,0
3544,53.25,1.06,30.4,0
3545,53.27,12.8,48.15,0
3546,53.28,4.06,45.99,0
3547,53.29,-14.66,29.48,0
3548,53.31,-16.17,20.91,0
3549,53.32,-4.59,25.05,0
3550,53.33,-2.4,26.33,0
3551,53.35,-9.49,15.86,0
3552,53.36,-8.47,6.94,0
3553,53.37,4.1,9.72,0
3554,53.38,12.65,13.01,0
3555,53.4,5.95,8.44,0
3556,53.41,-6.81,7.3,0
3557,53.43,-8.23,15.97,0
3558,53.44,2.19,15.94,0
3559,53.45,6.35,-3.12,0
3560,53.47,-0.84,-13.78,0
3561,53.48,-3.57,3.48,0
3562,53.49,-1.7,20.23,0
3563,53.51,-8.2,12.31,0
3564,53.52,-12.65,-2.8,0
3565,53.53,-7.25,-7.37,0
3566,53.54,-6.15,-8.7,0
3567,53.56,-6.08,-13.66,0
3568,53.57,2.81,-15.54,0
3569,53.58,6.48,-13.02,0
3570,53.6,-2.93,-14.49,0
3571,53.61,-9.31,-19.58,0
3572,53.62,-2.22,-17.61,0
3573,53.64,5.72,-7.41,0
3574,53.65,1.56,-0.36,0
3575,53.66,-7.35,-0.4,0
3576,53.68,-7.57,-1.56,0
3577,53.69,0.42,-4.56,0
3578,53.7,6.35,-14.87,0
3579,53.72,4.65,-26.14,0
3580,53.73,3.59,-25.56,0
3581,53.75,5.43,-19.94,0
3582,53.76,-2.7,-25.6,0
3583,53.77,-12.64,-36.84,0
3584,53.79,-5.13,-41.21,0
3585,53.8,6.79,-36.28,0
3586,53.81,6.08,-24.15,0
3587,53.83,-1.0,-20.73,0
3588,53.84,-5.86,-30.78,0
3589,53.85,-5.12,-28.13,0
3590,53.87,-1.02,-13.42,0
3591,53.88,-2.1,-16.26,0
3592,53.89,-7.4,-30.32,0
3593,53.9,-6.15,-32.13,0
3594,53.92,2.23,-25.38,0
3595,53.93,12.29,-16.11,0
3596,53.95,18.64,-5.12,0
3597,53.96,12.58,-3.34,0
3598,53.97,1.33,-9.46,0
3599,53.99,1.75,-10.08,0
3600,54.0,7.02,-9.14,0
3601,54.01,6.52,-14.05,0
3602,54.03,8.25,-14.2,0
3603,54.04,10.41,-5.1,0
3604,54.05,4.48,1.42,0
3605,54.06,-3.11,-2.2,0
3606,54.08,-11.31,-12.51,0
3607,54.09,-17.56,-14.24,0
3608,54.11,-9.2,-4.39,1
3609,54.12,5.04,-8.09,1
3610,54.13,6.27,-22.79,1
3611,54.15,-0.17,-17.52,1
3612,54.16,-0.94,-13.57,1
3613,54.17,2.37,-40.38,1
3614,54.18,6.64,-36.35,1
3615,54.2,13.58,61.05,1
3616,54.21,13.75,177.6,1
3617,54.22,3.11,198.25,1
3618,54.24,8.23,150.22,1
3619,54.25,41.09,114.13,1
3620,54.26,52.11,110.84,1
3621,54.28,11.49,155.34,1
3622,54.29,-30.6,175.27,1
3623,54.3,-38.31,109.72,1
3624,54.32,-24.71,46.2,1
3625,54.33,-1.08,-24.94,1
3626,54.34,14.51,-121.24,1
3627,54.36,17.53,-96.59,1
3628,54.37,20.12,16.65,1
3629,54.38,-7.31,46.31,1
3630,54.4,-60.39,2.78,1
3631,54.41,-46.04,-51.1,1
3632,54.43,42.94,-105.99,1
3633,54.44,86.03,-131.14,1
3634,54.45,44.74,-129.16,1
3635,54.47,-6.05,-132.71,1
3636,54.48,-21.96,-138.47,1
3637,54.49,-10.38,-148.45,1
3638,54.51,-7.72,-149.32,1
3639,54.52,-40.51,-98.91,1
3640,54.53,-60.6,-61.35,1
3641,54.54,-21.15,-125.29,1
3642,54.56,27.87,-197.34,1
3643,54.57,20.0,-152.24,1
3644,54.59,-23.36,-73.69,1
3645,54.6,-43.96,-96.46,1
3646,54.61,-32.99,-148.54,1
3647,54.63,-7.26,-120.55,1
3648,54.64,14.13,-69.77,1
3649,54.65,12.34,-56.11,1
3650,54.67,-1.04,-67.5,1
3651,54.68,0.96,-81.26,1
3652,54.69,21.52,-40.64,1
3653,54.71,28.72,46.58,1
3654,54.72,2.34,45.42,1
3655,54.73,-15.89,-44.25,1
3656,54.75,3.22,-52.4,1
3657,54.76,16.23,2.56,1
3658,54.77,-3.71,-9.1,1
3659,54.79,-22.72,-35.85,1
3660,54.8,-16.18,-31.94,1
3661,54.81,1.32,-43.13,1
3662,54.82,5.25,-31.06,1
3663,54.84,-8.73,27.36,1
3664,54.85,-12.42,73.19,1
3665,54.86,9.64,91.26,1
3666,54.88,30.58,75.12,1
3667,54.89,36.73,31.72,1
3668,54.9,36.59,41.75,1
3669,54.92,28.51,95.53,0
3670,54.93,9.95,82.64,0
3671,54.94,-6.53,32.35,0
3672,54.96,0.01,53.93,0
3673,54.97,13.1,108.27,0
3674,54.98,-1.18,98.08,0
3675,55.0,-20.17,39.61,0
3676,55.01,-6.7,24.32,0
3677,55.025000000000006,18.93,62.76,0
3678,55.04,16.09,60.47,0
3679,55.05,-10.82,31.8,0
3680,55.06,-24.48,63.99,0
3681,55.08,-17.11,95.18,0
3682,55.09,-7.73,63.58,0
3683,55.11,-3.93,34.78,0
3684,55.12,-2.99,42.46,0
3685,55.13,2.37,48.73,0
3686,55.15,9.34,25.3,0
3687,55.16,0.32,-8.94,0
3688,55.17,-18.85,8.93,0
3689,55.19,-16.78,75.44,0
3690,55.2,9.2,85.95,0
3691,55.21,13.17,43.23,0
3692,55.22,-9.68,35.9,0
3693,55.24,-2.2,31.42,0
3694,55.25,25.65,28.78,0
3695,55.27,16.11,83.94,0
3696,55.28,-10.23,116.36,0
3697,55.29,-7.81,81.0,0
3698,55.31,5.73,53.5,0
3699,55.32,6.42,40.98,0
3700,55.33,5.44,19.43,0
3701,55.35,-1.57,7.35,0
3702,55.36,-28.43,-9.9,0
3703,55.37,-45.14,-52.77,0
3704,55.38,-12.41,-70.79,0
3705,55.4,39.5,-27.48,0
3706,55.41,46.05,27.12,0
3707,55.43,16.01,61.02,0
3708,55.44,1.02,82.37,0
3709,55.45,3.09,47.11,0
3710,55.46,4.45,-35.59,0
3711,55.48,10.65,-48.84,0
3712,55.49,14.57,8.36,0
3713,55.5,-6.84,27.92,0
3714,55.52,-31.83,5.58,0
3715,55.53,-12.72,-26.17,0
3716,55.54,27.39,-52.82,0
3717,55.56,27.29,-7.58,0
3718,55.57,-6.86,87.19,0
3719,55.58,-28.27,116.02,0
3720,55.6,-23.06,76.76,0
3721,55.61,-7.25,22.49,0
3722,55.62,5.34,-37.69,0
3723,55.64,13.53,-72.87,0
3724,55.65,10.35,-57.97,0
3725,55.66,-4.9,-13.3,0
3726,55.68,-10.77,50.53,0
3727,55.69,-16.76,90.96,0
3728,55.71,-34.78,17.13,0
3729,55.72,-28.25,-92.85,0
3730,55.73,3.87,-63.89,0
3731,55.75,19.95,25.67,0
3732,55.76,17.62,23.69,0
3733,55.77,13.45,-9.27,0
3734,55.79,3.55,-1.11,0
3735,55.8,-11.87,16.08,0
3736,55.81,-20.58,26.44,0
3737,55.83,-26.14,45.93,0
3738,55.84,-38.23,39.34,0
3739,55.85,-29.39,-22.78,0
3740,55.87,16.39,-49.98,0
3741,55.88,30.65,-18.29,0
3742,55.89,-19.46,-18.38,0
3743,55.9,-49.5,-25.0,0
3744,55.92,-19.35,-31.44,0
3745,55.93,10.1,-105.78,0
3746,55.95,5.57,-141.72,0
3747,55.96,-6.46,-57.22,0
3748,55.97,-3.2,6.76,0
3749,55.99,5.46,-6.11,0
3750,56.0,17.92,-31.07,0
3751,56.01,44.33,-70.28,0
3752,56.03,42.1,-71.44,0
3753,56.04,-5.94,12.12,0
3754,56.05,-20.56,54.35,0
3755,56.06,8.18,2.44,0
3756,56.08,-4.13,-30.82,0
3757,56.09,-49.13,-8.08,0
3758,56.1,-51.15,4.68,1
3759,56.12,-16.78,-39.28,1
3760,56.13,2.76,-85.45,1
3761,56.14,10.64,-51.36,1
3762,56.16,20.56,2.96,1
3763,56.17,8.77,15.29,1
3764,56.18,-17.3,28.22,1
3765,56.2,-11.42,-6.42,1
3766,56.21,25.09,-128.77,1
3767,56.22,40.24,-204.21,1
3768,56.24,22.83,-156.19,1
3769,56.25,11.39,-68.0,1
3770,56.26,12.24,-17.83,1
3771,56.28,5.35,-27.58,1
3772,56.29,0.17,-68.82,1
3773,56.3,7.87,-95.11,1
3774,56.32,11.66,-109.66,1
3775,56.33,5.81,-123.03,1
3776,56.35,9.13,-107.03,1
3777,56.36,20.77,-53.95,1
3778,56.37,21.99,3.03,1
3779,56.38,13.51,43.91,1
3780,56.4,1.86,65.77,1
3781,56.41,-11.63,70.41,1
3782,56.43,-18.53,78.13,1
3783,56.44,-15.56,92.34,1
3784,56.45,-7.83,89.82,1
3785,56.47,1.48,73.85,1
3786,56.48,3.06,66.8,1
3787,56.49,-5.47,67.46,1
3788,56.51,-5.61,65.77,1
3789,56.52,3.99,64.35,1
3790,56.53,2.13,65.26,1
3791,56.54,-5.64,68.84,1
3792,56.56,-2.42,79.36,1
3793,56.57,-1.01,92.79,1
3794,56.59,-9.08,93.46,1
3795,56.6,-5.23,74.64,1
3796,56.61,14.73,53.31,1
3797,56.63,20.3,46.52,1
3798,56.64,2.2,47.74,1
3799,56.65,-11.39,45.4,1
3800,56.67,-7.72,35.78,1
3801,56.68,-1.78,20.59,1
3802,56.69,-2.39,10.54,1
3803,56.71,-4.14,14.02,1
3804,56.72,-1.57,24.9,1
3805,56.73,4.82,32.74,1
3806,56.74,8.55,33.93,1
3807,56.76,3.7,28.87,1
3808,56.77,-4.22,17.47,1
3809,56.78,-6.48,3.8,1
3810,56.8,-3.29,-2.6,1
3811,56.81,1.74,2.76,1
3812,56.82,0.84,11.91,1
3813,56.84,-11.63,11.38,1
3814,56.85,-20.94,-0.71,1
3815,56.86,-9.81,-10.08,1
3816,56.88,8.74,-10.51,1
3817,56.89,10.62,-7.55,1
3818,56.9,2.86,-4.3,1
3819,56.92,5.33,-8.21,0
3820,56.93,13.88,-19.79,0
3821,56.94,16.45,-22.06,0
3822,56.96,9.91,-14.26,0
3823,56.97,-2.35,-13.11,0
3824,56.99,-5.23,-18.6,0
3825,57.0,4.98,-22.93,0
3826,57.01,8.91,-24.98,0
3827,57.03,-3.64,-23.33,0
3828,57.04,-19.96,-20.79,0
3829,57.05,-21.75,-19.96,0
3830,57.06,-7.78,-17.4,0
3831,57.08,2.93,-15.95,0
3832,57.09,1.65,-15.86,0
3833,57.11,-2.29,-12.05,0
3834,57.12,-3.41,-14.02,0
3835,57.13,-0.08,-21.72,0
3836,57.15,5.83,-16.94,0
3837,57.16,7.17,-7.03,0
3838,57.17,5.09,-8.45,0
3839,57.19,1.87,-10.05,0
3840,57.2,-4.19,-4.37,0
3841,57.21,-1.18,-2.3,0
3842,57.22,12.93,-2.53,0
3843,57.24,12.83,-4.13,0
3844,57.25,-6.29,-19.75,0
3845,57.27,-15.62,-37.77,0
3846,57.28,-4.14,-31.93,0
3847,57.29,11.55,-11.59,0
3848,57.31,15.13,-2.04,0
3849,57.32,6.81,-5.21,0
3850,57.33,2.08,-11.2,0
3851,57.35,4.34,-16.66,0
3852,57.36,-1.95,-24.64,0
3853,57.37,-11.91,-29.49,0
3854,57.38,-5.96,-20.44,0
3855,57.4,4.73,-13.2,0
3856,57.41,2.11,-24.23,0
3857,57.42,-1.31,-32.32,0
3858,57.44,5.32,-22.77,0
3859,57.45,5.74,-8.27,0
3860,57.46,-8.93,6.23,0
3861,57.48,-16.45,12.42,0
3862,57.49,-2.86,-2.88,0
3863,57.5,10.28,-18.07,0
3864,57.52,5.82,-12.76,0
3865,57.53,-3.33,-7.03,0
3866,57.54,-5.17,-14.21,0
3867,57.56,-2.15,-22.57,0
3868,57.57,4.05,-20.14,0
3869,57.58,7.06,-4.14,0
3870,57.6,-4.34,8.46,0
3871,57.61,-17.4,0.28,0
3872,57.62,-6.58,-15.98,0
3873,57.64,15.36,-18.86,0
3874,57.65,15.87,-10.7,0
3875,57.67,3.1,-1.55,0
3876,57.68,-1.76,5.88,0
3877,57.69,-5.1,5.83,0
3878,57.71,-5.79,1.19,0
3879,57.72,7.37,2.06,0
3880,57.73,18.35,3.64,0
3881,57.75,8.41,-0.04,0
3882,57.76,-6.49,-6.48,0
3883,57.77,-5.74,-14.86,0
3884,57.79,3.94,-15.23,0
3885,57.8,6.81,-2.44,0
3886,57.81,2.39,5.49,0
3887,57.83,-0.89,3.74,0
3888,57.84,-0.88,2.43,0
3889,57.85,-0.31,-3.01,0
3890,57.87,-0.01,-6.27,0
3891,57.88,-3.28,6.73,0
3892,57.89,-8.66,21.68,0
3893,57.9,-6.86,19.21,0
3894,57.92,-0.35,8.59,0
3895,57.93,-4.3,7.38,0
3896,57.95,-16.46,9.79,0
3897,57.96,-16.78,1.4,0
3898,57.97,-3.37,-9.9,0
3899,57.99,9.35,-5.34,0
3900,58.0,17.57,13.59,0
3901,58.01,18.2,26.4,0
3902,58.02,4.71,24.21,0
3903,58.04,-12.28,17.98,0
3904,58.05,-11.57,14.23,0
3905,58.06,-0.99,3.25,0
3906,58.08,-12.73,-13.57,0
3907,58.09,-38.21,-13.96,0
3908,58.1,-36.66,4.28,1
3909,58.12,-7.21,17.01,1
3910,58.13,18.56,16.94,1
3911,58.14,23.92,15.23,1
3912,58.16,14.54,8.59,1
3913,58.17,4.98,-21.88,1
3914,58.18,4.61,-81.32,1
3915,58.2,13.03,-135.45,1
3916,58.21,20.58,-143.37,1
3917,58.22,4.89,-121.5,1
3918,58.24,-32.4,-115.81,1
3919,58.25,-46.63,-127.73,1
3920,58.26,-22.17,-128.57,1
3921,58.28,7.87,-113.08,1
3922,58.29,27.44,-96.31,1
3923,58.31,38.27,-83.8,1
3924,58.32,33.73,-71.92,1
3925,58.33,22.52,-52.16,1
3926,58.35,27.9,-15.85,1
3927,58.36,42.75,27.55,1
3928,58.37,38.92,60.54,1
3929,58.38,20.79,82.7,1
3930,58.4,10.09,102.31,1
3931,58.41,3.13,119.89,1
3932,58.43,-6.87,134.61,1
3933,58.44,-12.89,146.85,1
3934,58.45,-16.92,151.67,1
3935,58.47,-25.3,149.66,1
3936,58.48,-26.57,151.98,1
3937,58.49,-11.94,157.83,1
3938,58.51,-0.17,160.95,1
3939,58.52,-10.9,167.27,1
3940,58.53,-31.58,171.89,1
3941,58.54,-33.08,163.46,1
3942,58.56,-11.84,147.22,1
3943,58.57,-2.4,130.77,1
3944,58.59,-20.48,117.52,1
3945,58.6,-33.61,107.36,1
3946,58.61,-22.58,96.8,1
3947,58.63,-5.98,86.26,1
3948,58.64,1.56,72.57,1
3949,58.65,-1.64,55.8,1
3950,58.66,-10.95,48.29,1
3951,58.68,-12.83,45.61,1
3952,58.69,-4.26,34.79,1
3953,58.7,-0.28,28.3,1
3954,58.72,-7.09,27.88,1
3955,58.73,-10.89,12.68,1
3956,58.74,-2.18,-8.65,1
3957,58.76,7.52,-15.59,1
3958,58.77,4.69,-16.79,1
3959,58.78,-4.16,-21.42,1
3960,58.8,-6.14,-24.15,1
3961,58.81,-3.42,-27.67,1
3962,58.82,-2.43,-36.1,1
3963,58.84,-1.0,-42.88,1
3964,58.85,3.85,-44.85,1
3965,58.86,9.27,-42.96,1
3966,58.88,10.42,-37.92,1
3967,58.89,8.69,-37.43,1
3968,58.9,9.76,-44.63,1
3969,58.92,9.4,-50.55,0
3970,58.93,2.31,-54.69,0
3971,58.95,-3.93,-59.73,0
3972,58.96,-3.6,-57.66,0
3973,58.97,-0.41,-50.37,0
3974,58.99,3.98,-49.59,0
3975,59.0,6.34,-55.46,0
3976,59.01,3.28,-61.91,0
3977,59.03,-0.81,-62.66,0
3978,59.04,-0.32,-56.22,0
3979,59.05,3.04,-55.69,0
3980,59.06,2.26,-63.78,0
3981,59.08,-0.47,-64.07,0
3982,59.09,5.26,-60.38,0
3983,59.11,15.59,-67.27,0
3984,59.12,14.69,-71.12,0
3985,59.13,1.08,-60.35,0
3986,59.15,-6.67,-52.07,0
3987,59.16,2.35,-56.77,0
3988,59.17,13.25,-59.44,0
3989,59.19,8.29,-48.89,0
3990,59.2,-5.16,-40.9,0
3991,59.21,-7.77,-50.6,0
3992,59.22,1.8,-57.58,0
3993,59.24,8.63,-45.17,0
3994,59.25,8.87,-34.87,0
3995,59.27,8.67,-35.89,0
3996,59.28,7.97,-34.65,0
3997,59.29,7.68,-33.43,0
3998,59.3,9.17,-32.61,0
3999,59.32,7.66,-25.08,0
4000,59.33,2.62,-24.71,0
4001,59.34,-1.77,-37.8,0
4002,59.36,-5.18,-39.01,0
4003,59.37,-6.29,-23.78,0
4004,59.38,-1.91,-16.77,0
4005,59.4,4.96,-18.0,0
4006,59.41,7.79,-14.99,0
4007,59.42,6.72,-14.05,0
4008,59.44,3.66,-18.08,0
4009,59.45,0.16,-18.65,0
4010,59.46,3.33,-12.01,0
4011,59.48,10.4,-6.04,0
4012,59.49,6.11,-11.46,0
4013,59.5,-3.16,-18.2,0
4014,59.52,-1.38,-9.88,0
4015,59.53,0.53,1.35,0
4016,59.54,-4.53,0.3,0
4017,59.56,-2.26,-3.24,0
4018,59.57,6.56,-1.05,0
4019,59.59,7.47,3.25,0
4020,59.6,0.01,7.94,0
4021,59.61,-5.92,9.83,0
4022,59.63,-3.22,5.84,0
4023,59.64,3.78,1.8,0
4024,59.65,2.0,3.39,0
4025,59.67,-6.17,8.46,0
4026,59.68,-6.49,13.2,0
4027,59.69,-0.91,15.28,0
4028,59.71,2.0,14.56,0
4029,59.72,3.39,11.6,0
4030,59.73,3.5,9.26,0
4031,59.75,-0.21,14.55,0
4032,59.76,-4.65,24.08,0
4033,59.77,-4.16,24.06,0
4034,59.79,1.51,17.86,0
4035,59.8,3.38,19.27,0
4036,59.81,-6.67,22.42,0
4037,59.83,-14.54,21.03,0
4038,59.84,-4.37,24.48,0
4039,59.85,6.12,28.63,0
4040,59.87,0.72,24.38,0
4041,59.88,-4.27,20.73,0
4042,59.89,-0.76,22.24,0
4043,59.9,-1.63,21.73,0
4044,59.92,-8.85,19.69,0
4045,59.93,-12.2,17.87,0
4046,59.94,-6.03,12.74,0
4047,59.96,4.56,9.49,0
4048,59.97,10.13,12.03,0
4049,59.98,9.88,14.02,0
4050,60.0,6.41,18.66,0
4051,60.01,-1.03,25.2,0
4052,60.02,-5.39,20.43,0
4053,60.04,-1.3,13.83,0
4054,60.05,1.35,22.09,0
4055,60.06,-5.89,33.13,0
4056,60.08,-20.06,29.61,0
4057,60.09,-29.76,17.9,0
4058,60.1,-17.1,13.15,1
4059,60.12,12.38,16.45,1
4060,60.13,24.03,21.87,1
4061,60.14,7.97,28.15,1
4062,60.16,-10.8,31.72,1
4063,60.17,-9.48,28.19,1
4064,60.18,9.32,38.09,1
4065,60.2,19.15,100.57,1
4066,60.21,10.02,211.16,1
4067,60.22,2.97,308.38,1
4068,60.24,4.97,348.63,1
4069,60.25,0.03,336.73,1
4070,60.27,-10.33,284.92,1
4071,60.28,-7.16,204.76,1
4072,60.29,2.21,123.45,1
4073,60.31,-11.44,60.36,1
4074,60.32,-38.7,3.91,1
4075,60.33,-40.76,-66.06,1
4076,60.35,-21.64,-146.09,1
4077,60.36,-14.98,-208.66,1
4078,60.37,-17.19,-230.54,1
4079,60.38,-4.99,-221.81,1
4080,60.4,12.57,-211.34,1
4081,60.41,12.63,-207.64,1
4082,60.43,1.04,-197.68,1
4083,60.44,-3.26,-174.9,1
4084,60.45,0.79,-155.08,1
4085,60.47,6.41,-152.79,1
4086,60.48,13.88,-152.95,1
4087,60.49,19.72,-133.31,1
4088,60.51,18.66,-98.42,1
4089,60.52,17.66,-75.2,1
4090,60.53,23.81,-83.13,1
4091,60.54,34.43,-100.17,1
4092,60.56,42.22,-91.41,1
4093,60.57,37.91,-71.24,1
4094,60.58,23.96,-65.96,1
4095,60.6,15.38,-60.21,1
4096,60.61,12.14,-42.71,1
4097,60.62,0.89,-33.98,1
4098,60.64,-12.49,-37.34,1
4099,60.65,-10.54,-29.78,1
4100,60.66,0.16,-13.96,1
4101,60.68,-1.38,-13.07,1
4102,60.69,-13.71,-22.84,1
4103,60.7,-19.39,-19.53,1
4104,60.72,-14.52,1.82,1
4105,60.73,-6.49,18.32,1
4106,60.74,-1.35,15.18,1
4107,60.76,-1.96,11.96,1
4108,60.77,-5.83,19.45,1
4109,60.78,-5.54,22.07,1
4110,60.8,2.37,22.55,1
4111,60.81,6.98,32.5,1
4112,60.82,-1.04,38.56,1
4113,60.84,-12.02,35.24,1
4114,60.85,-15.97,29.06,1
4115,60.86,-16.07,20.6,1
4116,60.88,-15.52,24.56,1
4117,60.89,-9.9,40.98,1
4118,60.9,0.41,42.51,1
4119,60.92,4.1,33.99,0
4120,60.93,-2.81,40.13,0
4121,60.95,-7.75,51.45,0
4122,60.96,-3.21,52.22,0
4123,60.97,3.01,50.27,0
4124,60.99,3.93,51.04,0
4125,61.0,-0.17,52.36,0
4126,61.01,-6.22,51.11,0
4127,61.03,-7.5,38.21,0
4128,61.04,-2.14,24.96,0
4129,61.05,1.31,32.44,0
4130,61.06,-0.94,44.64,0
4131,61.08,-3.69,43.07,0
4132,61.09,-6.5,41.26,0
4133,61.11,-9.3,42.4,0
4134,61.12,-9.32,36.58,0
4135,61.13,-6.25,34.41,0
4136,61.15,-0.52,43.06,0
4137,61.16,2.25,47.91,0
4138,61.17,-2.94,40.77,0
4139,61.19,-10.21,29.84,0
4140,61.2,-11.34,27.41,0
4141,61.21,-0.85,36.07,0
4142,61.22,15.0,37.53,0
4143,61.24,17.54,26.72,0
4144,61.25,6.71,25.25,0
4145,61.26,-0.05,33.57,0
4146,61.28,-6.19,30.64,0
4147,61.29,-15.39,21.28,0
4148,61.3,-7.58,18.85,0
4149,61.32,13.81,13.37,0
4150,61.33,16.58,0.42,0
4151,61.34,1.98,-0.27,0
4152,61.36,-0.04,14.44,0
4153,61.37,11.66,21.39,0
4154,61.38,12.32,17.65,0
4155,61.4,-4.19,14.84,0
4156,61.41,-14.62,5.35,0
4157,61.42,-2.46,-10.31,0
4158,61.44,12.71,-11.78,0
4159,61.45,12.24,-0.09,0
4160,61.46,8.98,8.87,0
4161,61.48,5.21,12.29,0
4162,61.49,-10.08,6.74,0
4163,61.5,-16.42,-8.47,0
4164,61.52,2.63,-11.45,0
4165,61.53,12.52,8.66,0
4166,61.54,-6.6,17.22,0
4167,61.56,-15.24,-2.06,0
4168,61.57,3.62,-6.63,0
4169,61.59,10.0,13.36,0
4170,61.6,-4.78,15.68,0
4171,61.61,-4.28,-3.29,0
4172,61.63,10.43,-15.41,0
4173,61.64,10.73,-17.83,0
4174,61.65,2.59,-20.64,0
4175,61.67,-1.42,-21.39,0
4176,61.68,-5.28,-11.33,0
4177,61.69,-6.82,3.38,0
4178,61.71,-2.7,3.19,0
4179,61.72,5.04,-12.43,0
4180,61.73,11.56,-20.37,0
4181,61.75,9.46,-16.43,0
4182,61.76,1.84,-18.87,0
4183,61.77,1.96,-23.19,0
4184,61.79,6.13,-13.1,0
4185,61.8,1.25,-0.7,0
4186,61.81,-3.41,-5.77,0
4187,61.83,3.1,-19.55,0
4188,61.84,5.66,-21.28,0
4189,61.85,-2.71,-13.39,0
4190,61.86,-7.63,-13.56,0
4191,61.88,-8.23,-20.76,0
4192,61.89,-12.55,-21.3,0
4193,61.9,-13.4,-17.94,0
4194,61.92,-4.71,-17.6,0
4195,61.93,4.48,-18.73,0
4196,61.94,6.07,-20.67,0
4197,61.96,3.72,-13.83,0
4198,61.97,3.87,2.33,0
4199,61.98,2.33,0.55,0
4200,62.0,-4.3,-22.74,0
4201,62.01,-0.74,-31.11,0
4202,62.02,16.95,-19.43,0
4203,62.04,20.11,-22.07,0
4204,62.05,-0.18,-36.94,0
4205,62.06,-11.38,-29.82,0
4206,62.08,-3.21,-6.17,0
4207,62.09,-6.01,0.07,0
4208,62.1,-24.34,-13.56,1
4209,62.12,-25.44,-20.51,1
4210,62.13,2.42,-13.33,1
4211,62.14,29.01,-13.47,1
4212,62.16,21.11,-22.81,1
4213,62.17,-5.49,-8.44,1
4214,62.19,-11.67,20.82,1
4215,62.2,0.95,18.01,1
4216,62.21,6.99,19.01,1
4217,62.22,2.0,62.14,1
4218,62.24,1.0,47.3,1
4219,62.25,9.96,-57.98,1
4220,62.27,13.94,-37.96,1
4221,62.28,10.13,200.2,1
4222,62.29,27.78,338.8,1
4223,62.31,63.35,191.62,1
4224,62.32,40.56,48.84,1
4225,62.33,-56.39,72.61,1
4226,62.35,-102.2,77.89,1
4227,62.36,-36.11,63.56,1
4228,62.37,21.69,152.31,1
4229,62.38,-6.59,193.19,1
4230,62.4,-42.84,99.43,1
4231,62.41,-28.15,68.36,1
4232,62.43,4.61,137.32,1
4233,62.44,32.76,139.23,1
4234,62.45,55.96,41.78,1
4235,62.47,47.97,-53.13,1
4236,62.48,17.33,-78.28,1
4237,62.49,7.54,-121.41,1
4238,62.5,-6.77,-291.81,1
4239,62.52,-42.89,-408.41,1
4240,62.53,-32.2,-301.01,1
4241,62.54,18.6,-220.97,1
4242,62.56,16.99,-298.68,1
4243,62.57,-29.35,-257.37,1
4244,62.58,-24.84,-94.21,1
4245,62.6,52.33,-91.37,1
4246,62.61,84.41,-206.76,1
4247,62.62,-9.76,-231.19,1
4248,62.64,-94.53,-163.5,1
4249,62.65,-52.23,-112.57,1
4250,62.66,19.84,-124.54,1
4251,62.68,40.58,-135.51,1
4252,62.69,38.45,-84.25,1
4253,62.7,18.13,-26.33,1
4254,62.72,-11.7,-14.76,1
4255,62.73,-12.99,-22.18,1
4256,62.74,6.37,-55.52,1
4257,62.76,6.63,-155.55,1
4258,62.77,-7.04,-217.27,1
4259,62.78,11.41,-120.44,1
4260,62.8,59.21,-3.34,1
4261,62.81,67.95,15.12,1
4262,62.83,9.7,13.23,1
4263,62.84,-55.9,6.38,1
4264,62.85,-65.08,2.16,1
4265,62.87,-25.06,34.44,1
4266,62.88,2.57,24.4,1
4267,62.89,-13.28,-26.32,1
4268,62.9,-35.38,-9.35,1
4269,62.92,-32.61,65.78,0
4270,62.93,-13.77,128.18,0
4271,62.95,12.08,131.87,0
4272,62.96,21.05,60.82,0
4273,62.97,-8.2,-24.78,0
4274,62.99,-36.29,-54.03,0
4275,63.0,-27.45,2.46,0
4276,63.01,-7.06,110.96,0
4277,63.03,11.6,151.1,0
4278,63.04,35.26,104.44,0
4279,63.05,32.82,92.83,0
4280,63.06,-10.26,131.2,0
4281,63.08,-41.66,132.26,0
4282,63.09,-25.42,70.68,0
4283,63.11,0.29,28.93,0
4284,63.12,-0.22,84.59,0
4285,63.13,-7.21,124.65,0
4286,63.14,-11.54,41.01,0
4287,63.16,-28.22,-17.38,0
4288,63.17,-35.21,52.95,0
4289,63.18,-7.98,109.44,0
4290,63.2,32.29,83.48,0
4291,63.21,50.53,74.51,0
4292,63.22,34.68,90.56,0
4293,63.24,9.38,71.74,0
4294,63.25,2.37,51.06,0
4295,63.26,7.76,70.52,0
4296,63.28,15.85,82.32,0
4297,63.29,20.84,28.49,0
4298,63.3,-2.0,-54.18,0
4299,63.32,-40.02,-79.9,0
4300,63.33,-36.56,-13.6,0
4301,63.34,0.81,88.31,0
4302,63.36,9.77,118.51,0
4303,63.37,-13.46,80.04,0
4304,63.38,-29.84,72.96,0
4305,63.4,-27.78,86.44,0
4306,63.41,-14.86,77.88,0
4307,63.42,-13.22,93.66,0
4308,63.44,-30.17,116.93,0
4309,63.45,-15.55,79.78,0
4310,63.46,32.53,11.22,0
4311,63.48,30.17,-14.66,0
4312,63.49,-20.48,5.18,0
4313,63.51,-33.39,8.75,0
4314,63.52,4.28,6.82,0
4315,63.53,46.13,34.56,0
4316,63.54,44.43,34.17,0
4317,63.56,-5.13,3.64,0
4318,63.57,-33.99,-17.77,0
4319,63.59,-4.52,-47.9,0
4320,63.6,32.83,-30.43,0
4321,63.61,36.55,60.78,0
4322,63.63,29.77,62.24,0
4323,63.64,29.52,-54.49,0
4324,63.65,13.95,-59.1,0
4325,63.67,-10.11,61.22,0
4326,63.68,2.16,53.52,0
4327,63.69,43.66,-87.22,0
4328,63.71,43.57,-127.55,0
4329,63.72,6.4,-18.46,0
4330,63.73,11.49,95.41,0
4331,63.75,36.5,118.41,0
4332,63.76,14.36,69.93,0
4333,63.77,-22.97,28.6,0
4334,63.78,-25.3,33.48,0
4335,63.8,-4.76,28.26,0
4336,63.81,3.34,-17.33,0
4337,63.82,-2.03,-47.46,0
4338,63.84,1.52,-58.42,0
4339,63.85,8.98,-65.86,0
4340,63.86,9.77,-29.79,0
4341,63.88,8.32,15.04,0
4342,63.89,4.35,5.21,0
4343,63.9,-10.08,-11.23,0
4344,63.92,-40.29,13.6,0
4345,63.93,-51.95,29.22,0
4346,63.94,-12.72,-3.45,0
4347,63.96,29.77,-14.33,0
4348,63.97,28.65,32.46,0
4349,63.98,11.45,26.57,0
4350,64.0,4.39,-39.49,0
4351,64.01,2.28,-41.12,0
4352,64.02,7.15,-17.88,0
4353,64.04,16.16,-24.25,0
4354,64.05,10.87,3.36,0
4355,64.06,-7.0,4.97,0
4356,64.08,-22.0,-59.83,0
4357,64.09,-32.99,-82.79,0
4358,64.1,-39.59,-49.89,0
4359,64.12,-40.58,1.2,1
4360,64.13,-34.97,48.04,1
4361,64.14,-12.53,18.24,1
4362,64.16,23.62,-71.44,1
4363,64.17,57.97,-103.45,1
4364,64.18,66.28,-50.5,1
4365,64.2,30.88,-25.39,1
4366,64.21,-5.89,-97.91,1
4367,64.22,-3.56,-163.54,1
4368,64.24,2.02,-135.49,1
4369,64.25,-13.86,-96.16,1
4370,64.26,-16.38,-131.72,1
4371,64.28,7.21,-196.95,1
4372,64.29,22.71,-208.59,1
4373,64.3,17.07,-173.91,1
4374,64.32,13.43,-149.09,1
4375,64.33,15.12,-122.9,1
4376,64.34,3.88,-59.76,1
4377,64.36,-6.79,10.05,1
4378,64.37,4.65,42.58,1
4379,64.38,14.74,46.84,1
4380,64.4,-0.42,53.96,1
4381,64.41,-19.73,67.41,1
4382,64.42,-22.95,71.76,1
4383,64.44,-21.78,63.4,1
4384,64.45,-23.68,53.58,1
4385,64.46,-22.62,54.13,1
4386,64.48,-20.1,62.86,1
4387,64.49,-16.36,65.16,1
4388,64.5,-11.34,58.6,1
4389,64.52,-11.95,58.58,1
4390,64.53,-14.52,71.75,1
4391,64.54,-11.61,80.84,1
4392,64.56,-9.45,71.5,1
4393,64.57,-11.04,61.33,1
4394,64.58,-8.56,64.62,1
4395,64.6,0.15,61.66,1
4396,64.61,4.9,44.39,1
4397,64.62,-3.01,33.03,1
4398,64.64,-13.29,33.08,1
4399,64.65,-11.45,31.06,1
4400,64.66,-2.97,23.53,1
4401,64.68,1.52,17.28,1
4402,64.69,1.73,16.8,1
4403,64.7,1.19,17.26,1
4404,64.72,-0.9,9.56,1
4405,64.73,-8.98,4.9,1
4406,64.74,-14.99,11.23,1
4407,64.76,-4.95,12.55,1
4408,64.77,8.58,20.41,1
4409,64.79,7.73,44.44,1
4410,64.8,5.03,42.55,1
4411,64.81,14.18,7.72,1
4412,64.82,16.43,-8.09,1
4413,64.84,-2.47,9.21,1
4414,64.85,-20.3,21.71,1
4415,64.86,-19.13,7.72,1
4416,64.88,-8.22,-12.98,1
4417,64.89,2.02,-14.1,1
4418,64.9,4.64,-0.29,0
4419,64.92,0.52,5.4,0
4420,64.93,4.45,3.08,0
4421,64.94,12.54,5.88,0
4422,64.96,4.61,4.59,0
4423,64.97,-7.9,-4.83,0
4424,64.98,-1.88,-6.27,0
4425,65.0,4.82,-0.38,0
4426,65.01,-6.75,-0.18,0
4427,65.02,-13.04,-6.64,0
4428,65.04,-1.56,-15.64,0
4429,65.05,6.61,-19.41,0
4430,65.06,3.57,-17.48,0
4431,65.08,0.09,-23.03,0
4432,65.09,-2.22,-29.89,0
4433,65.1,-7.67,-24.83,0
4434,65.12,-6.29,-20.91,0
4435,65.13,8.31,-21.69,0
4436,65.14,18.01,-13.82,0
4437,65.16,10.69,-6.23,0
4438,65.17,-1.26,-11.91,0
4439,65.18,-5.84,-19.87,0
4440,65.2,-2.43,-17.39,0
4441,65.21,5.06,-8.73,0
4442,65.22,8.13,-6.59,0
4443,65.24,2.53,-13.18,0
4444,65.25,-1.74,-14.27,0
4445,65.26,1.37,-11.45,0
4446,65.28,4.69,-20.16,0
4447,65.29,7.21,-25.79,0
4448,65.3,11.99,-12.74,0
4449,65.32,16.64,-7.69,0
4450,65.33,19.36,-27.82,0
4451,65.34,14.21,-41.09,0
4452,65.36,-0.43,-28.16,0
4453,65.37,-9.77,-13.19,0
4454,65.38,-7.38,-11.55,0
4455,65.4,-4.35,-15.47,0
4456,65.41,-6.1,-20.26,0
4457,65.42500000000001,-3.63,-18.94,0
4458,65.44,8.9,-5.1,0
4459,65.45,15.08,6.83,0
4460,65.46,1.81,-0.89,0
4461,65.48,-7.44,-17.09,0
4462,65.49,3.98,-16.6,0
4463,65.5,13.89,-4.45,0
4464,65.52,10.82,-8.46,0
4465,65.53,6.29,-22.84,0
4466,65.54,-0.05,-18.79,0
4467,65.56,-6.88,-5.29,0
4468,65.57,-1.24,-8.03,0
4469,65.58,12.23,-14.02,0
4470,65.6,16.64,-1.25,0
4471,65.61,8.72,12.42,0
4472,65.62,-4.34,0.34,0
4473,65.64,-11.99,-18.12,0
4474,65.65,-7.63,-8.73,0
4475,65.66,1.51,14.21,0
4476,65.68,6.68,15.47,0
4477,65.69,3.87,1.35,0
4478,65.7,-4.99,3.32,0
4479,65.72,-4.73,17.01,0
4480,65.73,6.6,10.98,0
4481,65.74,7.32,-6.21,0
4482,65.76,-3.27,-2.73,0
4483,65.77,-6.6,8.48,0
4484,65.78,-2.01,4.31,0
4485,65.8,-1.64,2.58,0
4486,65.81,-4.12,12.08,0
4487,65.82,-0.87,12.56,0
4488,65.84,2.19,3.86,0
4489,65.85,0.13,1.71,0
4490,65.86,1.78,8.44,0
4491,65.88,6.47,17.55,0
4492,65.89,8.63,16.86,0
4493,65.9,10.71,5.66,0
4494,65.92,8.02,3.67,0
4495,65.93,-2.35,13.59,0
4496,65.94,-7.68,12.11,0
4497,65.96,-4.52,-4.66,0
4498,65.97,-5.54,-11.36,0
4499,65.98,-10.96,0.07,0
4500,66.0,-10.76,6.46,0
4501,66.01,-7.82,-0.64,0
4502,66.02,-6.84,-3.5,0
4503,66.04,-1.41,0.48,0
4504,66.05,7.74,2.61,0
4505,66.06,9.62,8.41,0
4506,66.08,3.05,15.24,0
4507,66.09,-7.35,7.88,0
4508,66.11,-18.17,-6.62,1
4509,66.12,-19.94,-10.56,1
4510,66.13,-12.5,-5.93,1
4511,66.14,-9.63,1.67,1
4512,66.16,-8.22,13.05,1
4513,66.17,7.92,17.12,1
4514,66.18,25.74,-10.73,1
4515,66.2,20.9,-81.66,1
4516,66.21,6.27,-155.7,1
4517,66.22,-1.05,-177.49,1
4518,66.24,-1.58,-159.74,1
4519,66.25,11.16,-139.76,1
4520,66.26,25.8,-109.23,1
4521,66.28,26.7,-71.66,1
4522,66.29,31.96,-55.99,1
4523,66.3,38.94,-57.65,1
4524,66.32,25.32,-54.01,1
4525,66.33,12.52,-37.65,1
4526,66.34,18.53,-9.72,1
4527,66.36,18.19,17.07,1
4528,66.37,4.18,30.75,1
4529,66.38,-2.07,42.56,1
4530,66.4,1.75,65.64,1
4531,66.41,0.64,95.01,1
4532,66.42,-4.56,118.4,1
4533,66.44,-3.13,126.68,1
4534,66.45,0.14,131.06,1
4535,66.46,-9.94,148.15,1
4536,66.48,-31.19,160.79,1
4537,66.49,-42.8,151.64,1
4538,66.5,-39.42,141.41,1
4539,66.52,-38.57,140.72,1
4540,66.53,-43.46,139.95,1
4541,66.54,-38.63,142.26,1
4542,66.56,-25.37,142.21,1
4543,66.57,-20.04,126.44,1
4544,66.58,-25.03,103.89,1
4545,66.6,-27.88,92.21,1
4546,66.61,-19.41,94.76,1
4547,66.62,-6.36,97.43,1
4548,66.64,1.41,82.43,1
4549,66.65,1.43,59.93,1
4550,66.66,-4.8,52.48,1
4551,66.68,-5.81,47.3,1
4552,66.69,-1.14,27.21,1
4553,66.7,-7.68,14.3,1
4554,66.72,-18.97,19.0,1
4555,66.73,-17.61,17.67,1
4556,66.75,-7.44,6.78,1
4557,66.76,3.56,0.46,1
4558,66.77,8.68,-4.84,1
4559,66.79,4.69,-11.66,1
4560,66.8,3.5,-13.91,1
4561,66.81,7.72,-16.41,1
4562,66.82,5.1,-21.47,1
4563,66.84,0.53,-22.94,1
4564,66.85,6.72,-25.79,1
4565,66.86,14.96,-33.72,1
4566,66.88,12.67,-36.94,1
4567,66.89,4.71,-34.77,1
4568,66.9,2.74,-39.21,0
4569,66.92,8.32,-48.9,0
4570,66.93,8.16,-48.8,0
4571,66.94,-3.21,-40.14,0
4572,66.96,-8.84,-43.71,0
4573,66.97,4.62,-62.19,0
4574,66.98,22.22,-69.59,0
4575,67.0,21.81,-61.72,0
4576,67.01,11.9,-62.65,0
4577,67.02,12.06,-68.79,0
4578,67.04,11.19,-64.59,0
4579,67.05,-1.8,-63.16,0
4580,67.06,-6.17,-68.4,0
4581,67.08,4.08,-64.04,0
4582,67.09,6.13,-53.82,0
4583,67.1,-3.9,-49.08,0
4584,67.12,-5.92,-48.32,0
4585,67.13,2.57,-50.13,0
4586,67.14,4.67,-52.32,0
4587,67.16,2.44,-49.77,0
4588,67.17,9.69,-44.04,0
4589,67.18,17.1,-39.36,0
4590,67.2,13.51,-39.81,0
4591,67.21,6.41,-45.82,0
4592,67.22,-0.33,-45.5,0
4593,67.24,-5.3,-36.48,0
4594,67.25,-2.42,-35.28,0
4595,67.26,3.97,-41.28,0
4596,67.28,9.41,-39.0,0
4597,67.29,14.57,-33.08,0
4598,67.3,13.45,-33.84,0
4599,67.32,9.65,-38.88,0
4600,67.33,10.8,-46.63,0
4601,67.34,7.49,-52.04,0
4602,67.36,-1.95,-46.67,0
4603,67.37,-2.78,-34.54,0
4604,67.38,5.41,-23.2,0
4605,67.4,7.97,-16.7,0
4606,67.41,-0.91,-17.99,0
4607,67.43,-9.79,-20.36,0
4608,67.44,-7.17,-16.61,0
4609,67.45,1.17,-10.07,0
4610,67.46,4.09,-6.75,0
4611,67.48,4.01,-10.58,0
4612,67.49,7.42,-16.63,0
4613,67.5,8.63,-14.55,0
4614,67.52,3.66,-5.82,0
4615,67.53,0.33,0.54,0
4616,67.54,0.1,1.4,0
4617,67.56,-3.46,-1.03,0
4618,67.57,-7.66,-3.74,0
4619,67.58,-2.81,0.04,0
4620,67.6,6.15,14.04,0
4621,67.61,4.35,24.34,0
4622,67.62,-3.15,18.07,0
4623,67.64,-1.25,6.33,0
4624,67.65,4.58,2.32,0
4625,67.66,1.98,2.59,0
4626,67.68,-5.17,3.09,0
4627,67.69,-7.4,6.76,0
4628,67.7,-4.36,15.27,0
4629,67.72,-0.76,21.88,0
4630,67.73,-0.7,18.68,0
4631,67.74,-2.77,13.82,0
4632,67.76,1.55,15.61,0
4633,67.77,9.07,15.12,0
4634,67.78,2.35,9.31,0
4635,67.8,-14.86,8.8,0
4636,67.81,-21.01,17.82,0
4637,67.82,-13.57,27.15,0
4638,67.84,-2.64,26.56,0
4639,67.85,4.11,23.47,0
4640,67.86,2.09,29.5,0
4641,67.88,-1.16,34.33,0
4642,67.89,3.01,27.21,0
4643,67.9,5.89,22.53,0
4644,67.92,-5.67,28.13,0
4645,67.93,-21.84,26.61,0
4646,67.94,-21.1,16.52,0
4647,67.96,-7.65,17.49,0
4648,67.97,-0.45,24.68,0
4649,67.98,-0.04,20.2,0
4650,68.0,1.62,13.0,0
4651,68.01,2.25,16.08,0
4652,68.02,0.11,19.77,0
4653,68.04,0.63,17.29,0
4654,68.05,5.91,18.92,0
4655,68.06,8.99,25.96,0
4656,68.08,1.65,26.65,0
4657,68.09,-15.19,21.27,0
4658,68.11,-26.58,19.96,1
4659,68.12,-18.76,21.71,1
4660,68.13,-5.28,19.68,1
4661,68.14,-5.07,23.19,1
4662,68.16,-5.86,61.57,1
4663,68.17,3.07,150.02,1
4664,68.18,4.53,254.8,1
4665,68.2,-2.24,324.05,1
4666,68.21,2.32,342.21,1
4667,68.22,10.3,315.27,1
4668,68.24,2.67,241.86,1
4669,68.25,-7.85,144.31,1
4670,68.26,-5.98,68.68,1
4671,68.28,0.22,24.98,1
4672,68.29,8.46,-20.25,1
4673,68.3,15.58,-77.11,1
4674,68.32,7.8,-123.28,1
4675,68.33,-4.32,-157.32,1
4676,68.34,-1.25,-193.55,1
4677,68.36,5.45,-222.57,1
4678,68.37,-2.22,-226.22,1
4679,68.38,-16.03,-210.18,1
4680,68.4,-16.7,-196.88,1
4681,68.41,-4.25,-193.81,1
4682,68.42,2.32,-185.37,1
4683,68.44,-2.66,-164.92,1
4684,68.45,-0.86,-148.01,1
4685,68.46,15.67,-136.38,1
4686,68.48,27.42,-115.5,1
4687,68.49,20.19,-94.96,1
4688,68.5,8.03,-90.2,1
4689,68.52,5.51,-88.36,1
4690,68.53,6.8,-80.8,1
4691,68.54,7.08,-70.83,1
4692,68.56,11.08,-55.05,1
4693,68.57,18.0,-41.09,1
4694,68.58,19.47,-38.08,1
4695,68.6,12.75,-31.22,1
4696,68.61,6.23,-16.23,1
4697,68.62,2.86,-15.61,1
4698,68.64,-4.07,-28.8,1
4699,68.65,-10.37,-29.72,1
4700,68.66,-7.43,-11.06,1
4701,68.68,0.4,7.82,1
4702,68.69,1.99,9.68,1
4703,68.7,-7.28,5.78,1
4704,68.72,-11.98,8.45,1
4705,68.73,-2.47,6.91,1
4706,68.75,0.24,4.15,1
4707,68.76,-7.07,19.65,1
4708,68.77,0.86,43.86,1
4709,68.79,16.89,50.91,1
4710,68.8,9.9,45.44,1
4711,68.81,-8.9,43.61,1
4712,68.82,-13.47,38.8,1
4713,68.84,-15.51,30.0,1
4714,68.85,-21.15,34.11,1
4715,68.86,-10.02,47.04,1
4716,68.88,11.61,48.23,1
4717,68.89,15.05,38.87,1
4718,68.9,-1.89,35.51,0
4719,68.92,-15.81,42.97,0
4720,68.93,-10.9,51.31,0
4721,68.94,4.0,52.5,0
4722,68.96,9.69,55.56,0
4723,68.97,4.1,66.46,0
4724,68.98,-2.9,67.75,0
4725,69.0,-4.92,52.6,0
4726,69.01,1.25,40.58,0
4727,69.02,9.95,42.0,0
4728,69.04,8.77,46.35,0
4729,69.05,-2.2,45.04,0
4730,69.06,-11.17,40.94,0
4731,69.08,-13.35,38.28,0
4732,69.09,-8.85,36.0,0
4733,69.1,3.6,35.36,0
4734,69.12,14.22,37.73,0
4735,69.13,14.17,40.15,0
4736,69.14,10.98,43.99,0
4737,69.16,4.4,45.58,0
4738,69.17,-6.93,37.94,0
4739,69.18,-9.74,31.53,0
4740,69.2,-2.13,33.3,0
4741,69.21,6.09,30.98,0
4742,69.22,8.45,22.34,0
4743,69.24,2.35,15.86,0
4744,69.25,-7.81,11.84,0
4745,69.26,-17.12,9.51,0
4746,69.28,-15.99,11.98,0
4747,69.29,0.6,14.74,0
4748,69.3,9.56,8.19,0
4749,69.32,-2.99,1.71,0
4750,69.33,-13.21,10.17,0
4751,69.34,-9.57,21.29,0
4752,69.36,-8.71,18.48,0
4753,69.37,-13.3,7.77,0
4754,69.38,-9.5,5.45,0
4755,69.4,-0.78,10.94,0
4756,69.41,-2.66,5.43,0
4757,69.43,-7.39,-6.24,0
4758,69.44,6.76,-2.41,0
4759,69.45,28.44,3.55,0
4760,69.46,23.55,-6.48,0
4761,69.48,-2.82,-12.35,0
4762,69.49,-14.5,-1.93,0
4763,69.5,-10.3,1.17,0
4764,69.52,-12.77,-9.19,0
4765,69.53,-15.15,-11.29,0
4766,69.54,-2.14,-2.36,0
4767,69.56,14.85,7.79,0
4768,69.57,21.1,10.63,0
4769,69.58,14.5,-3.21,0
4770,69.6,0.79,-17.02,0
4771,69.61,-6.09,-10.76,0
4772,69.62,-3.25,-5.67,0
4773,69.64,-2.99,-17.88,0
4774,69.65,-5.67,-24.37,0
4775,69.66,-0.44,-13.9,0
4776,69.68,9.31,-3.6,0
4777,69.69,9.62,-4.37,0
4778,69.7,1.62,-10.1,0
4779,69.72,-4.1,-10.1,0
4780,69.73,-7.42,-8.34,0
4781,69.74,-5.87,-19.81,0
4782,69.76,4.1,-35.26,0
4783,69.77,9.89,-31.75,0
4784,69.78,4.76,-17.81,0
4785,69.8,0.41,-19.71,0
4786,69.81,-0.12,-34.39,0
4787,69.82,-4.98,-36.5,0
4788,69.84,-8.06,-22.2,0
4789,69.85,5.07,-13.55,0
4790,69.86,18.97,-16.64,0
4791,69.88,3.92,-11.05,0
4792,69.89,-21.09,-0.41,0
4793,69.9,-17.08,-13.99,0
4794,69.92,2.15,-40.55,0
4795,69.93,6.67,-41.98,0
4796,69.94,4.25,-21.42,0
4797,69.96,4.21,-7.23,0
4798,69.97,-1.83,-9.03,0
4799,69.98,-6.87,-15.07,0
4800,70.0,-0.37,-11.02,0
4801,70.01,6.68,-6.46,0
4802,70.02,6.69,-15.46,0
4803,70.04,6.12,-20.28,0
4804,70.05,7.47,-5.48,0
4805,70.06,6.57,4.47,0
4806,70.08,-4.18,-5.33,0
4807,70.09,-23.75,-9.2,0
4808,70.11,-29.34,2.17,1
4809,70.12,-13.33,1.71,1
4810,70.13,-4.56,-17.99,1
4811,70.14,-7.34,-28.55,1
4812,70.16,1.04,-20.65,1
4813,70.17,9.91,-9.23,1
4814,70.18,4.52,12.23,1
4815,70.2,1.36,33.72,1
4816,70.21,10.03,38.97,1
4817,70.22,21.21,99.27,1
4818,70.24,27.51,235.18,1
4819,70.25,31.47,303.88,1
4820,70.26,34.44,261.91,1
4821,70.28,10.39,193.99,1
4822,70.29,-46.14,88.06,1
4823,70.3,-78.63,10.7,1
4824,70.32,-70.86,90.25,1
4825,70.33,-39.3,178.15,1
