,Unnamed: 0,Timestamp,Data1,Data2,Label
0,0,6.0,10.77,-3.59,0
1,1,6.01,-16.15,-6.48,0
2,2,6.03,-48.81,-14.65,0
3,3,6.04,-68.75,-7.6,0
4,4,6.05,-49.84,10.12,0
5,5,6.07,-3.43,11.72,0
6,6,6.08,24.76,-3.13,0
7,7,6.09,26.98,-11.7,0
8,8,6.11,30.65,-4.68,0
9,9,6.12,33.96,4.76,0
10,10,6.13,14.7,2.77,0
11,11,6.15,-16.55,-5.72,0
12,12,6.16,-26.57,-9.94,0
13,13,6.17,-13.92,-17.1,0
14,14,6.19,1.12,-42.61,0
15,15,6.2,14.19,-66.71,0
16,16,6.21,20.78,-53.35,0
17,17,6.23,21.19,-27.53,0
18,18,6.24,20.71,-8.04,0
19,19,6.25,14.45,79.49,0
20,20,6.265,14.42,269.81,0
21,21,6.28,14.31,443.43,0
22,22,6.29,-18.95,466.19,0
23,23,6.31,-57.65,373.76,0
24,24,6.32,-47.82,299.04,0
25,25,6.33,-4.02,273.93,0
26,26,6.35,6.0,243.4,0
27,27,6.36,-34.66,194.84,0
28,28,6.37,-48.77,154.31,0
29,29,6.39,-0.3,125.07,0
30,30,6.4,36.25,94.66,0
31,31,6.41,25.93,62.49,0
32,32,6.43,21.13,34.34,0
33,33,6.44,22.75,10.26,0
34,34,6.45,-10.6,-12.86,0
35,35,6.47,-38.52,-34.87,0
36,36,6.48,-10.78,-54.55,0
37,37,6.49,22.7,-71.98,0
38,38,6.51,3.92,-88.2,0
39,39,6.52,-29.35,-103.66,0
40,40,6.53,-16.97,-117.07,0
41,41,6.55,14.0,-127.85,0
42,42,6.56,13.27,-137.32,0
43,43,6.57,9.77,-146.98,0
44,44,6.59,28.41,-155.71,0
45,45,6.6,23.32,-162.38,0
46,46,6.61,-13.44,-167.39,0
47,47,6.63,-15.56,-171.87,0
48,48,6.64,25.46,-175.38,0
49,49,6.65,31.1,-178.28,0
50,50,6.67,-15.15,-180.85,0
51,51,6.68,-34.18,-181.84,0
52,52,6.69,-1.06,-186.57,0
53,53,6.71,20.06,-214.86,0
54,54,6.72,8.38,-276.32,0
55,55,6.73,6.95,-353.72,0
56,56,6.75,21.87,-404.14,0
57,57,6.76,20.61,-370.45,0
58,58,6.77,-0.21,-291.9,0
59,59,6.79,-15.79,-301.97,0
60,60,6.8,-12.43,-391.02,0
61,61,6.81,4.21,-420.77,0
62,62,6.82,15.65,-376.82,0
63,63,6.84,11.88,-320.87,0
64,64,6.85,12.1,-250.89,0
65,65,6.86,29.39,-196.55,0
66,66,6.88,37.59,-200.76,0
67,67,6.89,29.66,-203.82,0
68,68,6.91,31.83,-143.32,0
69,69,6.92,25.77,-67.51,0
70,70,6.93,-11.67,-67.5,0
71,71,6.95,-41.05,-132.63,0
72,72,6.96,-29.58,-157.96,0
73,73,6.97,-3.6,-93.12,0
74,74,6.99,-3.22,-2.26,0
75,75,7.0,-12.68,37.94,0
76,76,7.01,14.52,35.88,0
77,77,7.03,51.3,26.97,0
78,78,7.04,37.86,28.63,0
79,79,7.05,-0.89,47.48,0
80,80,7.07,-11.03,78.22,0
81,81,7.08,-2.96,124.89,0
82,82,7.09,-9.56,155.5,0
83,83,7.11,-25.4,134.77,0
84,84,7.12,-28.03,139.67,0
85,85,7.13,-7.61,209.42,0
86,86,7.15,15.62,218.41,0
87,87,7.16,-1.34,127.43,0
88,88,7.17,-41.9,83.53,0
89,89,7.19,-40.65,141.61,0
90,90,7.2,-2.75,182.52,0
91,91,7.21,11.98,160.46,0
92,92,7.23,-6.47,173.4,0
93,93,7.24,-18.05,236.55,0
94,94,7.25,-9.18,235.73,0
95,95,7.27,-6.9,176.31,0
96,96,7.28,-16.14,198.02,0
97,97,7.29,-10.82,283.77,0
98,98,7.31,10.47,287.73,0
99,99,7.32,18.96,230.45,0
100,100,7.33,5.61,211.31,0
101,101,7.35,-10.19,218.11,0
102,102,7.36,-11.73,226.52,0
103,103,7.37,2.65,224.5,0
104,104,7.39,12.08,175.91,0
105,105,7.4,-5.59,105.77,0
106,106,7.41,-25.27,95.59,0
107,107,7.43,-6.34,145.78,0
108,108,7.44,30.34,171.76,0
109,109,7.45,30.27,146.53,0
110,110,7.47,-1.09,136.35,0
111,111,7.48,-17.21,177.98,0
112,112,7.49,-12.27,185.63,0
113,113,7.51,-7.84,122.95,0
114,114,7.52,-2.21,104.91,0
115,115,7.53,18.89,142.94,0
116,116,7.55,32.26,137.84,0
117,117,7.56,-3.69,100.58,0
118,118,7.57,-61.22,82.76,0
119,119,7.59,-65.62,78.02,0
120,120,7.6,-10.94,56.95,0
121,121,7.61,30.72,7.52,0
122,122,7.63,15.16,-33.34,0
123,123,7.64,-22.68,-13.09,0
124,124,7.65,-32.04,56.04,0
125,125,7.67,-1.54,109.86,0
126,126,7.68,34.76,130.05,0
127,127,7.69,28.3,125.9,0
128,128,7.71,-6.96,90.06,0
129,129,7.72,-18.0,41.82,0
130,130,7.73,-12.34,16.05,0
131,131,7.75,-21.47,24.13,0
132,132,7.76,-36.05,14.27,0
133,133,7.77,-30.77,-38.54,0
134,134,7.79,-0.29,-21.62,0
135,135,7.8,19.41,80.78,0
136,136,7.81,11.02,88.72,0
137,137,7.83,14.83,-19.09,0
138,138,7.84,31.58,-50.59,0
139,139,7.85,25.26,8.74,0
140,140,7.87,7.93,3.08,0
141,141,7.88,-2.14,-59.18,0
142,142,7.89,-7.87,-104.22,0
143,143,7.91,0.67,-121.16,0
144,144,7.92,17.89,-68.85,0
145,145,7.93,13.42,9.58,0
146,146,7.95,-11.72,12.9,0
147,147,7.96,-25.35,-23.34,0
148,148,7.97,-6.17,-27.21,0
149,149,7.99,27.72,-23.32,0
150,150,8.0,20.65,-46.17,0
151,151,8.01,-33.73,-71.77,0
152,152,8.03,-67.67,-64.73,0
153,153,8.04,-50.99,-20.18,0
154,154,8.05,-32.76,32.23,0
155,155,8.07,-37.87,36.04,0
156,156,8.08,-13.57,-25.33,0
157,157,8.09,48.54,-70.11,0
158,158,8.1,80.36,-38.28,0
159,159,8.12,57.72,-10.29,0
160,160,8.13,5.63,-73.58,0
161,161,8.15,-36.35,-176.37,0
162,162,8.16,-33.42,-231.5,0
163,163,8.17,-4.33,-217.54,0
164,164,8.19,20.68,-134.57,0
165,165,8.2,34.1,-53.6,0
166,166,8.21,34.81,-73.01,0
167,167,8.23,44.71,-153.95,0
168,168,8.24,61.01,-219.67,0
169,169,8.25,40.95,-269.96,0
170,170,8.27,1.66,-301.49,0
171,171,8.28,-2.57,-292.78,0
172,172,8.29,10.55,-246.25,0
173,173,8.31,-2.15,-181.16,0
174,174,8.32,-20.15,-118.97,0
175,175,8.33,-14.57,-75.64,0
176,176,8.35,-9.22,-44.47,0
177,177,8.36,-18.74,-13.52,0
178,178,8.37,-20.06,8.94,0
179,179,8.39,-10.08,19.54,0
180,180,8.4,-7.46,29.46,0
181,181,8.41,-10.71,41.29,0
182,182,8.43,-7.91,48.92,0
183,183,8.44,-4.09,49.66,0
184,184,8.45,-8.07,48.68,0
185,185,8.47,-9.66,52.58,0
186,186,8.48,-0.12,57.13,0
187,187,8.49,3.63,48.37,0
188,188,8.51,-9.5,30.14,0
189,189,8.52,-25.39,26.17,0
190,190,8.53,-29.82,34.09,0
191,191,8.55,-21.08,27.81,0
192,192,8.56,-3.77,10.2,0
193,193,8.57,12.33,0.19,0
194,194,8.59,16.92,-5.41,0
195,195,8.6,11.37,-8.44,0
196,196,8.61,10.46,-0.74,0
197,197,8.63,17.88,9.44,0
198,198,8.64,18.05,10.85,0
199,199,8.65,4.95,11.38,0
200,200,8.67,-4.44,20.65,0
201,201,8.68,4.72,27.81,0
202,202,8.69,19.71,17.85,0
203,203,8.71,15.81,0.87,0
204,204,8.72,-2.38,-4.27,0
205,205,8.73,-8.39,0.66,0
206,206,8.75,-2.19,4.55,0
207,207,8.76,2.63,5.0,0
208,208,8.77,11.92,7.1,0
209,209,8.78,19.69,11.36,0
210,210,8.8,4.66,12.73,0
211,211,8.81,-18.05,11.8,0
212,212,8.82,-14.27,9.71,0
213,213,8.84,8.56,6.01,0
214,214,8.85,16.09,4.18,0
215,215,8.87,5.61,4.42,0
216,216,8.88,2.82,2.65,0
217,217,8.89,10.82,-2.07,0
218,218,8.91,9.28,-4.7,0
219,219,8.92,-3.29,-0.8,0
220,220,8.93,-6.97,2.3,0
221,221,8.95,0.19,-5.61,0
222,222,8.96,1.42,-17.49,0
223,223,8.97,-4.96,-18.84,0
224,224,8.99,-5.57,-12.84,0
225,225,9.0,0.16,-12.03,0
226,226,9.01,-1.26,-12.9,0
227,227,9.03,-7.94,-4.48,0
228,228,9.04,-2.34,5.62,0
229,229,9.05,9.68,0.85,0
230,230,9.07,5.23,-12.92,0
231,231,9.08,-6.78,-13.58,0
232,232,9.09,-4.23,-0.59,0
233,233,9.11,2.06,7.01,0
234,234,9.12,-1.59,3.69,0
235,235,9.13,-2.84,-0.08,0
236,236,9.15,1.32,3.5,0
237,237,9.16,-2.11,9.39,0
238,238,9.17,-8.32,7.4,0
239,239,9.19,-2.47,0.19,0
240,240,9.2,9.83,1.55,0
241,241,9.21,10.73,9.36,0
242,242,9.23,1.34,8.23,0
243,243,9.24,-0.65,0.93,0
244,244,9.25,1.75,2.18,0
245,245,9.27,-4.38,6.24,0
246,246,9.28,-3.93,-0.83,0
247,247,9.29,11.14,-9.79,0
248,248,9.31,16.82,-10.55,0
249,249,9.32,7.29,-8.41,0
250,250,9.33,2.04,1.69,0
251,251,9.35,4.3,17.42,0
252,252,9.36,1.82,14.81,0
253,253,9.37,-3.68,-4.03,0
254,254,9.39,-3.44,-7.97,0
255,255,9.4,-3.67,9.12,0
256,256,9.41,-11.7,19.23,0
257,257,9.43,-17.12,7.55,0
258,258,9.44,-7.53,-3.51,0
259,259,9.45,9.18,3.29,0
260,260,9.47,13.62,10.19,0
261,261,9.48,6.83,5.54,0
262,262,9.49,5.74,4.11,0
263,263,9.51,6.89,9.57,0
264,264,9.52,-3.19,10.36,0
265,265,9.53,-14.21,6.29,0
266,266,9.55,-6.18,3.92,0
267,267,9.56,9.46,4.98,0
268,268,9.57,6.33,4.52,0
269,269,9.59,-6.88,-1.6,0
270,270,9.6,-7.86,-2.28,0
271,271,9.61,-5.51,7.98,0
272,272,9.63,-11.82,14.15,0
273,273,9.64,-15.89,11.11,0
274,274,9.65,-11.49,6.8,0
275,275,9.67,-6.83,2.87,0
276,276,9.68,-3.77,3.03,0
277,277,9.69,1.46,11.59,0
278,278,9.71,4.2,20.43,0
279,279,9.72,-0.08,16.78,0
280,280,9.73,-6.29,2.18,0
281,281,9.75,-9.27,-3.39,0
282,282,9.76,-11.95,8.4,0
283,283,9.77,-18.47,18.23,0
284,284,9.79,-15.85,14.86,0
285,285,9.8,4.81,8.22,0
286,286,9.81,13.95,5.59,0
287,287,9.83,-4.08,6.95,0
288,288,9.84,-12.4,7.38,0
289,289,9.85,6.87,4.58,0
290,290,9.87,18.0,2.58,0
291,291,9.88,3.33,-0.89,0
292,292,9.89,-5.06,-5.06,0
293,293,9.91,9.95,-0.08,0
294,294,9.92,15.94,9.06,0
295,295,9.93,-3.4,8.26,0
296,296,9.95,-13.58,0.21,0
297,297,9.96,1.2,-2.93,0
298,298,9.97,13.62,-0.81,0
299,299,9.99,8.58,-0.57,0
300,300,10.0,-0.89,-0.14,0
301,301,10.01,-11.89,5.26,0
302,302,10.02,-39.05,11.27,0
303,303,10.04,-59.44,15.66,0
304,304,10.05,-31.13,15.07,0
305,305,10.06,12.96,2.76,0
306,306,10.08,18.18,-6.05,0
307,307,10.09,8.39,4.27,0
308,308,10.1,15.51,13.18,0
309,309,10.12,14.04,6.85,0
310,310,10.13,-4.28,4.3,0
311,311,10.15,-8.75,8.42,0
312,312,10.16,1.15,3.97,0
313,313,10.17,-0.54,-6.23,0
314,314,10.19,-8.21,-12.91,0
315,315,10.2,8.85,-16.62,0
316,316,10.21,46.58,-26.67,0
317,317,10.23,69.73,-65.31,0
318,318,10.24,67.52,-131.0,0
319,319,10.25,59.04,-171.0,0
320,320,10.27,62.96,-154.34,0
321,321,10.28,63.41,-128.1,0
322,322,10.29,34.29,-135.42,0
323,323,10.31,6.16,-153.11,0
324,324,10.32,15.79,-150.52,0
325,325,10.33,25.79,-128.91,0
326,326,10.35,-3.04,-97.26,0
327,327,10.36,-33.66,-58.76,0
328,328,10.37,-30.88,-17.32,0
329,329,10.39,-22.91,19.85,0
330,330,10.4,-24.61,48.16,0
331,331,10.41,-15.04,70.28,0
332,332,10.43,-2.57,92.08,0
333,333,10.44,-12.83,113.74,0
334,334,10.45,-35.12,131.82,0
335,335,10.47,-43.67,150.02,0
336,336,10.48,-42.09,169.68,0
337,337,10.49,-40.4,181.45,0
338,338,10.51,-34.98,183.19,0
339,339,10.52,-28.65,182.57,0
340,340,10.53,-25.82,179.77,0
341,341,10.55,-24.12,169.88,0
342,342,10.56,-24.96,155.27,0
343,343,10.57,-29.79,142.37,0
344,344,10.59,-35.3,132.87,0
345,345,10.6,-41.9,121.6,0
346,346,10.61,-41.37,103.65,0
347,347,10.63,-25.41,79.87,0
348,348,10.64,-13.71,61.99,0
349,349,10.65,-14.34,61.0,0
350,350,10.67,-0.65,59.39,0
351,351,10.68,21.06,43.32,0
352,352,10.69,13.38,34.04,0
353,353,10.71,-11.46,35.68,0
354,354,10.72,-11.02,29.11,0
355,355,10.73,5.83,17.36,0
356,356,10.75,3.69,9.4,0
357,357,10.76,-3.43,-0.46,0
358,358,10.77,5.49,-12.72,0
359,359,10.78,2.32,-17.82,0
360,360,10.8,-21.05,-12.61,0
361,361,10.81,-23.12,-7.8,0
362,362,10.83,3.96,-15.41,0
363,363,10.84,21.34,-30.91,0
364,364,10.85,13.46,-38.26,0
365,365,10.87,6.29,-34.19,0
366,366,10.88,14.9,-30.93,0
367,367,10.89,22.06,-37.24,0
368,368,10.91,20.97,-46.54,0
369,369,10.92,25.02,-47.07,0
370,370,10.93,29.25,-45.92,0
371,371,10.95,17.8,-54.89,0
372,372,10.96,2.05,-59.67,0
373,373,10.97,4.43,-48.95,0
374,374,10.99,16.17,-41.9,0
375,375,11.0,14.8,-51.61,0
376,376,11.01,4.7,-64.59,0
377,377,11.03,3.53,-68.56,0
378,378,11.04,8.75,-64.0,0
379,379,11.05,6.78,-57.66,0
380,380,11.07,2.97,-58.7,0
381,381,11.08,12.84,-65.3,0
382,382,11.09,28.42,-60.99,0
383,383,11.11,28.62,-46.56,0
384,384,11.12,16.12,-46.28,0
385,385,11.13,7.22,-59.35,0
386,386,11.15,1.89,-60.25,0
387,387,11.16,-4.81,-50.83,0
388,388,11.17,-4.33,-47.11,0
389,389,11.19,6.46,-44.73,0
390,390,11.2,13.46,-36.48,0
391,391,11.21,10.02,-28.41,0
392,392,11.23,8.22,-29.66,0
393,393,11.24,12.65,-37.99,0
394,394,11.25,10.92,-42.72,0
395,395,11.27,6.29,-41.7,0
396,396,11.28,12.38,-41.42,0
397,397,11.29,21.17,-40.79,0
398,398,11.31,14.03,-35.96,0
399,399,11.32,-8.82,-34.31,0
400,400,11.33,-23.49,-37.65,0
401,401,11.35,-9.94,-36.61,0
402,402,11.36,14.17,-33.72,0
403,403,11.37,17.74,-33.76,0
404,404,11.39,2.1,-28.22,0
405,405,11.4,-9.4,-18.13,0
406,406,11.41,-4.44,-17.15,0
407,407,11.43,9.37,-22.36,0
408,408,11.44,15.44,-18.33,0
409,409,11.45,7.25,-7.12,0
410,410,11.47,-3.25,-2.61,0
411,411,11.48,-2.12,-6.14,0
412,412,11.49,5.17,-10.95,0
413,413,11.51,4.51,-11.13,0
414,414,11.52,-2.98,-4.24,0
415,415,11.53,-5.14,3.41,0
416,416,11.55,0.08,3.7,0
417,417,11.56,4.99,-2.95,0
418,418,11.57,7.05,-8.35,0
419,419,11.59,7.26,-4.64,0
420,420,11.6,3.13,3.59,0
421,421,11.61,-5.56,4.99,0
422,422,11.63,-15.13,4.3,0
423,423,11.64,-16.04,11.29,0
424,424,11.65,-3.3,16.43,0
425,425,11.67,4.62,11.72,0
426,426,11.68,-3.03,7.84,0
427,427,11.69,-8.06,10.37,0
428,428,11.71,-9.14,11.17,0
429,429,11.72,-20.8,10.94,0
430,430,11.73,-27.94,17.53,0
431,431,11.75,-18.0,20.95,0
432,432,11.76,-7.64,12.74,0
433,433,11.77,-1.43,9.26,0
434,434,11.79,9.28,18.64,0
435,435,11.8,18.3,24.51,0
436,436,11.81,18.13,19.26,0
437,437,11.83,12.78,17.43,0
438,438,11.84,5.55,26.53,0
439,439,11.85,-4.13,35.42,0
440,440,11.87,-10.32,34.27,0
441,441,11.88,-6.27,24.29,0
442,442,11.89,-1.12,15.04,0
443,443,11.91,-4.68,12.19,0
444,444,11.92,-4.47,10.13,0
445,445,11.93,8.81,8.97,0
446,446,11.94,16.06,13.38,0
447,447,11.96,-1.77,14.66,0
448,448,11.97,-25.43,8.38,0
449,449,11.98,-25.04,8.51,0
450,450,12.0,-10.34,19.15,0
451,451,12.01,-14.1,26.87,0
452,452,12.02,-41.22,25.29,0
453,453,12.04,-55.5,24.07,0
454,454,12.05,-28.75,28.52,0
455,455,12.06,7.61,25.39,0
456,456,12.08,17.5,10.96,0
457,457,12.09,14.49,3.81,0
458,458,12.11,13.8,7.07,0
459,459,12.12,9.82,7.55,0
460,460,12.13,-0.7,12.35,0
461,461,12.15,-9.28,23.82,0
462,462,12.16,-6.49,21.62,0
463,463,12.17,5.55,10.13,0
464,464,12.19,19.61,8.79,0
465,465,12.2,24.26,10.21,0
466,466,12.21,17.02,9.66,0
467,467,12.23,23.56,14.32,0
468,468,12.24,47.23,15.89,0
469,469,12.25,47.28,10.25,0
470,470,12.27,13.25,12.29,0
471,471,12.28,-14.32,44.76,0
472,472,12.29,-16.21,127.09,0
473,473,12.31,-19.33,238.03,0
474,474,12.32,-43.19,314.5,0
475,475,12.33,-71.12,320.39,0
476,476,12.35,-71.6,275.67,0
477,477,12.36,-42.13,215.66,0
478,478,12.37,-22.18,155.77,0
479,479,12.39,-26.99,93.57,0
480,480,12.4,-28.19,25.82,0
481,481,12.41,-17.31,-42.68,0
482,482,12.43,-5.83,-100.96,0
483,483,12.44,2.18,-148.06,0
484,484,12.45,4.79,-194.2,0
485,485,12.47,9.29,-230.62,0
486,486,12.48,22.4,-231.27,0
487,487,12.49,31.33,-200.72,0
488,488,12.51,29.27,-173.5,0
489,489,12.52,28.82,-164.35,0
490,490,12.53,29.64,-160.37,0
491,491,12.55,20.01,-151.99,0
492,492,12.56,6.71,-139.6,0
493,493,12.57,5.11,-125.19,0
494,494,12.59,14.18,-113.79,0
495,495,12.6,25.01,-103.78,0
496,496,12.61,32.58,-88.78,0
497,497,12.63,28.43,-74.83,0
498,498,12.64,9.42,-71.71,0
499,499,12.65,-5.96,-75.62,0
500,500,12.67,-0.54,-70.5,0
501,501,12.68,11.83,-51.63,0
502,502,12.69,14.12,-34.16,0
503,503,12.71,13.18,-25.22,0
504,504,12.72,13.04,-21.27,0
505,505,12.73,4.62,-22.46,0
506,506,12.75,-5.98,-23.79,0
507,507,12.76,-4.06,-15.83,0
508,508,12.77,3.71,-3.2,0
509,509,12.79,0.93,-0.52,0
510,510,12.8,-5.39,-6.95,0
511,511,12.81,-2.7,-1.58,0
512,512,12.83,0.35,17.94,0
513,513,12.84,-2.85,26.74,0
514,514,12.85,-4.63,21.03,0
515,515,12.87,-2.35,17.65,0
516,516,12.88,-0.17,17.09,0
517,517,12.89,-0.05,20.24,0
518,518,12.91,-0.38,31.45,0
519,519,12.92,4.59,34.5,0
520,520,12.93,10.52,26.62,0
521,521,12.95,5.35,24.66,0
522,522,12.96,-1.83,26.18,0
523,523,12.97,0.55,22.54,0
524,524,12.99,-4.64,23.54,0
525,525,13.0,-23.75,38.25,0
526,526,13.01,-30.74,54.7,0
527,527,13.03,-17.8,57.6,0
528,528,13.04,-6.7,53.19,0
529,529,13.05,-6.52,53.01,0
530,530,13.07,-6.87,53.49,0
531,531,13.08,-1.63,46.31,0
532,532,13.09,0.05,38.76,0
533,533,13.11,-7.67,39.53,0
534,534,13.12,-10.27,37.58,0
535,535,13.13,0.11,26.79,0
536,536,13.15,10.04,23.21,0
537,537,13.16,12.56,36.37,0
538,538,13.17,11.98,49.3,0
539,539,13.19,7.37,44.03,0
540,540,13.2,-3.24,31.98,0
541,541,13.21,-13.59,30.14,0
542,542,13.23,-14.53,32.09,0
543,543,13.24,-5.38,30.54,0
544,544,13.25,2.49,32.55,0
545,545,13.27,0.4,38.61,0
546,546,13.28,-6.12,38.81,0
547,547,13.29,-5.59,29.78,0
548,548,13.31,-3.01,20.36,0
549,549,13.32,-10.19,20.06,0
550,550,13.33,-11.41,25.68,0
551,551,13.35,6.24,29.48,0
552,552,13.36,18.12,30.93,0
553,553,13.37,9.88,28.59,0
554,554,13.39,2.45,23.8,0
555,555,13.4,-0.39,24.12,0
556,556,13.41,-12.4,25.27,0
557,557,13.43,-19.82,17.64,0
558,558,13.44,-5.89,6.66,0
559,559,13.45,9.81,3.44,0
560,560,13.47,3.86,3.69,0
561,561,13.48,-10.73,0.23,0
562,562,13.49,-6.73,-1.15,0
563,563,13.51,6.57,4.95,0
564,564,13.52,-0.27,15.08,0
565,565,13.53,-17.34,14.06,0
566,566,13.55,-17.23,-6.78,0
567,567,13.56,-8.31,-21.46,0
568,568,13.57,-4.84,-8.05,0
569,569,13.59,5.53,11.76,0
570,570,13.6,19.7,13.7,0
571,571,13.61,12.91,6.5,0
572,572,13.63,-5.36,4.63,0
573,573,13.64,-3.94,0.99,0
574,574,13.65,6.27,-10.19,0
575,575,13.67,-3.42,-16.29,0
576,576,13.68,-14.71,-10.37,0
577,577,13.69,-3.75,-1.51,0
578,578,13.71,6.2,0.92,0
579,579,13.72,-1.33,-1.04,0
580,580,13.73,-4.94,-4.72,0
581,581,13.75,4.54,-13.8,0
582,582,13.76,12.4,-19.25,0
583,583,13.77,9.48,-8.71,0
584,584,13.79,1.4,1.0,0
585,585,13.8,2.61,-9.6,0
586,586,13.81,13.18,-25.08,0
587,587,13.83,13.4,-23.47,0
588,588,13.84,1.62,-10.06,0
589,589,13.85,-5.23,-1.17,0
590,590,13.86,-6.12,-4.02,0
591,591,13.88,-5.47,-15.08,0
592,592,13.89,0.36,-22.75,0
593,593,13.9,3.67,-18.71,0
594,594,13.92,-0.14,-11.1,0
595,595,13.93,4.36,-12.52,0
596,596,13.94,14.44,-19.0,0
597,597,13.96,9.52,-19.21,0
598,598,13.97,-3.91,-13.07,0
599,599,13.98,-5.43,-8.38,0
600,600,14.0,5.23,-10.41,0
601,601,14.01,11.43,-15.77,0
602,602,14.02,-3.36,-15.69,0
603,603,14.04,-32.69,-13.3,0
604,604,14.05,-43.35,-15.58,0
605,605,14.07,-19.04,-14.95,0
606,606,14.08,8.84,-8.98,0
607,607,14.09,10.19,-9.69,0
608,608,14.11,-0.7,-18.96,0
609,609,14.12,-5.2,-26.74,0
610,610,14.13,1.64,-27.01,0
611,611,14.15,17.67,-21.58,0
612,612,14.16,22.74,-15.13,0
613,613,14.17,14.12,-9.08,0
614,614,14.19,8.42,-6.21,0
615,615,14.2,3.38,-3.12,0
616,616,14.21,1.87,30.55,0
617,617,14.23,12.96,99.0,0
618,618,14.24,23.01,156.61,0
619,619,14.25,25.07,192.66,0
620,620,14.27,27.6,163.75,0
621,621,14.28,18.15,34.44,0
622,622,14.29,-11.66,22.73,0
623,623,14.31,-22.41,217.46,0
624,624,14.32,3.02,268.37,0
625,625,14.33,22.57,85.53,0
626,626,14.35,21.92,14.71,0
627,627,14.36,19.78,92.56,0
628,628,14.37,17.48,61.09,0
629,629,14.39,6.88,-18.58,0
630,630,14.4,-9.9,39.78,0
631,631,14.41,-20.59,100.34,0
632,632,14.43,-24.55,30.09,0
633,633,14.44,-21.68,-61.3,0
634,634,14.45,-5.49,-121.51,0
635,635,14.47,1.41,-173.91,0
636,636,14.48,-20.29,-161.77,0
637,637,14.49,-35.09,-103.82,0
638,638,14.51,-6.86,-143.89,0
639,639,14.52,26.0,-268.99,0
640,640,14.53,7.55,-284.29,0
641,641,14.55,-30.38,-165.43,0
642,642,14.56,-21.62,-91.7,0
643,643,14.57,21.97,-142.21,0
644,644,14.59,37.81,-223.29,0
645,645,14.6,7.31,-217.74,0
646,646,14.61,-29.88,-127.02,0
647,647,14.63,-33.76,-64.79,0
648,648,14.64,-2.09,-82.79,0
649,649,14.65,33.31,-111.61,0
650,650,14.67,45.06,-90.05,0
651,651,14.68,33.68,-50.54,0
652,652,14.69,8.41,-67.05,0
653,653,14.71,-2.67,-143.85,0
654,654,14.72,11.57,-183.01,0
655,655,14.73,-0.84,-118.96,0
656,656,14.75,-44.52,-34.82,0
657,657,14.76,-42.47,-27.46,0
658,658,14.77,12.84,-52.93,0
659,659,14.79,37.27,-37.3,0
660,660,14.8,5.17,-15.06,0
661,661,14.81,-17.01,-26.53,0
662,662,14.83,0.42,-24.36,0
663,663,14.84,10.94,5.35,0
664,664,14.85,-9.82,12.32,0
665,665,14.87,-25.42,1.63,0
666,666,14.88,-20.94,14.63,0
667,667,14.89,-28.97,40.09,0
668,668,14.91,-39.89,40.01,0
669,669,14.92,-15.71,13.48,0
670,670,14.93,17.59,8.9,0
671,671,14.95,24.78,47.48,0
672,672,14.96,25.71,51.98,0
673,673,14.97,23.94,15.25,0
674,674,14.99,-10.23,49.02,0
675,675,15.0,-45.77,114.15,0
676,676,15.01,-20.82,88.64,0
677,677,15.03,24.86,20.35,0
678,678,15.04,21.04,-1.1,0
679,679,15.05,-0.7,19.14,0
680,680,15.07,4.54,56.88,0
681,681,15.08,16.2,89.28,0
682,682,15.09,10.36,72.08,0
683,683,15.11,-3.64,26.6,0
684,684,15.12,-2.71,37.44,0
685,685,15.13,10.39,84.72,0
686,686,15.15,1.64,83.75,0
687,687,15.16,-26.79,36.79,0
688,688,15.17,-37.24,4.58,0
689,689,15.19,-31.3,45.19,0
690,690,15.2,-24.93,120.91,0
691,691,15.21,0.45,82.64,0
692,692,15.23,37.11,-69.17,0
693,693,15.24,23.65,-93.46,0
694,694,15.25,-36.64,64.11,0
695,695,15.27,-46.35,136.6,0
696,696,15.28,12.38,64.91,0
697,697,15.29,40.54,66.99,0
698,698,15.31,0.51,150.34,0
699,699,15.32,-32.51,144.11,0
700,700,15.33,-9.03,60.98,0
701,701,15.35,13.82,28.17,0
702,702,15.36,-15.12,44.12,0
703,703,15.37,-35.12,43.36,0
704,704,15.39,-2.07,41.82,0
705,705,15.4,21.54,88.13,0
706,706,15.41,9.19,122.21,0
707,707,15.43,9.9,55.5,0
708,708,15.44,25.19,4.68,0
709,709,15.45,18.87,77.97,0
710,710,15.47,4.88,117.13,0
711,711,15.48,9.36,36.48,0
712,712,15.49,10.69,-13.02,0
713,713,15.51,-5.91,32.62,0
714,714,15.52,-9.4,74.96,0
715,715,15.53,8.3,54.56,0
716,716,15.55,15.15,3.37,0
717,717,15.56,9.99,-19.06,0
718,718,15.57,5.85,4.13,0
719,719,15.59,-7.52,17.67,0
720,720,15.6,-18.25,-3.95,0
721,721,15.61,-6.21,-8.32,0
722,722,15.63,12.59,16.78,0
723,723,15.64,17.01,21.46,0
724,724,15.65,3.15,-8.46,0
725,725,15.67,-11.55,-11.53,0
726,726,15.68,3.73,50.63,0
727,727,15.69,33.59,94.49,0
728,728,15.71,28.98,54.49,0
729,729,15.72,0.3,-5.06,0
730,730,15.73,1.69,-32.65,0
731,731,15.75,32.22,-43.31,0
732,732,15.76,34.57,-48.47,0
733,733,15.77,-3.65,-45.8,0
734,734,15.78,-26.32,-40.25,0
735,735,15.8,-14.93,-28.8,0
736,736,15.81,-9.36,3.69,0
737,737,15.82,-15.58,23.05,0
738,738,15.84,-12.26,2.88,0
739,739,15.85,-11.03,5.12,0
740,740,15.86,-19.62,39.11,0
741,741,15.88,-13.73,31.95,0
742,742,15.89,8.75,-8.83,0
743,743,15.9,14.28,-12.24,0
744,744,15.92,-3.64,18.5,0
745,745,15.93,-10.75,15.8,0
746,746,15.94,6.82,-34.29,0
747,747,15.96,18.77,-58.4,0
748,748,15.97,8.82,-29.39,0
749,749,15.98,-3.28,-20.5,0
750,750,16.0,-14.75,-43.76,0
751,751,16.01,-30.47,-35.47,0
752,752,16.03,-32.8,-4.44,0
753,753,16.04,-22.45,5.24,0
754,754,16.05,-17.0,-6.57,0
755,755,16.07,-13.41,-15.32,0
756,756,16.08,1.19,-4.53,0
757,757,16.09,20.81,-20.37,0
758,758,16.11,22.83,-81.88,0
759,759,16.12,13.21,-94.23,0
760,760,16.13,17.76,-40.85,0
761,761,16.15,23.59,-11.6,0
762,762,16.16,11.07,-15.98,0
763,763,16.17,-2.46,-14.51,0
764,764,16.19,-4.16,-4.4,0
765,765,16.2,-1.78,-4.34,0
766,766,16.21,0.01,-14.84,0
767,767,16.23,1.24,-4.75,0
768,768,16.24,10.02,10.83,0
769,769,16.25,25.95,-6.15,0
770,770,16.27,22.48,-24.1,0
771,771,16.28,-5.58,-9.15,0
772,772,16.29,-23.21,14.12,0
773,773,16.31,-15.33,12.49,0
774,774,16.32,-4.0,-6.96,0
775,775,16.33,-3.79,-17.49,0
776,776,16.35,-7.68,-48.13,0
777,777,16.36,-6.34,-130.97,0
778,778,16.37,-2.62,-203.25,0
779,779,16.39,-2.76,-217.59,0
780,780,16.4,-2.49,-221.37,0
781,781,16.41,-5.47,-231.45,0
782,782,16.42,-18.98,-200.19,0
783,783,16.44,-24.66,-122.76,0
784,784,16.45,-9.22,-45.08,0
785,785,16.46,7.58,15.98,0
786,786,16.48,7.41,66.93,0
787,787,16.49,-1.11,94.93,0
788,788,16.5,-0.65,93.45,0
789,789,16.52,6.7,88.52,0
790,790,16.53,3.25,98.37,0
791,791,16.54,-7.37,104.84,0
792,792,16.56,-5.13,92.65,0
793,793,16.57,1.46,76.76,0
794,794,16.58,-2.47,72.98,0
795,795,16.6,1.13,76.09,0
796,796,16.61,24.62,70.02,0
797,797,16.62,45.16,45.34,0
798,798,16.64,39.99,12.22,0
799,799,16.65,19.79,-3.24,0
800,800,16.67,8.11,9.14,0
801,801,16.68,5.3,24.87,0
802,802,16.69,1.85,24.55,0
803,803,16.71,-0.84,20.53,0
804,804,16.72,-4.01,24.33,0
805,805,16.73,-7.2,31.88,0
806,806,16.75,-0.31,39.12,0
807,807,16.76,9.49,38.66,0
808,808,16.77,4.85,24.55,0
809,809,16.79,-5.4,12.79,0
810,810,16.8,-7.64,18.51,0
811,811,16.81,-9.27,24.05,0
812,812,16.83,-13.46,14.1,0
813,813,16.84,-13.44,5.13,0
814,814,16.85,-9.77,5.08,0
815,815,16.87,-7.56,0.49,0
816,816,16.88,-9.82,-3.54,0
817,817,16.89,-13.09,8.8,0
818,818,16.91,-12.54,23.06,0
819,819,16.92,-9.83,17.99,0
820,820,16.93,-4.94,6.16,0
821,821,16.95,1.06,6.63,0
822,822,16.96,1.43,10.87,0
823,823,16.97,-3.33,1.39,0
824,824,16.99,-6.82,-13.06,0
825,825,17.0,-3.47,-8.6,0
826,826,17.01,6.98,7.24,0
827,827,17.03,14.27,6.92,0
828,828,17.04,8.45,-6.55,0
829,829,17.05,-2.21,-13.64,0
830,830,17.06,-2.08,-15.0,0
831,831,17.08,3.25,-16.13,0
832,832,17.09,-0.69,-15.52,0
833,833,17.1,-6.76,-15.99,0
834,834,17.12,-4.03,-17.29,0
835,835,17.13,0.43,-15.87,0
836,836,17.14,-2.34,-11.08,0
837,837,17.16,-8.62,-5.67,0
838,838,17.17,-4.31,-8.93,0
839,839,17.18,13.75,-18.64,0
840,840,17.2,21.57,-19.46,0
841,841,17.21,5.27,-10.89,0
842,842,17.22,-8.47,-5.95,0
843,843,17.24,-2.78,-9.64,0
844,844,17.25,0.34,-13.52,0
845,845,17.26,-6.08,-12.66,0
846,846,17.28,-3.82,-11.06,0
847,847,17.29,3.47,-11.76,0
848,848,17.3,1.06,-16.2,0
849,849,17.32,-4.97,-14.74,0
850,850,17.33,-4.33,-2.35,0
851,851,17.35,1.64,-1.65,0
852,852,17.36,7.9,-19.39,0
853,853,17.37,12.72,-27.4,0
854,854,17.39,13.19,-17.44,0
855,855,17.4,6.25,-8.92,0
856,856,17.41,-2.74,-7.18,0
857,857,17.43,-9.73,-7.2,0
858,858,17.44,-14.52,-12.83,0
859,859,17.45,-13.14,-21.67,0
860,860,17.47,-7.0,-16.64,0
861,861,17.48,-4.56,5.64,0
862,862,17.49,-7.03,16.87,0
863,863,17.51,-7.98,1.06,0
864,864,17.52,-4.33,-16.12,0
865,865,17.53,-2.52,-13.9,0
866,866,17.55,-9.74,-2.24,0
867,867,17.56,-15.28,4.13,0
868,868,17.57,-4.69,2.17,0
869,869,17.59,8.24,-2.85,0
870,870,17.6,6.61,-3.85,0
871,871,17.61,4.07,2.51,0
872,872,17.63,11.05,4.18,0
873,873,17.64,10.79,-14.88,0
874,874,17.65,-0.48,-37.4,0
875,875,17.67,-5.91,-31.45,0
876,876,17.68,-5.34,-1.15,0
877,877,17.69,-6.47,22.14,0
878,878,17.7,-1.93,21.95,0
879,879,17.72,8.29,10.89,0
880,880,17.73,10.3,3.9,0
881,881,17.75,4.99,-3.92,0
882,882,17.76,3.58,-10.69,0
883,883,17.77,1.83,-5.3,0
884,884,17.78,-4.31,3.29,0
885,885,17.8,-3.12,5.56,0
886,886,17.81,4.66,7.01,0
887,887,17.82,5.47,5.98,0
888,888,17.84,-0.31,-0.8,0
889,889,17.85,-6.04,-4.58,0
890,890,17.86,-6.9,-1.55,0
891,891,17.88,0.25,1.01,0
892,892,17.89,6.56,-0.15,0
893,893,17.9,2.91,-0.97,0
894,894,17.92,-1.7,1.68,0
895,895,17.93,3.53,6.46,0
896,896,17.94,7.18,12.7,0
897,897,17.96,-4.04,17.32,0
898,898,17.97,-12.28,9.25,0
899,899,17.99,2.59,-4.21,0
900,900,18.0,20.44,1.83,0
901,901,18.01,16.83,20.85,0
902,902,18.03,-2.44,20.7,0
903,903,18.04,-27.97,3.39,0
904,904,18.05,-44.69,-2.0,0
905,905,18.07,-25.89,9.0,0
906,906,18.08,12.26,18.29,0
907,907,18.09,25.03,10.29,0
908,908,18.11,18.46,-12.98,0
909,909,18.12,15.18,-26.06,0
910,910,18.13,7.72,-11.69,0
911,911,18.15,1.86,10.37,0
912,912,18.16,7.77,17.56,0
913,913,18.17,13.1,15.67,0
914,914,18.19,14.57,19.09,0
915,915,18.2,17.65,16.14,0
916,916,18.21,15.29,-39.34,0
917,917,18.23,1.72,-146.35,0
918,918,18.24,-8.05,-209.36,0
919,919,18.25,0.49,-181.89,0
920,920,18.27,14.67,-138.67,0
921,921,18.28,22.3,-134.87,0
922,922,18.29,25.22,-136.39,0
923,923,18.31,24.94,-108.79,0
924,924,18.32,25.66,-78.12,0
925,925,18.33,25.47,-75.8,0
926,926,18.34,21.8,-78.86,0
927,927,18.36,20.49,-55.3,0
928,928,18.37,18.62,-14.97,0
929,929,18.38,15.58,25.13,0
930,930,18.4,19.11,64.82,0
931,931,18.41,22.04,99.8,0
932,932,18.42,16.27,120.65,0
933,933,18.44,7.74,133.05,0
934,934,18.45,-0.44,149.18,0
935,935,18.46,-7.56,164.14,0
936,936,18.48,-9.95,168.85,0
937,937,18.49,-10.84,168.19,0
938,938,18.5,-17.16,169.49,0
939,939,18.52,-26.16,175.13,0
940,940,18.53,-32.18,180.99,0
941,941,18.54,-39.45,174.28,0
942,942,18.56,-48.25,155.0,0
943,943,18.57,-45.92,141.09,0
944,944,18.58,-32.95,133.75,0
945,945,18.6,-28.69,117.67,0
946,946,18.61,-36.96,94.55,0
947,947,18.63,-38.65,75.53,0
948,948,18.64,-32.51,64.25,0
949,949,18.65,-33.12,62.42,0
950,950,18.67,-30.53,63.47,0
951,951,18.68,-13.53,52.26,0
952,952,18.69,-0.72,27.73,0
953,953,18.71,-3.55,4.88,0
954,954,18.72,-3.34,-8.85,0
955,955,18.73,8.55,-19.29,0
956,956,18.75,9.43,-25.09,0
957,957,18.76,-8.47,-16.5,0
958,958,18.77,-20.91,1.35,0
959,959,18.79,-18.68,9.51,0
960,960,18.8,-13.74,0.57,0
961,961,18.81,-8.98,-14.11,0
962,962,18.83,-2.58,-23.29,0
963,963,18.84,2.23,-24.67,0
964,964,18.85,1.01,-21.59,0
965,965,18.87,-8.42,-22.44,0
966,966,18.88,-13.65,-31.78,0
967,967,18.89,-2.28,-41.82,0
968,968,18.91,10.99,-41.94,0
969,969,18.92,10.03,-36.78,0
970,970,18.93,6.1,-40.86,0
971,971,18.95,5.13,-53.64,0
972,972,18.96,-2.38,-60.41,0
973,973,18.97,-7.34,-55.72,0
974,974,18.98,2.3,-48.23,0
975,975,19.0,13.17,-43.69,0
976,976,19.01,11.46,-42.19,0
977,977,19.02,7.35,-44.64,0
978,978,19.04,11.1,-49.23,0
979,979,19.05,11.0,-52.05,0
980,980,19.06,1.42,-54.09,0
981,981,19.08,-1.38,-59.07,0
982,982,19.09,6.2,-61.09,0
983,983,19.1,8.0,-52.26,0
984,984,19.12,2.89,-44.67,0
985,985,19.13,5.12,-49.95,0
986,986,19.14,10.86,-54.06,0
987,987,19.16,5.47,-47.21,0
988,988,19.17,-3.6,-42.35,0
989,989,19.18,-1.33,-43.63,0
990,990,19.2,4.87,-39.28,0
991,991,19.21,5.69,-32.18,0
992,992,19.22,8.91,-35.95,0
993,993,19.24,14.57,-46.97,0
994,994,19.25,11.79,-51.25,0
995,995,19.265,6.7,-43.79,0
996,996,19.28,13.06,-33.58,0
997,997,19.29,21.93,-32.67,0
998,998,19.31,15.8,-35.04,0
999,999,19.32,2.17,-32.01,0
1000,1000,19.33,-0.7,-30.38,0
1001,1001,19.35,7.21,-34.5,0
1002,1002,19.36,15.55,-38.46,0
1003,1003,19.37,20.45,-35.7,0
1004,1004,19.39,22.07,-28.99,0
1005,1005,19.4,18.01,-25.69,0
1006,1006,19.41,6.63,-23.85,0
1007,1007,19.43,-4.41,-23.58,0
1008,1008,19.44,-6.19,-25.27,0
1009,1009,19.45,-0.91,-20.77,0
1010,1010,19.47,5.62,-14.54,0
1011,1011,19.48,8.84,-14.49,0
1012,1012,19.49,6.51,-11.64,0
1013,1013,19.51,1.74,-3.98,0
1014,1014,19.52,-3.32,-0.49,0
1015,1015,19.53,-5.57,0.3,0
1016,1016,19.55,-1.7,0.65,0
1017,1017,19.56,2.79,-1.21,0
1018,1018,19.57,5.31,-0.2,0
1019,1019,19.59,10.48,1.31,0
1020,1020,19.6,16.11,-3.01,0
1021,1021,19.61,15.15,-3.33,0
1022,1022,19.62,8.02,5.86,0
1023,1023,19.64,0.02,11.55,0
1024,1024,19.65,-2.54,10.32,0
1025,1025,19.67,-0.21,15.28,0
1026,1026,19.68,1.15,24.22,0
1027,1027,19.69,3.09,20.65,0
1028,1028,19.7,4.77,10.52,0
1029,1029,19.72,0.27,11.58,0
1030,1030,19.73,-3.25,16.66,0
1031,1031,19.75,2.79,15.65,0
1032,1032,19.76,11.07,17.09,0
1033,1033,19.77,8.95,19.57,0
1034,1034,19.78,-2.34,13.88,0
1035,1035,19.8,-6.59,11.3,0
1036,1036,19.81,-0.13,20.83,0
1037,1037,19.82,4.41,26.67,0
1038,1038,19.84,2.98,21.24,0
1039,1039,19.85,-1.71,16.73,0
1040,1040,19.86,-5.07,14.06,0
1041,1041,19.88,-2.6,8.44,0
1042,1042,19.89,-2.08,7.66,0
1043,1043,19.9,-6.51,12.84,0
1044,1044,19.92,-4.5,14.72,0
1045,1045,19.93,3.95,13.08,0
1046,1046,19.95,4.19,12.43,0
1047,1047,19.96,-8.33,13.11,0
1048,1048,19.97,-16.83,15.49,0
1049,1049,19.99,-6.72,17.59,0
1050,1050,20.0,7.28,16.2,0
1051,1051,20.01,4.39,15.79,0
1052,1052,20.03,-13.25,18.94,0
1053,1053,20.04,-40.15,19.69,0
1054,1054,20.05,-61.15,17.75,0
1055,1055,20.07,-47.34,20.03,0
1056,1056,20.08,-11.15,23.26,0
1057,1057,20.09,9.52,20.09,0
1058,1058,20.11,13.84,18.33,0
1059,1059,20.12,18.32,25.29,0
1060,1060,20.13,19.73,32.66,0
1061,1061,20.15,7.74,32.51,0
1062,1062,20.16,-9.7,28.2,0
1063,1063,20.17,-18.44,24.37,0
1064,1064,20.19,-17.56,18.56,0
1065,1065,20.2,-4.96,15.56,0
1066,1066,20.21,17.58,28.45,0
1067,1067,20.23,35.55,67.8,0
1068,1068,20.24,45.4,139.83,0
1069,1069,20.25,46.75,225.84,0
1070,1070,20.26,27.98,287.11,0
1071,1071,20.28,-6.49,307.99,0
1072,1072,20.29,-35.63,294.29,0
1073,1073,20.3,-49.11,246.93,0
1074,1074,20.32,-53.42,173.94,0
1075,1075,20.33,-58.55,97.88,0
1076,1076,20.34,-64.85,32.61,0
1077,1077,20.36,-64.09,-22.16,0
1078,1078,20.37,-46.22,-70.55,0
1079,1079,20.38,-16.06,-115.24,0
1080,1080,20.4,2.76,-152.79,0
1081,1081,20.41,2.44,-183.43,0
1082,1082,20.42,1.82,-213.18,0
1083,1083,20.44,13.74,-233.43,0
1084,1084,20.45,27.83,-230.15,0
1085,1085,20.46,29.64,-210.29,0
1086,1086,20.48,22.21,-192.98,0
1087,1087,20.49,16.69,-178.99,0
1088,1088,20.5,15.61,-159.43,0
1089,1089,20.52,20.51,-143.44,0
1090,1090,20.53,28.79,-134.48,0
1091,1091,20.54,26.91,-116.71,0
1092,1092,20.56,16.49,-93.46,0
1093,1093,20.57,18.39,-84.14,0
1094,1094,20.59,30.45,-82.65,0
1095,1095,20.6,29.13,-70.59,0
1096,1096,20.61,16.46,-54.13,0
1097,1097,20.63,13.89,-50.0,0
1098,1098,20.64,19.47,-57.39,0
1099,1099,20.65,14.55,-60.23,0
1100,1100,20.67,3.49,-49.48,0
1101,1101,20.68,2.97,-34.06,0
1102,1102,20.69,6.29,-19.46,0
1103,1103,20.71,1.75,-8.61,0
1104,1104,20.72,-3.75,-16.02,0
1105,1105,20.73,-3.32,-32.56,0
1106,1106,20.75,-0.42,-26.99,0
1107,1107,20.76,-1.46,0.16,0
1108,1108,20.77,-6.49,20.55,0
1109,1109,20.79,-6.85,18.87,0
1110,1110,20.8,-3.59,7.4,0
1111,1111,20.81,-3.6,9.36,0
1112,1112,20.83,0.82,24.9,0
1113,1113,20.84,10.96,32.45,0
1114,1114,20.85,11.6,29.93,0
1115,1115,20.87,0.78,32.97,0
1116,1116,20.88,-9.62,41.54,0
1117,1117,20.89,-11.39,46.28,0
1118,1118,20.9,-1.22,47.82,0
1119,1119,20.92,11.7,49.33,0
1120,1120,20.93,13.35,44.2,0
1121,1121,20.94,8.28,31.97,0
1122,1122,20.96,6.04,29.59,0
1123,1123,20.97,2.4,40.97,0
1124,1124,20.98,-5.58,48.94,0
1125,1125,21.0,-12.16,48.99,0
1126,1126,21.01,-14.59,48.16,0
1127,1127,21.02,-15.04,47.22,0
1128,1128,21.04,-11.5,47.22,0
1129,1129,21.05,-4.26,47.36,0
1130,1130,21.06,-2.09,44.5,0
1131,1131,21.08,-4.3,37.44,0
1132,1132,21.09,-1.47,30.37,0
1133,1133,21.1,1.46,34.09,0
1134,1134,21.12,-4.84,43.79,0
1135,1135,21.13,-11.84,40.21,0
1136,1136,21.14,-8.0,29.05,0
1137,1137,21.16,-1.41,32.61,0
1138,1138,21.17,-8.34,48.45,0
1139,1139,21.18,-23.15,54.84,0
1140,1140,21.2,-24.08,49.47,0
1141,1141,21.21,-10.0,43.43,0
1142,1142,21.23,-0.59,38.88,0
1143,1143,21.24,-4.96,34.82,0
1144,1144,21.25,-11.54,30.59,0
1145,1145,21.27,-7.01,25.19,0
1146,1146,21.28,0.69,26.43,0
1147,1147,21.29,-0.65,37.47,0
1148,1148,21.31,-2.73,40.47,0
1149,1149,21.32,0.14,25.13,0
1150,1150,21.33,-0.31,10.56,0
1151,1151,21.35,-2.8,11.79,0
1152,1152,21.36,-3.24,17.68,0
1153,1153,21.37,-3.29,16.99,0
1154,1154,21.39,0.52,14.5,0
1155,1155,21.4,6.83,16.16,0
1156,1156,21.41,7.34,18.24,0
1157,1157,21.43,2.07,18.98,0
1158,1158,21.44,-5.04,20.62,0
1159,1159,21.45,-9.36,19.59,0
1160,1160,21.47,-6.9,13.49,0
1161,1161,21.48,-0.45,6.97,0
1162,1162,21.49,6.43,4.32,0
1163,1163,21.51,12.34,5.24,0
1164,1164,21.52,6.27,5.78,0
1165,1165,21.53,-13.88,6.63,0
1166,1166,21.54,-22.42,7.39,0
1167,1167,21.56,-9.22,-0.95,0
1168,1168,21.57,1.21,-12.25,0
1169,1169,21.58,0.89,-6.84,0
1170,1170,21.6,3.29,4.04,0
1171,1171,21.61,1.99,-4.05,0
1172,1172,21.62,-8.37,-17.79,0
1173,1173,21.64,-8.27,-14.29,0
1174,1174,21.65,6.66,-4.37,0
1175,1175,21.67,15.8,-6.63,0
1176,1176,21.68,8.6,-15.75,0
1177,1177,21.69,-5.14,-16.21,0
1178,1178,21.7,-9.27,-10.07,0
1179,1179,21.72,-4.59,-12.16,0
1180,1180,21.73,-5.05,-22.19,0
1181,1181,21.75,-5.93,-22.6,0
1182,1182,21.76,3.14,-8.62,0
1183,1183,21.77,7.55,1.52,0
1184,1184,21.78,-2.22,-5.25,0
1185,1185,21.8,-2.63,-17.34,0
1186,1186,21.81,14.21,-16.93,0
1187,1187,21.82,15.47,-8.01,0
1188,1188,21.84,-4.47,-9.9,0
1189,1189,21.85,-7.22,-22.07,0
1190,1190,21.87,8.07,-27.42,0
1191,1191,21.88,2.9,-25.68,0
1192,1192,21.89,-15.99,-24.76,0
1193,1193,21.91,-14.02,-19.73,0
1194,1194,21.92,-0.8,-12.54,0
1195,1195,21.93,-1.84,-13.65,0
1196,1196,21.95,-5.71,-20.26,0
1197,1197,21.96,7.23,-22.0,0
1198,1198,21.97,21.05,-16.68,0
1199,1199,21.99,12.28,-15.35,0
1200,1200,22.0,-4.12,-26.59,0
1201,1201,22.01,1.3,-34.71,0
1202,1202,22.03,13.74,-19.97,0
1203,1203,22.04,-8.44,2.42,0
1204,1204,22.05,-40.86,1.93,0
1205,1205,22.07,-25.34,-14.61,0
1206,1206,22.08,12.8,-17.06,0
1207,1207,22.09,18.88,-8.27,0
1208,1208,22.11,14.12,-15.56,0
1209,1209,22.12,28.35,-31.21,0
1210,1210,22.13,35.41,-28.62,0
1211,1211,22.15,19.35,-12.99,0
1212,1212,22.16,0.84,4.12,0
1213,1213,22.17,-6.48,34.63,0
1214,1214,22.18,3.9,82.94,0
1215,1215,22.2,35.09,107.8,0
1216,1216,22.21,62.6,83.08,0
1217,1217,22.22,60.41,58.11,0
1218,1218,22.24,37.4,70.76,0
1219,1219,22.25,4.06,116.47,0
1220,1220,22.26,-28.45,182.79,0
1221,1221,22.28,-20.8,192.61,0
1222,1222,22.29,19.29,84.94,0
1223,1223,22.3,25.71,-25.26,0
1224,1224,22.32,-0.15,-11.32,0
1225,1225,22.33,-9.27,20.61,0
1226,1226,22.34,-9.82,-50.5,0
1227,1227,22.36,-25.77,-84.77,0
1228,1228,22.37,-43.41,0.05,0
1229,1229,22.38,-39.43,22.09,0
1230,1230,22.4,-19.22,-76.83,0
1231,1231,22.41,-12.16,-155.99,0
1232,1232,22.42,-13.86,-168.49,0
1233,1233,22.44,2.05,-155.81,0
1234,1234,22.45,14.03,-134.77,0
1235,1235,22.46,-4.82,-113.84,0
1236,1236,22.48,-26.36,-83.4,0
1237,1237,22.49,-21.35,-47.01,0
1238,1238,22.5,-2.71,-66.59,0
1239,1239,22.52,7.74,-94.82,0
1240,1240,22.53,4.04,-25.62,0
1241,1241,22.55,-9.99,24.72,0
1242,1242,22.56,-18.95,-55.8,0
1243,1243,22.57,-3.5,-139.82,0
1244,1244,22.59,16.51,-156.37,0
1245,1245,22.6,4.44,-169.01,0
1246,1246,22.61,-14.84,-144.9,0
1247,1247,22.63,-6.08,-38.94,0
1248,1248,22.64,-0.09,28.94,0
1249,1249,22.65,-17.9,-24.66,0
1250,1250,22.67,-21.2,-59.98,0
1251,1251,22.68,4.14,8.64,0
1252,1252,22.69,13.13,42.24,0
1253,1253,22.71,-8.65,-2.37,0
1254,1254,22.72,-12.68,0.46,0
1255,1255,22.73,16.53,24.55,0
1256,1256,22.75,33.57,-21.58,0
1257,1257,22.76,14.43,-53.14,0
1258,1258,22.77,-4.65,-14.32,0
1259,1259,22.79,6.71,16.49,0
1260,1260,22.8,16.21,-9.71,0
1261,1261,22.81,0.14,-67.3,0
1262,1262,22.82,-10.07,-75.39,0
1263,1263,22.84,-1.19,-5.1,0
1264,1264,22.85,0.42,54.08,0
1265,1265,22.86,-10.9,51.6,0
1266,1266,22.88,-10.23,30.01,0
1267,1267,22.89,3.6,-6.12,0
1268,1268,22.9,13.06,-76.98,0
1269,1269,22.92,19.14,-98.04,0
1270,1270,22.93,15.91,5.88,0
1271,1271,22.94,-7.15,109.17,0
1272,1272,22.96,-34.56,92.29,0
1273,1273,22.97,-41.19,48.04,0
1274,1274,22.98,-22.83,46.25,0
1275,1275,23.0,-4.87,16.0,0
1276,1276,23.01,-3.76,-27.13,0
1277,1277,23.02,1.7,15.14,0
1278,1278,23.04,17.67,96.84,0
1279,1279,23.05,11.5,105.58,0
1280,1280,23.06,-18.32,68.43,0
1281,1281,23.08,-25.56,39.24,0
1282,1282,23.09,0.71,1.06,0
1283,1283,23.1,20.43,-10.38,0
1284,1284,23.12,15.85,23.95,0
1285,1285,23.13,8.54,24.84,0
1286,1286,23.14,11.31,-16.72,0
1287,1287,23.16,7.85,-12.06,0
1288,1288,23.17,-3.92,53.75,0
1289,1289,23.19,5.08,81.3,0
1290,1290,23.2,24.93,19.52,0
1291,1291,23.21,15.87,-20.22,0
1292,1292,23.23,-3.25,38.61,0
1293,1293,23.24,5.34,86.16,0
1294,1294,23.25,21.17,49.04,0
1295,1295,23.27,17.34,5.01,0
1296,1296,23.28,19.17,17.66,0
1297,1297,23.29,37.46,51.8,0
1298,1298,23.31,23.57,55.39,0
1299,1299,23.32,-27.12,50.03,0
1300,1300,23.33,-44.02,82.28,0
1301,1301,23.35,-7.99,129.61,0
1302,1302,23.36,20.05,111.55,0
1303,1303,23.37,8.22,17.53,0
1304,1304,23.39,-9.76,-26.76,0
1305,1305,23.4,-11.51,41.67,0
1306,1306,23.41,-11.66,95.45,0
1307,1307,23.43,-11.12,35.77,0
1308,1308,23.44,-3.53,-34.21,0
1309,1309,23.45,-0.28,2.86,0
1310,1310,23.46,0.21,55.07,0
1311,1311,23.48,8.44,20.67,0
1312,1312,23.49,12.55,-6.04,0
1313,1313,23.5,4.52,41.25,0
1314,1314,23.52,-2.52,64.43,0
1315,1315,23.53,-1.54,-2.74,0
1316,1316,23.54,3.83,-61.72,0
1317,1317,23.56,5.43,-14.6,0
1318,1318,23.57,-1.37,51.69,0
1319,1319,23.58,-2.52,43.65,0
1320,1320,23.6,9.74,21.33,0
1321,1321,23.61,10.74,13.07,0
1322,1322,23.62,-8.75,-25.96,0
1323,1323,23.64,-9.57,-64.87,0
1324,1324,23.65,18.22,-68.35,0
1325,1325,23.67,23.09,-55.86,0
1326,1326,23.68,-9.79,-11.02,0
1327,1327,23.69,-33.7,46.21,0
1328,1328,23.7,-23.67,32.19,0
1329,1329,23.72,-2.34,-21.48,0
1330,1330,23.73,3.65,-7.96,0
1331,1331,23.75,0.13,34.52,0
1332,1332,23.76,3.57,9.36,0
1333,1333,23.77,7.18,-25.6,0
1334,1334,23.78,7.79,4.83,0
1335,1335,23.8,5.87,19.98,0
1336,1336,23.81,-9.57,-21.37,0
1337,1337,23.83,-23.67,-24.42,0
1338,1338,23.84,-9.8,17.77,0
1339,1339,23.85,16.86,11.88,0
1340,1340,23.87,19.22,-36.11,0
1341,1341,23.88,-7.08,-46.65,0
1342,1342,23.89,-27.28,-11.66,0
1343,1343,23.91,-18.06,7.12,0
1344,1344,23.92,-4.16,-26.03,0
1345,1345,23.93,-10.62,-69.37,0
1346,1346,23.95,-11.98,-61.91,0
1347,1347,23.96,10.78,-2.52,0
1348,1348,23.97,21.64,40.75,0
1349,1349,23.99,1.56,17.68,0
1350,1350,24.0,-14.93,-22.43,0
1351,1351,24.01,-13.61,-28.02,0
1352,1352,24.03,-18.9,-17.49,0
1353,1353,24.04,-35.37,-9.56,0
1354,1354,24.05,-35.21,0.46,0
1355,1355,24.07,-10.84,31.17,0
1356,1356,24.08,3.52,68.6,0
1357,1357,24.09,-1.88,46.29,0
1358,1358,24.1,6.52,-29.35,0
1359,1359,24.12,25.93,-52.93,0
1360,1360,24.13,20.95,-6.95,0
1361,1361,24.14,-0.79,20.64,0
1362,1362,24.16,-6.71,28.94,0
1363,1363,24.17,-2.46,50.43,0
1364,1364,24.18,-6.66,42.58,0
1365,1365,24.2,-2.15,13.65,0
1366,1366,24.21,20.88,1.93,0
1367,1367,24.22,38.42,-20.13,0
1368,1368,24.24,46.61,-49.44,0
1369,1369,24.25,48.99,-39.74,0
1370,1370,24.26,28.03,-8.52,0
1371,1371,24.28,-1.4,-5.23,0
1372,1372,24.29,-10.87,-15.95,0
1373,1373,24.3,-11.62,-18.59,0
1374,1374,24.32,-11.76,-33.55,0
1375,1375,24.33,-5.1,-56.88,0
1376,1376,24.34,-10.07,-87.35,0
1377,1377,24.36,-26.8,-150.49,0
1378,1378,24.37,-23.33,-216.74,0
1379,1379,24.38,-8.01,-242.02,0
1380,1380,24.4,-3.83,-238.79,0
1381,1381,24.41,6.6,-211.24,0
1382,1382,24.42,23.54,-144.98,0
1383,1383,24.44,17.42,-65.25,0
1384,1384,24.45,-3.48,-1.32,0
1385,1385,24.46,-6.45,50.96,0
1386,1386,24.48,2.65,90.68,0
1387,1387,24.49,-3.34,108.96,0
1388,1388,24.51,-18.46,113.99,0
1389,1389,24.52,-17.8,118.17,0
1390,1390,24.53,-3.07,122.23,0
1391,1391,24.55,3.22,120.32,0
1392,1392,24.56,-1.32,111.92,0
1393,1393,24.57,-4.22,103.12,0
1394,1394,24.59,-3.61,92.95,0
1395,1395,24.6,7.48,73.98,0
1396,1396,24.61,36.1,55.74,0
1397,1397,24.63,53.08,57.84,0
1398,1398,24.64,26.77,66.46,0
1399,1399,24.65,-13.22,53.98,0
1400,1400,24.67,-19.46,35.22,0
1401,1401,24.68,-4.92,34.51,0
1402,1402,24.69,-5.12,41.61,0
1403,1403,24.71,-13.5,41.6,0
1404,1404,24.72,-12.15,34.1,0
1405,1405,24.73,-9.08,29.32,0
1406,1406,24.75,-11.15,38.95,0
1407,1407,24.76,-12.7,45.57,0
1408,1408,24.77,-14.52,26.53,0
1409,1409,24.78,-17.45,2.5,0
1410,1410,24.8,-18.88,0.77,0
1411,1411,24.81,-19.83,8.12,0
1412,1412,24.82,-14.5,4.37,0
1413,1413,24.84,-2.06,-0.04,0
1414,1414,24.85,-0.24,7.08,0
1415,1415,24.86,-7.26,15.89,0
1416,1416,24.88,-1.52,15.96,0
1417,1417,24.89,11.85,3.6,0
1418,1418,24.9,12.77,-18.39,0
1419,1419,24.92,7.39,-31.07,0
1420,1420,24.93,9.18,-20.44,0
1421,1421,24.94,7.16,-2.04,0
1422,1422,24.96,-5.22,3.08,0
1423,1423,24.97,-14.02,-3.94,0
1424,1424,24.98,-8.9,-10.93,0
1425,1425,25.0,3.6,-9.74,0
1426,1426,25.01,10.28,-4.84,0
1427,1427,25.02,9.49,-7.7,0
1428,1428,25.04,10.33,-16.41,0
1429,1429,25.05,13.97,-22.35,0
1430,1430,25.06,12.72,-21.69,0
1431,1431,25.08,6.43,-17.61,0
1432,1432,25.09,3.38,-20.22,0
1433,1433,25.1,3.73,-24.78,0
1434,1434,25.12,1.12,-20.36,0
1435,1435,25.13,-1.15,-15.13,0
1436,1436,25.15,-0.07,-17.01,0
1437,1437,25.16,-0.06,-20.74,0
1438,1438,25.17,-0.36,-20.11,0
1439,1439,25.19,-3.46,-13.81,0
1440,1440,25.2,-13.0,-12.47,0
1441,1441,25.21,-14.43,-24.11,0
1442,1442,25.23,-0.24,-32.91,0
1443,1443,25.24,9.55,-23.4,0
1444,1444,25.25,4.78,-8.5,0
1445,1445,25.27,1.89,-9.61,0
1446,1446,25.28,7.68,-22.65,0
1447,1447,25.29,4.19,-28.43,0
1448,1448,25.31,-10.45,-22.98,0
1449,1449,25.32,-12.63,-12.96,0
1450,1450,25.33,-2.24,-7.85,0
1451,1451,25.35,3.13,-12.36,0
1452,1452,25.36,5.41,-15.97,0
1453,1453,25.37,7.35,-17.57,0
1454,1454,25.38,2.94,-21.21,0
1455,1455,25.4,-5.44,-13.48,0
1456,1456,25.41,-10.58,1.93,0
1457,1457,25.42,-3.91,2.41,0
1458,1458,25.44,10.21,-12.37,0
1459,1459,25.45,9.75,-23.79,0
1460,1460,25.46,-3.99,-19.73,0
1461,1461,25.48,-5.67,-9.58,0
1462,1462,25.49,2.73,-8.0,0
1463,1463,25.5,1.66,-8.98,0
1464,1464,25.52,0.3,-9.14,0
1465,1465,25.53,10.76,-16.9,0
1466,1466,25.54,14.83,-21.31,0
1467,1467,25.56,2.05,-9.79,0
1468,1468,25.57,-9.58,0.25,0
1469,1469,25.58,-7.72,-9.05,0
1470,1470,25.6,0.81,-22.12,0
1471,1471,25.61,5.65,-14.18,0
1472,1472,25.62,6.83,2.74,0
1473,1473,25.64,11.05,-1.62,0
1474,1474,25.65,12.47,-17.94,0
1475,1475,25.67,-0.43,-20.46,0
1476,1476,25.68,-16.65,-11.83,0
1477,1477,25.69,-13.15,-0.6,0
1478,1478,25.7,7.98,12.68,0
1479,1479,25.72,17.73,21.5,0
1480,1480,25.73,7.18,20.0,0
1481,1481,25.75,-1.53,10.61,0
1482,1482,25.76,0.03,1.78,0
1483,1483,25.77,-2.05,-0.31,0
1484,1484,25.79,-3.69,2.11,0
1485,1485,25.8,5.7,8.43,0
1486,1486,25.81,9.01,13.16,0
1487,1487,25.83,-4.39,4.44,0
1488,1488,25.84,-10.59,-9.64,0
1489,1489,25.85,0.41,-9.59,0
1490,1490,25.87,4.49,3.87,0
1491,1491,25.88,-2.98,13.73,0
1492,1492,25.89,0.92,10.61,0
1493,1493,25.91,12.44,4.32,0
1494,1494,25.92,11.65,5.74,0
1495,1495,25.93,3.58,6.52,0
1496,1496,25.95,0.45,0.13,0
1497,1497,25.96,-1.6,-2.15,0
1498,1498,25.97,-9.57,7.38,0
1499,1499,25.99,-13.01,16.8,0
1500,1500,26.0,-1.41,11.55,0
1501,1501,26.01,4.62,-4.15,0
1502,1502,26.02,-8.83,-12.27,0
1503,1503,26.04,-15.53,-1.95,0
1504,1504,26.05,-11.04,15.72,0
1505,1505,26.06,-18.25,20.37,0
1506,1506,26.08,-20.81,8.0,0
1507,1507,26.09,0.37,-4.63,0
1508,1508,26.1,19.44,0.28,0
1509,1509,26.12,15.04,15.03,0
1510,1510,26.13,-6.38,14.13,0
1511,1511,26.14,-18.19,-3.41,0
1512,1512,26.16,2.15,-19.5,0
1513,1513,26.17,29.32,-43.84,0
1514,1514,26.18,32.05,-93.1,0
1515,1515,26.2,31.83,-142.29,0
1516,1516,26.21,47.4,-152.68,0
1517,1517,26.22,57.81,-130.48,0
1518,1518,26.24,58.69,-117.67,0
1519,1519,26.25,66.12,-124.98,0
1520,1520,26.26,63.39,-125.13,0
1521,1521,26.28,30.86,-113.94,0
1522,1522,26.29,-3.11,-101.77,0
1523,1523,26.3,-12.21,-77.67,0
1524,1524,26.32,-12.49,-45.56,0
1525,1525,26.33,-22.79,-26.2,0
1526,1526,26.34,-34.84,-7.53,0
1527,1527,26.36,-30.76,29.66,0
1528,1528,26.37,-19.33,66.49,0
1529,1529,26.38,-28.83,84.72,0
1530,1530,26.4,-51.52,101.11,0
1531,1531,26.41,-49.49,130.8,0
1532,1532,26.43,-24.84,161.08,0
1533,1533,26.44,-19.46,176.48,0
1534,1534,26.45,-36.78,177.75,0
1535,1535,26.47,-45.07,173.42,0
1536,1536,26.48,-40.02,172.07,0
1537,1537,26.49,-32.09,172.44,0
1538,1538,26.51,-17.97,168.04,0
1539,1539,26.52,-3.44,162.28,0
1540,1540,26.53,-6.42,159.14,0
1541,1541,26.55,-20.57,151.29,0
1542,1542,26.56,-16.94,133.17,0
1543,1543,26.57,1.55,111.15,0
1544,1544,26.59,1.19,94.77,0
1545,1545,26.6,-10.17,85.98,0
1546,1546,26.61,-3.1,78.28,0
1547,1547,26.63,4.7,63.59,0
1548,1548,26.64,-9.53,45.98,0
1549,1549,26.65,-23.08,37.24,0
1550,1550,26.67,-12.87,33.49,0
1551,1551,26.68,3.8,23.49,0
1552,1552,26.69,-0.27,11.45,0
1553,1553,26.7,-11.8,4.55,0
1554,1554,26.72,-5.71,2.32,0
1555,1555,26.73,-0.11,3.7,0
1556,1556,26.75,-8.62,3.41,0
1557,1557,26.76,-7.01,-4.94,0
1558,1558,26.77,6.84,-18.31,0
1559,1559,26.78,9.45,-28.7,0
1560,1560,26.8,3.93,-30.96,0
1561,1561,26.81,2.63,-27.19,0
1562,1562,26.82,1.9,-24.02,0
1563,1563,26.84,-1.31,-24.28,0
1564,1564,26.85,0.8,-29.65,0
1565,1565,26.86,12.31,-39.44,0
1566,1566,26.88,16.82,-46.09,0
1567,1567,26.89,1.1,-48.01,0
1568,1568,26.9,-7.95,-51.27,0
1569,1569,26.92,14.63,-54.07,0
1570,1570,26.93,36.28,-52.26,0
1571,1571,26.94,18.92,-50.72,0
1572,1572,26.96,-11.66,-51.14,0
1573,1573,26.97,-10.44,-51.26,0
1574,1574,26.98,11.04,-54.19,0
1575,1575,27.0,12.44,-58.59,0
1576,1576,27.01,0.15,-57.92,0
1577,1577,27.02,5.08,-50.93,0
1578,1578,27.04,17.82,-43.0,0
1579,1579,27.05,14.2,-41.22,0
1580,1580,27.07,3.76,-47.64,0
1581,1581,27.08,5.41,-56.96,0
1582,1582,27.09,12.35,-59.55,0
1583,1583,27.11,12.18,-51.61,0
1584,1584,27.12,11.08,-44.21,0
1585,1585,27.13,13.44,-43.76,0
1586,1586,27.15,11.39,-40.4,0
1587,1587,27.16,7.66,-35.69,0
1588,1588,27.17,12.44,-41.19,0
1589,1589,27.19,18.49,-48.93,0
1590,1590,27.2,8.92,-44.96,0
1591,1591,27.21,-10.44,-37.19,0
1592,1592,27.23,-10.75,-39.64,0
1593,1593,27.24,9.38,-46.75,0
1594,1594,27.25,14.27,-41.23,0
1595,1595,27.27,1.97,-25.04,0
1596,1596,27.28,5.78,-20.7,0
1597,1597,27.29,14.0,-32.8,0
1598,1598,27.3,-0.56,-40.44,0
1599,1599,27.32,-12.35,-35.8,0
1600,1600,27.33,1.02,-31.9,0
1601,1601,27.34,15.22,-32.66,0
1602,1602,27.36,11.87,-29.49,0
1603,1603,27.37,5.07,-27.07,0
1604,1604,27.38,5.13,-33.46,0
1605,1605,27.4,2.39,-38.55,0
1606,1606,27.41,-6.61,-32.67,0
1607,1607,27.42,-8.41,-21.47,0
1608,1608,27.44,3.48,-12.78,0
1609,1609,27.45,15.09,-11.11,0
1610,1610,27.46,12.88,-15.28,0
1611,1611,27.48,7.22,-16.93,0
1612,1612,27.49,8.1,-13.61,0
1613,1613,27.5,2.74,-9.33,0
1614,1614,27.52,-12.74,-2.05,0
1615,1615,27.53,-18.31,10.59,0
1616,1616,27.54,-11.18,16.47,0
1617,1617,27.56,-11.0,2.76,0
1618,1618,27.57,-13.65,-12.52,0
1619,1619,27.58,-1.72,-3.3,0
1620,1620,27.6,11.15,15.35,0
1621,1621,27.61,3.67,16.36,0
1622,1622,27.62,-10.9,7.86,0
1623,1623,27.64,-6.34,8.68,0
1624,1624,27.65,9.4,15.09,0
1625,1625,27.67,10.17,13.67,0
1626,1626,27.68,1.27,5.37,0
1627,1627,27.69,-0.2,2.13,0
1628,1628,27.7,-1.56,8.3,0
1629,1629,27.72,-11.94,18.05,0
1630,1630,27.73,-18.48,24.33,0
1631,1631,27.75,-8.85,26.52,0
1632,1632,27.76,2.38,27.14,0
1633,1633,27.77,1.54,21.67,0
1634,1634,27.79,4.47,13.74,0
1635,1635,27.8,14.74,15.01,0
1636,1636,27.81,10.08,18.14,0
1637,1637,27.83,-4.3,15.41,0
1638,1638,27.84,-4.42,18.86,0
1639,1639,27.85,0.66,27.83,0
1640,1640,27.87,-8.52,26.13,0
1641,1641,27.88,-17.42,15.62,0
1642,1642,27.89,-8.53,6.03,0
1643,1643,27.91,-0.89,-4.77,0
1644,1644,27.92,-10.86,-15.64,0
1645,1645,27.93,-16.41,-12.34,0
1646,1646,27.94,-1.82,10.58,0
1647,1647,27.96,8.32,36.86,0
1648,1648,27.97,-2.18,45.12,0
1649,1649,27.98,-5.16,30.73,0
1650,1650,28.0,13.99,16.04,0
1651,1651,28.01,21.27,19.84,0
1652,1652,28.02,2.92,25.92,0
1653,1653,28.04,-13.27,22.46,0
1654,1654,28.05,-24.48,23.51,0
1655,1655,28.06,-39.96,26.23,0
1656,1656,28.08,-34.93,16.63,0
1657,1657,28.09,-2.02,7.93,0
1658,1658,28.1,20.04,15.6,0
1659,1659,28.12,13.58,25.76,0
1660,1660,28.13,3.51,28.41,0
1661,1661,28.14,-0.98,31.3,0
1662,1662,28.16,-10.17,32.64,0
1663,1663,28.17,-10.15,26.95,0
1664,1664,28.18,9.07,21.38,0
1665,1665,28.2,23.62,28.39,0
1666,1666,28.21,14.06,62.47,0
1667,1667,28.22,-9.48,138.06,0
1668,1668,28.24,-21.85,244.49,0
1669,1669,28.25,-11.45,327.86,0
1670,1670,28.26,0.24,331.16,0
1671,1671,28.28,-9.37,264.56,0
1672,1672,28.29,-29.1,190.79,0
1673,1673,28.3,-35.21,136.21,0
1674,1674,28.32,-24.1,84.18,0
1675,1675,28.33,-10.76,30.73,0
1676,1676,28.34,-1.43,-21.27,0
1677,1677,28.36,4.77,-77.57,0
1678,1678,28.37,3.68,-134.91,0
1679,1679,28.39,2.77,-181.7,0
1680,1680,28.4,10.66,-206.42,0
1681,1681,28.41,16.33,-204.83,0
1682,1682,28.43,15.6,-193.75,0
1683,1683,28.44,18.06,-189.36,0
1684,1684,28.45,19.61,-182.34,0
1685,1685,28.47,15.13,-165.68,0
1686,1686,28.48,15.51,-152.21,0
1687,1687,28.49,22.31,-144.73,0
1688,1688,28.51,23.5,-132.39,0
1689,1689,28.52,19.34,-114.28,0
1690,1690,28.53,18.41,-98.54,0
1691,1691,28.55,20.94,-89.75,0
1692,1692,28.56,19.93,-88.24,0
1693,1693,28.57,13.26,-91.34,0
1694,1694,28.58,9.88,-88.87,0
1695,1695,28.6,10.52,-72.6,0
1696,1696,28.61,2.8,-50.05,0
1697,1697,28.62,-7.11,-33.61,0
1698,1698,28.64,-4.42,-29.76,0
1699,1699,28.65,0.91,-37.8,0
1700,1700,28.67,-1.48,-44.74,0
1701,1701,28.68,-2.01,-36.13,0
1702,1702,28.69,2.54,-18.45,0
1703,1703,28.7,3.86,-12.13,0
1704,1704,28.72,2.68,-17.44,0
1705,1705,28.73,2.72,-10.28,0
1706,1706,28.75,0.09,7.62,0
1707,1707,28.76,-1.98,11.86,0
1708,1708,28.77,2.84,7.98,0
1709,1709,28.78,8.49,8.49,0
1710,1710,28.8,7.24,10.59,0
1711,1711,28.81,-1.91,22.17,0
1712,1712,28.82,-12.47,38.14,0
1713,1713,28.84,-14.68,32.99,0
1714,1714,28.85,-6.53,17.32,0
1715,1715,28.86,8.34,21.09,0
1716,1716,28.88,20.5,36.15,0
1717,1717,28.89,15.69,43.88,0
1718,1718,28.9,-4.98,46.69,0
1719,1719,28.92,-20.2,43.16,0
1720,1720,28.93,-15.27,35.27,0
1721,1721,28.94,-2.55,38.73,0
1722,1722,28.96,-2.42,47.92,0
1723,1723,28.97,-10.44,41.89,0
1724,1724,28.98,-8.32,28.17,0
1725,1725,29.0,-1.96,29.57,0
1726,1726,29.01,-7.44,37.72,0
1727,1727,29.03,-14.61,29.84,0
1728,1728,29.04,-6.65,18.42,0
1729,1729,29.05,6.78,29.11,0
1730,1730,29.07,4.64,48.82,0
1731,1731,29.08,-12.22,51.75,0
1732,1732,29.09,-17.85,44.43,0
1733,1733,29.11,-2.28,40.92,0
1734,1734,29.12,7.14,35.07,0
1735,1735,29.13,-4.99,28.03,0
1736,1736,29.15,-14.3,28.65,0
1737,1737,29.16,-5.08,30.14,0
1738,1738,29.17,0.68,32.22,0
1739,1739,29.19,-12.11,39.87,0
1740,1740,29.2,-22.15,40.43,0
1741,1741,29.21,-14.12,28.34,0
1742,1742,29.22,-4.44,18.7,0
1743,1743,29.24,-4.64,21.76,0
1744,1744,29.25,-6.8,27.78,0
1745,1745,29.26,-7.44,22.16,0
1746,1746,29.28,-5.26,11.02,0
1747,1747,29.29,6.32,14.01,0
1748,1748,29.3,15.45,27.7,0
1749,1749,29.32,1.98,31.21,0
1750,1750,29.33,-20.35,27.61,0
1751,1751,29.34,-22.18,29.7,0
1752,1752,29.36,-11.02,27.8,0
1753,1753,29.37,-12.76,17.06,0
1754,1754,29.38,-17.06,16.97,0
1755,1755,29.4,-1.89,27.7,0
1756,1756,29.41,14.64,24.27,0
1757,1757,29.42,7.82,7.8,0
1758,1758,29.44,-7.74,3.89,0
1759,1759,29.45,-8.28,16.38,0
1760,1760,29.46,4.46,23.57,0
1761,1761,29.48,13.25,14.51,0
1762,1762,29.49,7.8,3.45,0
1763,1763,29.5,-6.4,4.22,0
1764,1764,29.52,-13.47,5.56,0
1765,1765,29.53,-6.05,-4.97,0
1766,1766,29.54,4.53,-14.76,0
1767,1767,29.56,6.06,-11.67,0
1768,1768,29.57,-2.03,-0.58,0
1769,1769,29.58,-10.3,9.17,0
1770,1770,29.6,-10.74,9.07,0
1771,1771,29.61,-8.19,3.27,0
1772,1772,29.62,-8.13,-2.42,0
1773,1773,29.64,-4.53,-13.06,0
1774,1774,29.65,3.91,-20.1,0
1775,1775,29.67,8.8,-15.04,0
1776,1776,29.68,8.02,-12.18,0
1777,1777,29.69,5.73,-14.91,0
1778,1778,29.71,2.36,-11.59,0
1779,1779,29.72,1.41,-6.11,0
1780,1780,29.73,7.99,-6.03,0
1781,1781,29.75,16.79,-4.6,0
1782,1782,29.76,18.6,0.54,0
1783,1783,29.77,9.48,-1.07,0
1784,1784,29.79,-2.81,-11.66,0
1785,1785,29.8,-4.66,-19.47,0
1786,1786,29.81,0.49,-17.63,0
1787,1787,29.83,0.23,-14.06,0
1788,1788,29.84,-4.39,-16.05,0
1789,1789,29.85,-7.37,-20.38,0
1790,1790,29.86,-3.68,-20.49,0
1791,1791,29.88,7.22,-15.93,0
1792,1792,29.89,15.02,-14.33,0
1793,1793,29.9,16.24,-18.53,0
1794,1794,29.92,14.71,-19.2,0
1795,1795,29.93,6.96,-15.28,0
1796,1796,29.94,-0.02,-18.2,0
1797,1797,29.96,6.13,-23.1,0
1798,1798,29.97,16.21,-15.93,0
1799,1799,29.98,14.07,-4.49,0
1800,1800,30.0,4.1,-5.45,0
1801,1801,30.01,0.27,-13.06,0
1802,1802,30.02,1.59,-12.53,0
1803,1803,30.04,-3.32,-10.1,0
1804,1804,30.05,-18.26,-15.28,0
1805,1805,30.06,-29.87,-17.82,0
1806,1806,30.08,-19.73,-10.83,0
1807,1807,30.09,6.26,-5.95,0
1808,1808,30.1,25.76,-10.05,0
1809,1809,30.12,30.77,-16.1,0
1810,1810,30.13,22.63,-20.94,0
1811,1811,30.14,5.49,-38.71,0
1812,1812,30.16,-5.74,-79.56,0
1813,1813,30.17,-3.67,-99.96,0
1814,1814,30.18,1.66,-36.44,0
1815,1815,30.2,6.16,80.64,0
1816,1816,30.21,9.42,146.65,0
1817,1817,30.22,11.0,141.22,0
1818,1818,30.24,17.08,107.43,0
1819,1819,30.25,26.1,33.92,0
1820,1820,30.26,33.98,-39.61,0
1821,1821,30.28,36.25,-13.82,0
1822,1822,30.29,22.63,41.4,0
1823,1823,30.3,0.43,6.41,0
1824,1824,30.32,-10.54,-0.89,0
1825,1825,30.33,-6.99,101.5,0
1826,1826,30.35,0.15,143.23,0
1827,1827,30.36,-3.06,54.43,0
1828,1828,30.37,-14.88,-43.55,0
1829,1829,30.39,-17.15,-54.64,0
1830,1830,30.4,-12.86,1.52,0
1831,1831,30.41,-17.05,13.02,0
1832,1832,30.43,-23.86,-39.33,0
1833,1833,30.44,-24.05,-61.88,0
1834,1834,30.45,-17.41,-44.5,0
1835,1835,30.47,-7.35,-38.05,0
1836,1836,30.48,-0.09,-34.64,0
1837,1837,30.49,7.27,-30.08,0
1838,1838,30.5,12.45,-89.7,0
1839,1839,30.52,-0.9,-196.5,0
1840,1840,30.53,-26.58,-187.27,0
1841,1841,30.54,-32.34,-63.21,0
1842,1842,30.56,-7.17,-34.6,0
1843,1843,30.57,18.92,-79.25,0
1844,1844,30.58,19.43,-15.98,0
1845,1845,30.6,6.17,55.29,0
1846,1846,30.61,-6.57,-16.29,0
1847,1847,30.62,-11.72,-90.02,0
1848,1848,30.64,2.84,-34.28,0
1849,1849,30.65,18.2,33.04,0
1850,1850,30.67,7.06,7.46,0
1851,1851,30.68,-8.5,-28.04,0
1852,1852,30.69,-4.08,9.22,0
1853,1853,30.7,0.47,46.45,0
1854,1854,30.72,-3.62,-0.46,0
1855,1855,30.73,4.89,-76.36,0
1856,1856,30.75,17.35,-103.26,0
1857,1857,30.76,6.46,-75.45,0
1858,1858,30.77,-19.33,-26.35,0
1859,1859,30.78,-29.54,-11.09,0
1860,1860,30.8,-13.17,-23.4,0
1861,1861,30.81,4.88,-2.95,0
1862,1862,30.82,-2.1,28.34,0
1863,1863,30.84,-19.71,10.1,0
1864,1864,30.85,-24.65,-9.92,0
1865,1865,30.86,-18.43,21.73,0
1866,1866,30.88,-3.89,41.21,0
1867,1867,30.89,12.32,18.71,0
1868,1868,30.9,7.93,-1.07,0
1869,1869,30.92,-17.03,-9.96,0
1870,1870,30.93,-25.16,-7.81,0
1871,1871,30.94,-2.75,-5.71,0
1872,1872,30.96,6.07,-27.04,0
1873,1873,30.97,-18.2,-38.23,0
1874,1874,30.99,-21.33,-9.17,0
1875,1875,31.0,10.25,21.45,0
1876,1876,31.01,18.93,17.44,0
1877,1877,31.03,5.56,6.15,0
1878,1878,31.04,13.72,23.91,0
1879,1879,31.05,22.32,39.56,0
1880,1880,31.07,5.34,18.69,0
1881,1881,31.08,-7.1,6.14,0
1882,1882,31.09,4.64,23.69,0
1883,1883,31.11,19.26,24.96,0
1884,1884,31.12,16.95,18.57,0
1885,1885,31.13,6.73,36.68,0
1886,1886,31.14,9.52,28.51,0
1887,1887,31.16,20.42,-29.98,0
1888,1888,31.17,9.9,-39.35,0
1889,1889,31.18,-16.29,31.92,0
1890,1890,31.2,-14.74,58.82,0
1891,1891,31.21,6.98,16.32,0
1892,1892,31.22,11.58,13.14,0
1893,1893,31.24,10.58,43.84,0
1894,1894,31.25,11.97,41.17,0
1895,1895,31.26,4.67,33.33,0
1896,1896,31.28,1.83,49.83,0
1897,1897,31.29,-0.45,55.61,0
1898,1898,31.3,-13.94,25.96,0
1899,1899,31.32,-10.12,-10.2,0
1900,1900,31.33,18.01,-9.61,0
1901,1901,31.34,27.71,27.41,0
1902,1902,31.36,9.75,48.76,0
1903,1903,31.37,-3.55,30.67,0
1904,1904,31.38,-8.9,46.09,0
1905,1905,31.4,-17.73,117.64,0
1906,1906,31.41,-16.44,138.98,0
1907,1907,31.42,-1.17,81.8,0
1908,1908,31.44,6.39,26.79,0
1909,1909,31.45,0.14,-1.46,0
1910,1910,31.46,-1.94,-8.96,0
1911,1911,31.48,1.88,17.79,0
1912,1912,31.49,-1.01,43.96,0
1913,1913,31.5,-3.75,32.51,0
1914,1914,31.52,-5.3,3.82,0
1915,1915,31.53,-13.64,-45.69,0
1916,1916,31.54,-6.86,-82.41,0
1917,1917,31.56,14.17,-13.55,0
1918,1918,31.57,9.8,94.82,0
1919,1919,31.58,-6.22,89.57,0
1920,1920,31.6,1.0,1.71,0
1921,1921,31.61,10.22,-33.59,0
1922,1922,31.63,2.98,9.62,0
1923,1923,31.64,0.81,44.75,0
1924,1924,31.65,9.63,36.25,0
1925,1925,31.67,10.95,27.32,0
1926,1926,31.68,2.09,0.03,0
1927,1927,31.69,-4.82,-47.31,0
1928,1928,31.71,-1.88,-30.51,0
1929,1929,31.72,10.22,27.26,0
1930,1930,31.73,23.14,27.74,0
1931,1931,31.75,22.86,-21.59,0
1932,1932,31.76,0.69,-43.25,0
1933,1933,31.77,-25.89,15.59,0
1934,1934,31.78,-27.26,79.53,0
1935,1935,31.8,-9.08,39.56,0
1936,1936,31.81,-0.65,-27.07,0
1937,1937,31.82,-5.68,-25.67,0
1938,1938,31.84,-8.88,-13.71,0
1939,1939,31.85,-3.87,-28.83,0
1940,1940,31.86,0.74,-39.07,0
1941,1941,31.88,-2.64,-26.43,0
1942,1942,31.89,-8.03,0.4,0
1943,1943,31.9,-10.15,6.88,0
1944,1944,31.92,-10.57,-17.66,0
1945,1945,31.93,-13.82,-34.18,0
1946,1946,31.94,-16.55,-20.12,0
1947,1947,31.96,-6.73,1.6,0
1948,1948,31.97,5.56,7.15,0
1949,1949,31.98,7.83,-0.95,0
1950,1950,32.0,17.24,-18.7,0
1951,1951,32.01,25.05,-34.41,0
1952,1952,32.03,6.2,-11.02,0
1953,1953,32.04,-17.34,38.59,0
1954,1954,32.05,-31.15,38.98,0
1955,1955,32.06,-42.33,-23.65,0
1956,1956,32.08,-31.21,-85.32,0
1957,1957,32.09,2.83,-104.63,0
1958,1958,32.11,17.42,-82.23,0
1959,1959,32.12,-2.74,-19.88,0
1960,1960,32.13,-15.29,37.91,0
1961,1961,32.15,1.45,12.68,0
1962,1962,32.16,5.96,-55.75,0
1963,1963,32.17,-9.59,-76.85,0
1964,1964,32.19,-2.71,-69.1,0
1965,1965,32.2,18.63,-59.16,0
1966,1966,32.21,23.27,-50.99,0
1967,1967,32.22,21.39,-87.91,0
1968,1968,32.24,18.91,-163.99,0
1969,1969,32.25,10.28,-200.79,0
1970,1970,32.27,3.18,-160.8,0
1971,1971,32.28,-0.37,-78.32,0
1972,1972,32.29,-4.24,-5.6,0
1973,1973,32.31,-11.99,17.61,0
1974,1974,32.32,-19.57,-7.66,0
1975,1975,32.33,-7.95,-31.78,0
1976,1976,32.35,19.79,-17.88,0
1977,1977,32.36,28.25,15.03,0
1978,1978,32.37,12.84,31.84,0
1979,1979,32.39,6.25,32.3,0
1980,1980,32.4,14.57,41.91,0
1981,1981,32.41,16.26,61.99,0
1982,1982,32.43,5.94,72.23,0
1983,1983,32.44,-6.98,70.99,0
1984,1984,32.45,-14.65,70.92,0
1985,1985,32.47,-10.25,72.66,0
1986,1986,32.48,3.54,71.54,0
1987,1987,32.49,10.17,64.29,0
1988,1988,32.51,-2.38,50.91,0
1989,1989,32.52,-16.67,48.28,0
1990,1990,32.53,-9.58,64.76,0
1991,1991,32.54,5.99,73.49,0
1992,1992,32.56,6.95,61.64,0
1993,1993,32.57,-0.94,51.54,0
1994,1994,32.59,0.31,48.87,0
1995,1995,32.6,9.37,41.3,0
1996,1996,32.61,9.2,33.99,0
1997,1997,32.63,-3.42,34.75,0
1998,1998,32.64,-13.52,36.84,0
1999,1999,32.65,-11.79,38.23,0
2000,2000,32.67,-4.03,42.32,0
2001,2001,32.68,0.47,38.94,0
2002,2002,32.69,0.71,23.76,0
2003,2003,32.71,-0.5,13.8,0
2004,2004,32.72,-0.61,13.02,0
2005,2005,32.73,4.88,8.02,0
2006,2006,32.75,11.81,3.59,0
2007,2007,32.76,10.96,11.59,0
2008,2008,32.77,6.2,22.37,0
2009,2009,32.79,3.82,24.43,0
2010,2010,32.8,3.02,19.08,0
2011,2011,32.81,3.01,7.58,0
2012,2012,32.83,2.15,-1.4,0
2013,2013,32.84,-3.8,-1.94,0
2014,2014,32.85,-17.26,-3.0,0
2015,2015,32.87,-27.08,0.0,0
2016,2016,32.88,-15.25,11.46,0
2017,2017,32.89,12.44,14.22,0
2018,2018,32.9,25.82,4.43,0
2019,2019,32.92,12.86,-5.54,0
2020,2020,32.93,-5.15,-13.59,0
2021,2021,32.95,-10.98,-19.88,0
2022,2022,32.96,-9.48,-17.25,0
2023,2023,32.97,-7.05,-5.32,0
2024,2024,32.99,-4.4,2.93,0
2025,2025,33.0,-2.26,0.6,0
2026,2026,33.01,0.01,-1.81,0
2027,2027,33.03,1.55,-2.72,0
2028,2028,33.04,0.08,-15.86,0
2029,2029,33.05,-0.29,-34.47,0
2030,2030,33.06,4.54,-35.83,0
2031,2031,33.08,8.4,-21.31,0
2032,2032,33.09,5.63,-9.02,0
2033,2033,33.11,-0.82,-4.28,0
2034,2034,33.12,-2.94,-8.44,0
2035,2035,33.13,3.63,-19.73,0
2036,2036,33.15,4.81,-24.03,0
2037,2037,33.16,-12.12,-14.55,0
2038,2038,33.17,-25.95,-6.14,0
2039,2039,33.19,-14.52,-13.79,0
2040,2040,33.2,3.64,-26.58,0
2041,2041,33.21,5.52,-23.62,0
2042,2042,33.22,0.95,-12.06,0
2043,2043,33.24,2.59,-13.81,0
2044,2044,33.25,4.24,-21.43,0
2045,2045,33.27,2.04,-12.77,0
2046,2046,33.28,-2.96,1.22,0
2047,2047,33.29,-7.87,-6.12,0
2048,2048,33.31,-3.27,-27.2,0
2049,2049,33.32,6.91,-32.91,0
2050,2050,33.33,8.71,-21.36,0
2051,2051,33.35,5.5,-11.61,0
2052,2052,33.36,2.78,-8.14,0
2053,2053,33.37,-2.95,-9.23,0
2054,2054,33.38,-6.0,-16.69,0
2055,2055,33.4,-0.67,-19.78,0
2056,2056,33.41,7.72,-10.55,0
2057,2057,33.43,10.34,-2.81,0
2058,2058,33.44,3.96,-8.21,0
2059,2059,33.45,-0.77,-20.65,0
2060,2060,33.47,3.37,-26.43,0
2061,2061,33.48,5.09,-15.15,0
2062,2062,33.49,3.97,-0.96,0
2063,2063,33.51,11.76,-4.6,0
2064,2064,33.52,19.84,-15.45,0
2065,2065,33.53,12.46,-17.98,0
2066,2066,33.54,-2.22,-18.6,0
2067,2067,33.56,-6.91,-22.63,0
2068,2068,33.57,-4.14,-22.16,0
2069,2069,33.59,-6.79,-10.71,0
2070,2070,33.6,-10.03,3.29,0
2071,2071,33.61,-0.15,4.94,0
2072,2072,33.63,12.98,-6.28,0
2073,2073,33.64,8.13,-16.82,0
2074,2074,33.65,-6.59,-16.97,0
2075,2075,33.67,-11.9,-9.77,0
2076,2076,33.68,-12.41,-3.95,0
2077,2077,33.69,-12.51,-1.93,0
2078,2078,33.71,-5.77,2.3,0
2079,2079,33.72,2.03,7.31,0
2080,2080,33.73,-1.2,3.3,0
2081,2081,33.75,-11.36,-5.61,0
2082,2082,33.76,-11.94,-10.84,0
2083,2083,33.77,-0.61,-17.42,0
2084,2084,33.79,5.45,-20.74,0
2085,2085,33.8,1.96,-7.57,0
2086,2086,33.81,0.14,9.37,0
2087,2087,33.83,-3.57,9.18,0
2088,2088,33.84,-12.74,1.42,0
2089,2089,33.85,-13.18,3.31,0
2090,2090,33.87,-2.86,6.25,0
2091,2091,33.88,1.27,-2.6,0
2092,2092,33.89,-1.35,-9.25,0
2093,2093,33.9,3.24,2.86,0
2094,2094,33.92,8.83,16.34,0
2095,2095,33.93,1.18,12.79,0
2096,2096,33.95,-9.05,5.69,0
2097,2097,33.96,-5.4,3.64,0
2098,2098,33.97,7.16,-2.27,0
2099,2099,33.99,12.79,-3.13,0
2100,2100,34.0,3.6,9.38,0
2101,2101,34.01,-8.57,13.91,0
2102,2102,34.03,-6.47,3.77,0
2103,2103,34.04,-1.59,0.32,0
2104,2104,34.05,-15.91,8.31,0
2105,2105,34.06,-29.98,13.98,0
2106,2106,34.08,-17.64,11.33,0
2107,2107,34.09,-0.14,9.42,0
2108,2108,34.11,1.39,14.63,0
2109,2109,34.12,6.43,15.5,0
2110,2110,34.13,20.42,3.98,0
2111,2111,34.15,14.96,-9.43,0
2112,2112,34.16,-2.68,-7.45,0
2113,2113,34.17,1.76,8.93,0
2114,2114,34.19,19.75,10.76,0
2115,2115,34.2,29.3,-22.05,0
2116,2116,34.21,23.7,-74.18,0
2117,2117,34.23,8.64,-111.61,0
2118,2118,34.24,14.99,-114.1,0
2119,2119,34.25,45.78,-98.1,0
2120,2120,34.27,55.2,-91.85,0
2121,2121,34.28,28.39,-99.97,0
2122,2122,34.29,1.32,-112.41,0
2123,2123,34.31,0.02,-120.18,0
2124,2124,34.32,13.17,-112.93,0
2125,2125,34.33,20.01,-90.01,0
2126,2126,34.35,19.83,-66.33,0
2127,2127,34.36,16.36,-47.66,0
2128,2128,34.37,11.67,-23.21,0
2129,2129,34.38,15.84,11.53,0
2130,2130,34.4,16.99,45.62,0
2131,2131,34.41,2.44,67.02,0
2132,2132,34.43,-4.1,73.95,0
2133,2133,34.44,0.01,78.09,0
2134,2134,34.45,-9.48,97.43,0
2135,2135,34.47,-21.29,130.59,0
2136,2136,34.48,-16.91,154.95,0
2137,2137,34.49,-20.14,157.53,0
2138,2138,34.51,-44.71,151.06,0
2139,2139,34.52,-55.38,155.04,0
2140,2140,34.53,-39.85,166.56,0
2141,2141,34.54,-34.53,167.04,0
2142,2142,34.56,-46.26,156.57,0
2143,2143,34.57,-43.61,148.12,0
2144,2144,34.59,-24.43,142.78,0
2145,2145,34.6,-14.95,135.15,0
2146,2146,34.61,-19.33,121.61,0
2147,2147,34.63,-20.14,102.77,0
2148,2148,34.64,-17.73,88.78,0
2149,2149,34.65,-21.71,81.73,0
2150,2150,34.67,-22.81,68.55,0
2151,2151,34.68,-12.99,52.71,0
2152,2152,34.69,-4.98,47.5,0
2153,2153,34.71,-4.52,46.49,0
2154,2154,34.72,0.4,38.05,0
2155,2155,34.73,7.04,22.54,0
2156,2156,34.75,-1.37,8.46,0
2157,2157,34.76,-15.15,0.07,0
2158,2158,34.77,-8.29,-10.75,0
2159,2159,34.79,14.31,-20.79,0
2160,2160,34.8,16.22,-13.31,0
2161,2161,34.81,-14.21,-0.59,0
2162,2162,34.83,-28.83,-10.88,0
2163,2163,34.84,-0.33,-31.5,0
2164,2164,34.85,19.99,-29.73,0
2165,2165,34.87,2.83,-16.4,0
2166,2166,34.88,-7.02,-25.11,0
2167,2167,34.89,13.31,-44.15,0
2168,2168,34.91,22.66,-43.97,0
2169,2169,34.92,-7.14,-35.94,0
2170,2170,34.93,-30.63,-37.37,0
2171,2171,34.95,-3.13,-40.55,0
2172,2172,34.96,32.35,-42.56,0
2173,2173,34.97,28.65,-46.35,0
2174,2174,34.99,11.26,-51.39,0
2175,2175,35.0,9.79,-60.66,0
2176,2176,35.01,11.82,-70.09,0
2177,2177,35.03,5.3,-65.7,0
2178,2178,35.04,2.03,-48.98,0
2179,2179,35.05,8.8,-42.84,0
2180,2180,35.06,16.81,-53.55,0
2181,2181,35.08,15.58,-59.14,0
2182,2182,35.09,5.6,-53.04,0
2183,2183,35.11,-4.79,-52.37,0
2184,2184,35.12,-6.23,-60.53,0
2185,2185,35.13,11.78,-65.65,0
2186,2186,35.15,36.07,-60.95,0
2187,2187,35.16,29.09,-48.28,0
2188,2188,35.17,-1.55,-38.7,0
2189,2189,35.19,-6.81,-41.24,0
2190,2190,35.2,9.24,-46.75,0
2191,2191,35.21,1.99,-45.5,0
2192,2192,35.22,-16.67,-47.13,0
2193,2193,35.24,-5.84,-53.72,0
2194,2194,35.25,20.0,-49.76,0
2195,2195,35.27,22.99,-37.44,0
2196,2196,35.28,7.84,-34.54,0
2197,2197,35.29,0.83,-39.78,0
2198,2198,35.31,6.16,-34.96,0
2199,2199,35.32,8.32,-21.48,0
2200,2200,35.33,-1.95,-26.2,0
2201,2201,35.35,-16.27,-45.71,0
2202,2202,35.36,-14.54,-42.32,0
2203,2203,35.37,3.8,-21.56,0
2204,2204,35.38,12.59,-22.06,0
2205,2205,35.4,11.41,-35.07,0
2206,2206,35.41,18.4,-29.67,0
2207,2207,35.43,21.02,-15.98,0
2208,2208,35.44,12.71,-15.84,0
2209,2209,35.45,8.94,-22.67,0
2210,2210,35.47,5.43,-18.98,0
2211,2211,35.48,-1.42,-4.42,0
2212,2212,35.49,0.38,2.94,0
2213,2213,35.51,7.28,-5.03,0
2214,2214,35.52,7.8,-14.46,0
2215,2215,35.53,6.67,-15.31,0
2216,2216,35.55,12.99,-5.41,0
2217,2217,35.56,19.92,7.09,0
2218,2218,35.57,12.34,2.26,0
2219,2219,35.59,-1.43,-12.24,0
2220,2220,35.6,-2.59,-9.9,0
2221,2221,35.61,1.7,3.73,0
2222,2222,35.63,-0.27,10.26,0
2223,2223,35.64,-3.24,11.48,0
2224,2224,35.65,-3.49,14.64,0
2225,2225,35.67,-0.92,15.43,0
2226,2226,35.68,3.7,7.61,0
2227,2227,35.69,5.74,1.61,0
2228,2228,35.71,4.46,11.01,0
2229,2229,35.72,-1.55,21.39,0
2230,2230,35.73,-13.36,7.08,0
2231,2231,35.75,-21.95,-15.95,0
2232,2232,35.76,-19.24,-9.9,0
2233,2233,35.77,-9.2,15.66,0
2234,2234,35.79,-1.64,25.57,0
2235,2235,35.8,-0.27,22.01,0
2236,2236,35.81,1.83,24.96,0
2237,2237,35.83,8.8,30.78,0
2238,2238,35.84,15.29,27.8,0
2239,2239,35.85,14.5,23.74,0
2240,2240,35.87,2.17,27.2,0
2241,2241,35.88,-17.28,23.69,0
2242,2242,35.89,-26.36,8.63,0
2243,2243,35.9,-15.17,3.88,0
2244,2244,35.92,1.76,14.15,0
2245,2245,35.93,8.98,19.15,0
2246,2246,35.95,7.59,16.89,0
2247,2247,35.96,1.38,22.17,0
2248,2248,35.97,-4.57,32.32,0
2249,2249,35.99,-6.52,32.69,0
2250,2250,36.0,-10.56,22.99,0
2251,2251,36.01,-14.26,17.3,0
2252,2252,36.03,-5.05,22.04,0
2253,2253,36.04,6.45,27.25,0
2254,2254,36.05,-7.75,24.84,0
2255,2255,36.06,-35.32,20.41,0
2256,2256,36.08,-29.14,17.66,0
2257,2257,36.09,4.24,14.35,0
2258,2258,36.11,14.35,17.05,0
2259,2259,36.12,0.25,27.23,0
2260,2260,36.13,-3.93,30.24,0
2261,2261,36.15,8.57,21.25,0
2262,2262,36.16,13.82,13.76,0
2263,2263,36.17,-1.61,23.32,0
2264,2264,36.19,-5.79,59.73,0
2265,2265,36.2,12.2,126.98,0
2266,2266,36.21,11.03,215.23,0
2267,2267,36.23,-7.94,287.0,0
2268,2268,36.24,-5.34,296.87,0
2269,2269,36.25,13.02,247.11,0
2270,2270,36.27,15.37,193.1,0
2271,2271,36.28,-0.85,165.87,0
2272,2272,36.29,-14.51,129.44,0
2273,2273,36.31,-19.42,57.91,0
2274,2274,36.32,-24.01,-7.79,0
2275,2275,36.33,-26.52,-40.98,0
2276,2276,36.35,-23.21,-76.22,0
2277,2277,36.36,-17.28,-133.86,0
2278,2278,36.37,-10.69,-190.47,0
2279,2279,36.38,-6.31,-220.39,0
2280,2280,36.4,-5.09,-216.88,0
2281,2281,36.41,0.42,-195.29,0
2282,2282,36.43,10.88,-175.74,0
2283,2283,36.44,17.94,-158.91,0
2284,2284,36.45,20.72,-148.67,0
2285,2285,36.47,18.26,-152.92,0
2286,2286,36.48,9.15,-154.53,0
2287,2287,36.49,3.02,-137.66,0
2288,2288,36.51,4.36,-115.03,0
2289,2289,36.52,7.9,-101.8,0
2290,2290,36.53,12.15,-97.34,0
2291,2291,36.54,16.45,-94.58,0
2292,2292,36.56,14.68,-85.41,0
2293,2293,36.57,5.5,-67.46,0
2294,2294,36.59,-3.69,-53.92,0
2295,2295,36.6,-11.09,-52.91,0
2296,2296,36.61,-18.44,-50.34,0
2297,2297,36.63,-19.15,-37.23,0
2298,2298,36.64,-9.86,-24.61,0
2299,2299,36.65,1.03,-19.28,0
2300,2300,36.67,7.8,-15.6,0
2301,2301,36.68,10.7,-11.33,0
2302,2302,36.69,8.3,-8.69,0
2303,2303,36.71,2.46,-4.69,0
2304,2304,36.72,-2.99,-0.52,0
2305,2305,36.73,-5.67,-1.72,0
2306,2306,36.75,0.8,-1.67,0
2307,2307,36.76,11.83,7.29,0
2308,2308,36.77,12.09,19.84,0
2309,2309,36.79,3.97,31.62,0
2310,2310,36.8,-1.34,40.87,0
2311,2311,36.81,-2.86,43.16,0
2312,2312,36.83,-2.42,40.69,0
2313,2313,36.84,-4.3,35.25,0
2314,2314,36.85,-8.37,24.2,0
2315,2315,36.87,-7.3,21.5,0
2316,2316,36.88,-0.56,39.38,0
2317,2317,36.89,6.63,56.34,0
2318,2318,36.9,6.84,52.05,0
2319,2319,36.92,-2.79,42.17,0
2320,2320,36.93,-9.36,37.06,0
2321,2321,36.95,-5.62,25.88,0
2322,2322,36.96,0.32,19.22,0
2323,2323,36.97,2.78,29.94,0
2324,2324,36.99,-2.35,39.2,0
2325,2325,37.0,-11.54,40.5,0
2326,2326,37.01,-11.43,44.79,0
2327,2327,37.03,-4.67,41.12,0
2328,2328,37.04,-5.74,31.59,0
2329,2329,37.05,-8.73,39.01,0
2330,2330,37.06,-4.27,50.98,0
2331,2331,37.08,-6.2,44.36,0
2332,2332,37.09,-20.55,34.06,0
2333,2333,37.11,-26.39,36.55,0
2334,2334,37.12,-11.23,40.62,0
2335,2335,37.13,6.3,37.42,0
2336,2336,37.15,6.72,39.67,0
2337,2337,37.16,2.86,51.31,0
2338,2338,37.17,7.93,51.07,0
2339,2339,37.19,6.86,35.99,0
2340,2340,37.2,-6.07,30.16,0
2341,2341,37.21,-11.21,37.17,0
2342,2342,37.22,-0.42,37.12,0
2343,2343,37.24,10.44,26.95,0
2344,2344,37.25,9.83,23.32,0
2345,2345,37.27,4.15,28.33,0
2346,2346,37.28,1.46,28.78,0
2347,2347,37.29,-1.1,24.68,0
2348,2348,37.31,-4.82,19.59,0
2349,2349,37.32,-4.61,13.31,0
2350,2350,37.33,-2.18,13.39,0
2351,2351,37.35,0.78,19.64,0
2352,2352,37.36,4.71,16.77,0
2353,2353,37.37,2.78,3.98,0
2354,2354,37.38,-2.8,-1.32,0
2355,2355,37.4,1.73,5.93,0
2356,2356,37.41,14.92,10.95,0
2357,2357,37.43,17.88,7.61,0
2358,2358,37.44,4.71,10.29,0
2359,2359,37.45,-7.68,17.75,0
2360,2360,37.47,-8.72,12.26,0
2361,2361,37.48,-10.36,-0.21,0
2362,2362,37.49,-15.25,0.43,0
2363,2363,37.51,-8.87,9.6,0
2364,2364,37.52,0.62,8.82,0
2365,2365,37.53,0.12,-1.63,0
2366,2366,37.54,-1.17,-12.49,0
2367,2367,37.56,-5.08,-19.42,0
2368,2368,37.57,-14.08,-16.39,0
2369,2369,37.59,-7.4,-7.3,0
2370,2370,37.6,15.15,-5.44,0
2371,2371,37.61,26.04,-9.01,0
2372,2372,37.63,17.53,-8.45,0
2373,2373,37.64,6.74,-5.36,0
2374,2374,37.65,3.43,-8.83,0
2375,2375,37.67,1.99,-16.58,0
2376,2376,37.68,1.03,-16.79,0
2377,2377,37.69,7.42,-13.45,0
2378,2378,37.71,16.44,-13.76,0
2379,2379,37.72,14.99,-7.32,0
2380,2380,37.73,6.97,5.57,0
2381,2381,37.75,5.47,3.83,0
2382,2382,37.76,5.6,-16.87,0
2383,2383,37.77,-1.07,-31.96,0
2384,2384,37.79,-10.19,-27.41,0
2385,2385,37.8,-11.23,-16.57,0
2386,2386,37.81,2.75,-12.1,0
2387,2387,37.83,17.8,-14.88,0
2388,2388,37.84,15.35,-20.38,0
2389,2389,37.85,4.2,-20.15,0
2390,2390,37.87,-0.92,-13.64,0
2391,2391,37.88,-3.55,-12.18,0
2392,2392,37.89,-7.24,-17.53,0
2393,2393,37.9,-4.24,-20.02,0
2394,2394,37.92,3.64,-15.66,0
2395,2395,37.93,1.21,-9.08,0
2396,2396,37.95,-8.68,-9.01,0
2397,2397,37.96,-2.25,-15.17,0
2398,2398,37.97,16.67,-17.68,0
2399,2399,37.99,16.83,-16.64,0
2400,2400,38.0,2.64,-15.58,0
2401,2401,38.01,2.82,-11.46,0
2402,2402,38.03,8.27,-8.73,0
2403,2403,38.04,-2.71,-12.75,0
2404,2404,38.05,-21.04,-16.0,0
2405,2405,38.06,-31.61,-15.5,0
2406,2406,38.08,-28.56,-21.71,0
2407,2407,38.09,-4.73,-33.68,0
2408,2408,38.11,24.43,-36.05,0
2409,2409,38.12,27.26,-30.28,0
2410,2410,38.13,9.23,-26.5,0
2411,2411,38.15,-2.3,-16.24,0
2412,2412,38.16,-2.37,1.61,0
2413,2413,38.17,2.69,3.73,0
2414,2414,38.19,7.74,-7.1,0
2415,2415,38.2,12.16,17.29,0
2416,2416,38.21,24.17,79.96,0
2417,2417,38.22,34.77,79.51,0
2418,2418,38.24,18.35,-34.07,0
2419,2419,38.25,-8.68,-74.16,0
2420,2420,38.27,1.66,127.1,0
2421,2421,38.28,26.43,356.85,0
2422,2422,38.29,-1.91,331.99,0
2423,2423,38.31,-51.86,165.81,0
2424,2424,38.32,-42.11,92.25,0
2425,2425,38.33,2.93,52.97,0
2426,2426,38.35,7.28,-31.51,0
2427,2427,38.36,-19.08,-27.78,0
2428,2428,38.37,-21.66,64.29,0
2429,2429,38.38,-13.0,48.61,0
2430,2430,38.4,-20.17,-78.67,0
2431,2431,38.41,-7.03,-141.91,0
2432,2432,38.43,34.38,-123.25,0
2433,2433,38.44,43.49,-126.12,0
2434,2434,38.45,7.84,-164.73,0
2435,2435,38.47,-18.05,-185.11,0
2436,2436,38.48,-15.2,-150.07,0
2437,2437,38.49,-9.17,-89.07,0
2438,2438,38.51,-8.71,-87.75,0
2439,2439,38.52,-9.68,-153.38,0
2440,2440,38.53,-13.3,-182.41,0
2441,2441,38.54,-13.12,-140.68,0
2442,2442,38.56,-4.5,-103.26,0
2443,2443,38.57,1.0,-96.31,0
2444,2444,38.59,-7.58,-96.06,0
2445,2445,38.6,-15.1,-99.9,0
2446,2446,38.61,5.1,-88.76,0
2447,2447,38.63,38.02,-41.89,0
2448,2448,38.64,35.65,-7.58,0
2449,2449,38.65,-0.78,-36.97,0
2450,2450,38.67,-9.25,-69.92,0
2451,2451,38.68,25.44,-53.8,0
2452,2452,38.69,31.49,-29.4,0
2453,2453,38.71,-10.27,-4.53,0
2454,2454,38.72,-27.45,15.39,0
2455,2455,38.73,-5.64,0.3,0
2456,2456,38.75,-1.09,-6.05,0
2457,2457,38.76,-12.65,12.22,0
2458,2458,38.77,5.96,-12.66,0
2459,2459,38.79,31.73,-45.91,0
2460,2460,38.8,9.15,3.91,0
2461,2461,38.81,-30.49,55.32,0
2462,2462,38.83,-21.37,-2.14,0
2463,2463,38.84,15.01,-69.85,0
2464,2464,38.85,13.99,-17.47,0
2465,2465,38.87,-15.7,87.22,0
2466,2466,38.88,-26.05,96.98,0
2467,2467,38.89,-21.38,14.46,0
2468,2468,38.9,-21.44,-13.62,0
2469,2469,38.92,-13.81,63.47,0
2470,2470,38.93,3.34,134.71,0
2471,2471,38.95,10.67,136.56,0
2472,2472,38.96,6.32,93.4,0
2473,2473,38.97,4.96,27.4,0
2474,2474,38.99,8.77,-10.82,0
2475,2475,39.0,2.81,13.41,0
2476,2476,39.01,-12.65,48.0,0
2477,2477,39.03,-9.52,45.03,0
2478,2478,39.04,14.62,24.36,0
2479,2479,39.05,19.87,27.25,0
2480,2480,39.06,2.8,49.56,0
2481,2481,39.08,-4.18,34.89,0
2482,2482,39.09,-8.64,-15.4,0
2483,2483,39.11,-28.78,-9.43,0
2484,2484,39.12,-39.26,53.62,0
2485,2485,39.13,-16.82,65.37,0
2486,2486,39.15,12.15,38.98,0
2487,2487,39.16,14.81,51.31,0
2488,2488,39.17,1.82,54.17,0
2489,2489,39.19,2.86,27.59,0
2490,2490,39.2,19.3,34.22,0
2491,2491,39.21,21.07,50.3,0
2492,2492,39.22,3.51,30.96,0
2493,2493,39.24,-2.34,9.04,0
2494,2494,39.25,3.12,6.64,0
2495,2495,39.27,1.23,16.94,0
2496,2496,39.28,5.91,41.29,0
2497,2497,39.29,17.7,65.48,0
2498,2498,39.31,10.9,63.63,0
2499,2499,39.32,-4.76,44.63,0
2500,2500,39.33,-4.5,45.54,0
2501,2501,39.35,4.38,58.28,0
2502,2502,39.36,2.7,45.65,0
2503,2503,39.37,-4.37,17.02,0
2504,2504,39.38,4.29,-15.08,0
2505,2505,39.4,18.86,-44.79,0
2506,2506,39.41,13.29,-28.32,0
2507,2507,39.43,-4.5,30.97,0
2508,2508,39.44,-17.49,44.11,0
2509,2509,39.45,-21.21,-15.89,0
2510,2510,39.47,-11.68,-38.9,0
2511,2511,39.48,-0.86,36.37,0
2512,2512,39.49,-3.25,82.89,0
2513,2513,39.51,-8.09,9.91,0
2514,2514,39.52,0.98,-53.08,0
2515,2515,39.53,24.21,-5.76,0
2516,2516,39.54,38.06,50.93,0
2517,2517,39.56,21.24,35.98,0
2518,2518,39.57,-1.46,-5.95,0
2519,2519,39.59,3.27,-27.64,0
2520,2520,39.6,18.03,-14.93,0
2521,2521,39.61,3.56,7.82,0
2522,2522,39.63,-27.35,3.14,0
2523,2523,39.64,-21.27,14.16,0
2524,2524,39.65,11.36,42.88,0
2525,2525,39.67,5.71,-22.33,0
2526,2526,39.68,-23.96,-114.24,0
2527,2527,39.69,-9.8,-53.3,0
2528,2528,39.71,20.84,70.31,0
2529,2529,39.72,4.39,76.88,0
2530,2530,39.73,-17.32,20.11,0
2531,2531,39.75,-1.62,8.77,0
2532,2532,39.76,5.76,7.14,0
2533,2533,39.77,-4.28,0.1,0
2534,2534,39.79,3.25,37.0,0
2535,2535,39.8,8.72,59.52,0
2536,2536,39.81,-8.98,16.74,0
2537,2537,39.83,-21.76,-19.44,0
2538,2538,39.84,-8.82,-24.36,0
2539,2539,39.85,14.36,-19.58,0
2540,2540,39.87,16.87,19.49,0
2541,2541,39.88,-10.73,47.65,0
2542,2542,39.89,-31.43,-6.8,0
2543,2543,39.9,-12.17,-53.76,0
2544,2544,39.92,6.63,-10.52,0
2545,2545,39.93,-10.79,13.59,0
2546,2546,39.95,-18.1,-30.12,0
2547,2547,39.96,1.76,-23.13,0
2548,2548,39.97,9.16,37.19,0
2549,2549,39.99,11.29,32.6,0
2550,2550,40.0,22.42,-17.85,0
2551,2551,40.01,20.74,-20.91,0
2552,2552,40.03,11.7,-12.27,0
2553,2553,40.04,12.88,-57.75,0
2554,2554,40.05,9.6,-97.81,0
2555,2555,40.06,-9.91,-80.39,0
2556,2556,40.08,-27.05,-58.5,0
2557,2557,40.09,-17.47,-49.46,0
2558,2558,40.11,6.17,-24.29,0
2559,2559,40.12,6.25,-11.61,0
2560,2560,40.13,-17.3,-30.7,0
2561,2561,40.15,-30.82,-45.37,0
2562,2562,40.16,-23.43,-36.98,0
2563,2563,40.17,-16.04,-6.09,0
2564,2564,40.19,-16.39,23.89,0
2565,2565,40.2,-10.69,14.66,0
2566,2566,40.21,1.67,-16.85,0
2567,2567,40.22,11.83,-44.73,0
2568,2568,40.24,11.31,-66.06,0
2569,2569,40.25,3.73,-54.74,0
2570,2570,40.27,15.12,-15.18,0
2571,2571,40.28,35.77,-4.39,0
2572,2572,40.29,29.56,-24.99,0
2573,2573,40.31,13.36,-32.91,0
2574,2574,40.32,11.08,-32.79,0
2575,2575,40.33,8.13,-38.39,0
2576,2576,40.35,1.78,-31.09,0
2577,2577,40.36,-0.87,-7.63,0
2578,2578,40.37,-7.13,4.45,0
2579,2579,40.38,-18.84,-32.7,0
2580,2580,40.4,-23.97,-121.37,0
2581,2581,40.41,-13.21,-206.42,0
2582,2582,40.43,2.11,-228.38,0
2583,2583,40.44,2.21,-183.08,0
2584,2584,40.45,-7.63,-118.28,0
2585,2585,40.47,-12.35,-72.36,0
2586,2586,40.48,-11.36,-34.94,0
2587,2587,40.49,-6.7,12.61,0
2588,2588,40.51,-2.55,54.96,0
2589,2589,40.52,-0.68,76.67,0
2590,2590,40.53,7.2,89.96,0
2591,2591,40.54,13.45,95.99,0
2592,2592,40.56,6.67,87.45,0
2593,2593,40.57,0.63,85.39,0
2594,2594,40.59,4.45,97.24,0
2595,2595,40.6,3.15,90.23,0
2596,2596,40.61,-7.25,66.23,0
2597,2597,40.63,-10.56,63.01,0
2598,2598,40.64,-1.72,65.71,0
2599,2599,40.65,8.66,49.45,0
2600,2600,40.67,11.06,45.94,0
2601,2601,40.68,3.2,63.42,0
2602,2602,40.69,-6.26,70.39,0
2603,2603,40.71,-3.36,64.59,0
2604,2604,40.72,11.99,57.95,0
2605,2605,40.73,20.5,56.12,0
2606,2606,40.75,13.25,65.31,0
2607,2607,40.76,3.82,74.18,0
2608,2608,40.77,1.49,72.7,0
2609,2609,40.79,3.19,68.21,0
2610,2610,40.8,3.93,55.13,0
2611,2611,40.81,1.45,32.53,0
2612,2612,40.83,-0.35,23.79,0
2613,2613,40.84,0.8,31.91,0
2614,2614,40.85,0.95,40.6,0
2615,2615,40.87,1.27,45.98,0
2616,2616,40.88,5.03,43.73,0
2617,2617,40.89,4.59,29.68,0
2618,2618,40.9,-0.18,12.91,0
2619,2619,40.92,3.39,6.19,0
2620,2620,40.93,11.12,11.92,0
2621,2621,40.95,7.46,13.11,0
2622,2622,40.96,-3.5,2.57,0
2623,2623,40.97,-3.36,-0.5,0
2624,2624,40.99,7.11,3.53,0
2625,2625,41.0,9.01,-2.62,0
2626,2626,41.01,-0.8,-6.42,0
2627,2627,41.03,-10.39,3.19,0
2628,2628,41.04,-15.61,7.53,0
2629,2629,41.05,-13.3,1.71,0
2630,2630,41.06,-0.1,-4.14,0
2631,2631,41.08,10.29,-8.88,0
2632,2632,41.09,1.99,-10.31,0
2633,2633,41.11,-11.58,-11.88,0
2634,2634,41.12,-8.4,-20.97,0
2635,2635,41.13,4.01,-25.69,0
2636,2636,41.15,7.34,-13.42,0
2637,2637,41.16,4.02,-0.06,0
2638,2638,41.17,-0.2,-8.25,0
2639,2639,41.19,-8.22,-27.49,0
2640,2640,41.2,-10.74,-28.46,0
2641,2641,41.21,0.5,-13.45,0
2642,2642,41.22,9.63,-9.34,0
2643,2643,41.24,4.98,-18.11,0
2644,2644,41.25,-4.42,-24.29,0
2645,2645,41.27,-12.34,-27.55,0
2646,2646,41.28,-13.86,-30.81,0
2647,2647,41.29,-2.07,-26.09,0
2648,2648,41.31,9.75,-18.05,0
2649,2649,41.32,5.37,-25.97,0
2650,2650,41.33,-2.07,-40.4,0
2651,2651,41.35,3.34,-28.5,0
2652,2652,41.36,9.71,-0.05,0
2653,2653,41.37,6.24,-0.21,0
2654,2654,41.38,0.9,-27.83,0
2655,2655,41.4,-1.41,-39.44,0
2656,2656,41.41,-1.33,-30.44,0
2657,2657,41.43,3.06,-30.56,0
2658,2658,41.44,8.29,-37.95,0
2659,2659,41.45,2.68,-29.28,0
2660,2660,41.47,-7.77,-7.6,0
2661,2661,41.48,-0.84,4.13,0
2662,2662,41.49,11.99,-5.83,0
2663,2663,41.51,2.76,-26.76,0
2664,2664,41.52,-15.32,-34.58,0
2665,2665,41.53,-16.35,-22.19,0
2666,2666,41.54,-6.1,-7.41,0
2667,2667,41.56,-3.03,-3.46,0
2668,2668,41.57,-7.33,-13.06,0
2669,2669,41.59,-9.11,-27.97,0
2670,2670,41.6,-8.26,-27.3,0
2671,2671,41.61,-5.42,-16.99,0
2672,2672,41.63,2.03,-19.18,0
2673,2673,41.64,8.84,-25.32,0
2674,2674,41.65,8.87,-24.82,0
2675,2675,41.67,4.54,-25.33,0
2676,2676,41.68,1.51,-22.27,0
2677,2677,41.69,1.55,-5.23,0
2678,2678,41.71,1.71,6.9,0
2679,2679,41.72,-0.24,-5.73,0
2680,2680,41.73,-2.15,-17.06,0
2681,2681,41.75,-1.75,-4.42,0
2682,2682,41.76,0.1,6.39,0
2683,2683,41.77,0.53,0.56,0
2684,2684,41.79,-4.37,-2.13,0
2685,2685,41.8,-11.49,-0.86,0
2686,2686,41.81,-12.25,-7.01,0
2687,2687,41.83,-9.02,-12.02,0
2688,2688,41.84,-7.63,-7.73,0
2689,2689,41.85,-3.23,-0.45,0
2690,2690,41.87,0.72,0.4,0
2691,2691,41.88,-2.19,-1.29,0
2692,2692,41.89,-5.08,8.28,0
2693,2693,41.9,-6.97,18.99,0
2694,2694,41.92,-13.31,9.08,0
2695,2695,41.93,-14.88,-8.64,0
2696,2696,41.95,-0.68,-7.16,0
2697,2697,41.96,17.3,5.41,0
2698,2698,41.97,19.04,4.11,0
2699,2699,41.99,5.48,-5.26,0
2700,2700,42.0,-6.39,-2.73,0
2701,2701,42.01,-8.3,5.05,0
2702,2702,42.03,-5.73,7.44,0
2703,2703,42.04,-1.78,10.13,0
2704,2704,42.05,1.57,11.57,0
2705,2705,42.06,-5.49,7.74,0
2706,2706,42.08,-19.17,7.9,0
2707,2707,42.09,-18.68,15.86,0
2708,2708,42.11,-0.67,20.8,0
2709,2709,42.12,16.26,17.98,0
2710,2710,42.13,21.35,17.72,0
2711,2711,42.15,16.7,21.79,0
2712,2712,42.16,4.96,14.03,0
2713,2713,42.17,-1.38,-6.72,0
2714,2714,42.19,5.62,-13.36,0
2715,2715,42.2,10.18,3.79,0
2716,2716,42.21,8.96,18.23,0
2717,2717,42.22,13.94,8.87,0
2718,2718,42.24,20.75,-39.13,0
2719,2719,42.25,30.29,-115.26,0
2720,2720,42.27,46.88,-152.73,0
2721,2721,42.28,52.7,-126.61,0
2722,2722,42.29,40.87,-100.76,0
2723,2723,42.31,34.24,-110.99,0
2724,2724,42.32,49.0,-124.77,0
2725,2725,42.33,72.98,-121.21,0
2726,2726,42.35,87.12,-114.51,0
2727,2727,42.36,82.33,-108.44,0
2728,2728,42.37,56.27,-90.06,0
2729,2729,42.38,24.28,-56.21,0
2730,2730,42.4,-0.9,-19.37,0
2731,2731,42.41,-31.52,8.75,0
2732,2732,42.43,-59.08,33.65,0
2733,2733,42.44,-65.14,63.78,0
2734,2734,42.45,-72.02,89.26,0
2735,2735,42.47,-89.72,103.71,0
2736,2736,42.48,-89.71,122.42,0
2737,2737,42.49,-73.06,147.88,0
2738,2738,42.51,-70.91,156.98,0
2739,2739,42.52,-85.7,145.58,0
2740,2740,42.53,-92.89,145.9,0
2741,2741,42.54,-77.7,170.22,0
2742,2742,42.56,-51.37,187.06,0
2743,2743,42.57,-35.75,177.51,0
2744,2744,42.59,-30.27,159.47,0
2745,2745,42.6,-18.85,150.65,0
2746,2746,42.61,-3.36,143.61,0
2747,2747,42.63,3.72,127.91,0
2748,2748,42.64,0.91,113.06,0
2749,2749,42.65,-2.59,105.74,0
2750,2750,42.66,-0.22,95.46,0
2751,2751,42.68,2.0,79.0,0
2752,2752,42.69,1.47,64.9,0
2753,2753,42.71,6.49,54.38,0
2754,2754,42.72,10.68,42.96,0
2755,2755,42.73,3.35,31.41,0
2756,2756,42.75,-3.2,24.85,0
2757,2757,42.76,1.49,24.93,0
2758,2758,42.77,9.5,20.79,0
2759,2759,42.79,13.12,7.38,0
2760,2760,42.8,15.55,1.35,0
2761,2761,42.81,23.13,6.43,0
2762,2762,42.83,28.81,2.65,0
2763,2763,42.84,23.51,-14.19,0
2764,2764,42.85,15.77,-26.56,0
2765,2765,42.87,13.78,-27.37,0
2766,2766,42.88,15.88,-27.67,0
2767,2767,42.89,16.52,-35.08,0
2768,2768,42.9,8.04,-40.1,0
2769,2769,42.92,-4.5,-34.26,0
2770,2770,42.93,-9.37,-29.95,0
2771,2771,42.95,-2.76,-38.46,0
2772,2772,42.96,12.5,-49.7,0
2773,2773,42.97,23.58,-53.12,0
2774,2774,42.99,20.81,-50.31,0
2775,2775,43.0,13.65,-46.0,0
2776,2776,43.01,10.68,-47.78,0
2777,2777,43.03,9.45,-56.24,0
2778,2778,43.04,10.74,-61.64,0
2779,2779,43.05,15.28,-62.18,0
2780,2780,43.06,17.56,-60.13,0
2781,2781,43.08,16.46,-54.46,0
2782,2782,43.09,13.86,-51.18,0
2783,2783,43.11,7.94,-52.55,0
2784,2784,43.12,2.92,-53.64,0
2785,2785,43.13,5.41,-58.01,0
2786,2786,43.15,9.32,-63.2,0
2787,2787,43.16,6.47,-55.97,0
2788,2788,43.17,2.97,-41.22,0
2789,2789,43.19,5.17,-37.55,0
2790,2790,43.2,4.86,-44.05,0
2791,2791,43.21,-1.36,-42.09,0
2792,2792,43.22,-2.63,-31.87,0
2793,2793,43.24,-0.83,-33.92,0
2794,2794,43.25,-4.06,-42.48,0
2795,2795,43.27,-0.14,-33.45,0
2796,2796,43.28,16.65,-21.65,0
2797,2797,43.29,23.31,-35.76,0
2798,2798,43.3,11.6,-54.33,0
2799,2799,43.32,4.1,-45.88,0
2800,2800,43.33,6.95,-32.03,0
2801,2801,43.35,6.98,-36.71,0
2802,2802,43.36,5.68,-38.36,0
2803,2803,43.37,12.13,-26.76,0
2804,2804,43.38,16.93,-24.26,0
2805,2805,43.4,4.71,-31.35,0
2806,2806,43.41,-6.93,-27.9,0
2807,2807,43.43,7.58,-19.66,0
2808,2808,43.44,22.63,-23.73,0
2809,2809,43.45,8.16,-27.87,0
2810,2810,43.47,-9.64,-18.08,0
2811,2811,43.48,-5.82,-14.18,0
2812,2812,43.49,0.09,-26.07,0
2813,2813,43.51,-3.81,-30.89,0
2814,2814,43.52,-2.61,-18.62,0
2815,2815,43.53,2.55,-1.81,0
2816,2816,43.54,0.64,10.19,0
2817,2817,43.56,0.29,10.75,0
2818,2818,43.57,4.99,-2.23,0
2819,2819,43.59,0.65,-16.06,0
2820,2820,43.6,-11.27,-15.74,0
2821,2821,43.61,-14.62,-3.96,0
2822,2822,43.63,-5.4,2.78,0
2823,2823,43.64,10.04,-1.23,0
2824,2824,43.65,20.21,-4.11,0
2825,2825,43.67,13.98,1.71,0
2826,2826,43.68,-4.28,9.23,0
2827,2827,43.69,-15.98,10.83,0
2828,2828,43.71,-11.19,6.2,0
2829,2829,43.72,-3.84,1.44,0
2830,2830,43.73,-7.96,2.76,0
2831,2831,43.75,-10.56,7.96,0
2832,2832,43.76,-0.88,11.59,0
2833,2833,43.77,1.44,13.39,0
2834,2834,43.79,-9.68,16.21,0
2835,2835,43.8,-10.26,22.87,0
2836,2836,43.81,0.16,31.56,0
2837,2837,43.83,-0.42,30.9,0
2838,2838,43.84,-10.17,19.89,0
2839,2839,43.85,-14.61,15.98,0
2840,2840,43.87,-10.48,19.99,0
2841,2841,43.88,-2.42,18.06,0
2842,2842,43.89,4.95,15.8,0
2843,2843,43.9,10.91,22.82,0
2844,2844,43.92,10.66,31.28,0
2845,2845,43.93,-1.51,28.38,0
2846,2846,43.94,-19.17,18.81,0
2847,2847,43.96,-29.64,18.82,0
2848,2848,43.97,-26.79,19.53,0
2849,2849,43.99,-13.64,6.22,0
2850,2850,44.0,-1.31,-3.88,0
2851,2851,44.01,1.49,5.05,0
2852,2852,44.03,-5.58,19.95,0
2853,2853,44.04,-18.61,23.3,0
2854,2854,44.05,-31.46,16.63,0
2855,2855,44.06,-38.08,13.79,0
2856,2856,44.08,-31.74,18.63,0
2857,2857,44.09,-7.92,22.68,0
2858,2858,44.11,18.81,22.9,0
2859,2859,44.12,22.19,19.64,0
2860,2860,44.13,-0.79,12.97,0
2861,2861,44.15,-22.06,15.3,0
2862,2862,44.16,-12.8,29.0,0
2863,2863,44.17,15.51,31.13,0
2864,2864,44.19,24.42,20.68,0
2865,2865,44.2,7.8,31.26,0
2866,2866,44.21,-9.48,82.59,0
2867,2867,44.22,-12.27,163.45,0
2868,2868,44.24,-4.18,248.67,0
2869,2869,44.25,3.86,309.9,0
2870,2870,44.27,9.61,327.5,0
2871,2871,44.28,7.3,306.86,0
2872,2872,44.29,-15.49,268.5,0
2873,2873,44.31,-42.61,211.92,0
2874,2874,44.32,-47.05,119.94,0
2875,2875,44.33,-29.53,3.24,0
2876,2876,44.35,-8.67,-97.26,0
2877,2877,44.36,5.74,-153.52,0
2878,2878,44.37,22.86,-179.12,0
2879,2879,44.38,46.53,-206.22,0
2880,2880,44.4,59.72,-236.95,0
2881,2881,44.41,52.58,-252.53,0
2882,2882,44.43,35.62,-247.23,0
2883,2883,44.44,18.52,-226.09,0
2884,2884,44.45,2.15,-198.4,0
2885,2885,44.47,-9.82,-167.96,0
2886,2886,44.48,-8.2,-136.97,0
2887,2887,44.49,7.11,-121.07,0
2888,2888,44.51,25.35,-122.0,0
2889,2889,44.52,35.25,-121.73,0
2890,2890,44.53,29.64,-114.28,0
2891,2891,44.54,12.91,-104.52,0
2892,2892,44.56,-2.24,-99.62,0
2893,2893,44.57,-8.58,-105.27,0
2894,2894,44.58,-1.82,-107.62,0
2895,2895,44.6,19.23,-90.14,0
2896,2896,44.61,34.15,-60.14,0
2897,2897,44.63,22.38,-35.64,0
2898,2898,44.64,3.91,-30.8,0
2899,2899,44.65,2.65,-36.68,0
2900,2900,44.67,6.67,-26.5,0
2901,2901,44.68,4.9,-1.71,0
2902,2902,44.69,1.71,10.13,0
2903,2903,44.71,-5.51,4.28,0
2904,2904,44.72,-17.14,1.79,0
2905,2905,44.73,-21.79,11.68,0
2906,2906,44.75,-16.06,19.25,0
2907,2907,44.76,-7.09,17.15,0
2908,2908,44.77,-0.17,17.21,0
2909,2909,44.79,2.44,23.11,0
2910,2910,44.8,-1.41,29.48,0
2911,2911,44.81,-12.96,37.13,0
2912,2912,44.83,-21.35,43.76,0
2913,2913,44.84,-12.34,46.56,0
2914,2914,44.85,2.01,50.21,0
2915,2915,44.87,3.09,53.32,0
2916,2916,44.88,-0.57,49.78,0
2917,2917,44.89,-2.36,45.66,0
2918,2918,44.9,-13.47,44.31,0
2919,2919,44.92,-26.57,37.73,0
2920,2920,44.93,-19.46,30.33,0
2921,2921,44.95,2.55,34.44,0
2922,2922,44.96,10.72,48.17,0
2923,2923,44.97,0.06,60.75,0
2924,2924,44.99,-6.21,64.46,0
2925,2925,45.0,-3.34,56.69,0
2926,2926,45.01,-6.58,44.24,0
2927,2927,45.03,-14.22,42.26,0
2928,2928,45.04,-13.4,53.93,0
2929,2929,45.05,-6.03,60.85,0
2930,2930,45.06,-4.0,53.43,0
2931,2931,45.08,-9.89,45.33,0
2932,2932,45.09,-11.65,45.94,0
2933,2933,45.11,-3.03,46.47,0
2934,2934,45.12,2.03,44.28,0
2935,2935,45.13,-4.36,48.83,0
2936,2936,45.15,-9.57,55.16,0
2937,2937,45.16,-7.3,50.22,0
2938,2938,45.17,-4.64,36.95,0
2939,2939,45.19,-1.62,23.46,0
2940,2940,45.2,4.69,14.08,0
2941,2941,45.21,5.92,14.44,0
2942,2942,45.22,-1.37,25.7,0
2943,2943,45.24,-3.9,36.6,0
2944,2944,45.25,3.12,34.79,0
2945,2945,45.26,9.36,25.67,0
2946,2946,45.28,8.98,19.74,0
2947,2947,45.29,4.79,15.56,0
2948,2948,45.31,-0.84,10.42,0
2949,2949,45.32,-8.93,10.13,0
2950,2950,45.33,-14.06,15.52,0
2951,2951,45.35,-7.76,18.13,0
2952,2952,45.36,2.61,17.44,0
2953,2953,45.37,3.15,21.39,0
2954,2954,45.38,-3.57,24.88,0
2955,2955,45.4,-5.77,18.4,0
2956,2956,45.41,-1.21,7.77,0
2957,2957,45.43,2.9,1.74,0
2958,2958,45.44,0.89,3.36,0
2959,2959,45.45,-4.94,11.71,0
2960,2960,45.47,-6.15,13.46,0
2961,2961,45.48,-2.81,-0.39,0
2962,2962,45.49,0.99,-14.73,0
2963,2963,45.51,6.37,-14.81,0
2964,2964,45.52,3.47,-6.37,0
2965,2965,45.53,-13.09,-0.3,0
2966,2966,45.54,-17.93,-1.36,0
2967,2967,45.56,1.65,-10.72,0
2968,2968,45.57,18.42,-23.34,0
2969,2969,45.59,11.63,-27.16,0
2970,2970,45.6,-0.96,-21.87,0
2971,2971,45.61,2.21,-16.49,0
2972,2972,45.63,7.43,-10.5,0
2973,2973,45.64,-5.21,-5.51,0
2974,2974,45.65,-17.89,-7.67,0
2975,2975,45.67,-4.02,-13.91,0
2976,2976,45.68,19.71,-20.71,0
2977,2977,45.69,18.55,-22.64,0
2978,2978,45.71,2.02,-14.29,0
2979,2979,45.72,1.34,-3.69,0
2980,2980,45.73,6.99,-1.83,0
2981,2981,45.75,-3.8,-8.86,0
2982,2982,45.76,-17.37,-18.56,0
2983,2983,45.77,-14.03,-27.16,0
2984,2984,45.79,-1.67,-29.56,0
2985,2985,45.8,9.18,-20.35,0
2986,2986,45.81,16.85,-9.31,0
2987,2987,45.83,17.34,-11.1,0
2988,2988,45.84,13.47,-20.79,0
2989,2989,45.85,9.92,-29.26,0
2990,2990,45.86,4.65,-38.71,0
2991,2991,45.88,1.19,-44.2,0
2992,2992,45.89,1.17,-33.55,0
2993,2993,45.9,0.53,-12.85,0
2994,2994,45.92,3.66,-0.32,0
2995,2995,45.93,12.53,3.6,0
2996,2996,45.95,16.73,6.5,0
2997,2997,45.96,12.68,3.1,0
2998,2998,45.97,9.1,-7.32,0
2999,2999,45.99,5.84,-15.04,0
3000,3000,46.0,-5.58,-19.9,0
3001,3001,46.01,-14.77,-25.1,0
3002,3002,46.03,-3.87,-20.98,0
3003,3003,46.04,13.89,-2.7,0
3004,3004,46.05,9.27,9.47,0
3005,3005,46.06,-17.41,0.59,0
3006,3006,46.08,-34.43,-12.15,0
3007,3007,46.09,-22.06,-13.91,0
3008,3008,46.11,0.16,-15.28,0
3009,3009,46.12,8.45,-24.4,0
3010,3010,46.13,7.16,-29.37,0
3011,3011,46.15,7.21,-17.71,0
3012,3012,46.16,9.05,-0.38,0
3013,3013,46.17,12.26,12.96,0
3014,3014,46.19,9.38,52.05,0
3015,3015,46.2,-5.74,120.23,0
3016,3016,46.21,-9.63,163.89,0
3017,3017,46.22,12.86,150.61,0
3018,3018,46.24,29.3,94.47,0
3019,3019,46.25,19.71,38.3,0
3020,3020,46.27,9.13,-4.63,0
3021,3021,46.28,14.04,-68.1,0
3022,3022,46.29,19.16,-170.07,0
3023,3023,46.31,10.52,-213.46,0
3024,3024,46.32,2.95,-42.03,0
3025,3025,46.33,6.66,207.26,0
3026,3026,46.35,0.93,239.1,0
3027,3027,46.36,-7.02,115.55,0
3028,3028,46.37,12.87,44.8,0
3029,3029,46.38,29.38,28.83,0
3030,3030,46.4,2.7,31.8,0
3031,3031,46.41,-30.69,43.85,0
3032,3032,46.43,-23.09,-11.78,0
3033,3033,46.44,5.81,-144.73,0
3034,3034,46.45,6.06,-201.21,0
3035,3035,46.47,-20.17,-133.25,0
3036,3036,46.48,-31.94,-91.59,0
3037,3037,46.49,-26.89,-107.6,0
3038,3038,46.5,-28.16,-118.43,0
3039,3039,46.52,-27.25,-140.76,0
3040,3040,46.53,-11.76,-135.34,0
3041,3041,46.54,0.87,-85.77,0
3042,3042,46.56,0.21,-78.37,0
3043,3043,46.57,-3.65,-103.06,0
3044,3044,46.59,-2.27,-103.94,0
3045,3045,46.6,5.27,-93.52,0
3046,3046,46.61,9.94,-60.38,0
3047,3047,46.63,1.29,-16.56,0
3048,3048,46.64,-15.25,-15.52,0
3049,3049,46.65,-26.91,-44.05,0
3050,3050,46.67,-25.01,-79.19,0
3051,3051,46.68,-8.31,-104.51,0
3052,3052,46.69,1.7,-61.67,0
3053,3053,46.71,-9.19,21.32,0
3054,3054,46.72,-14.58,33.76,0
3055,3055,46.73,-0.18,-18.53,0
3056,3056,46.75,14.81,-38.37,0
3057,3057,46.76,15.87,-1.84,0
3058,3058,46.77,3.72,37.44,0
3059,3059,46.79,-5.12,44.86,0
3060,3060,46.8,-2.25,34.07,0
3061,3061,46.81,-1.4,26.67,0
3062,3062,46.83,-2.86,46.11,0
3063,3063,46.84,0.11,92.87,0
3064,3064,46.85,-1.26,103.39,0
3065,3065,46.87,-6.09,42.33,0
3066,3066,46.88,-1.17,-19.52,0
3067,3067,46.89,14.23,-9.88,0
3068,3068,46.9,32.51,49.15,0
3069,3069,46.92,44.67,70.37,0
3070,3070,46.93,32.85,28.59,0
3071,3071,46.95,-4.32,10.58,0
3072,3072,46.96,-28.88,51.54,0
3073,3073,46.97,-19.44,62.91,0
3074,3074,46.99,-1.58,6.57,0
3075,3075,47.0,9.03,-21.75,0
3076,3076,47.01,15.35,30.37,0
3077,3077,47.03,9.2,73.37,0
3078,3078,47.04,-2.93,62.02,0
3079,3079,47.05,-3.05,47.76,0
3080,3080,47.06,-8.77,29.53,0
3081,3081,47.08,-28.6,3.28,0
3082,3082,47.09,-20.78,5.58,0
3083,3083,47.11,15.25,14.11,0
3084,3084,47.12,18.18,19.39,0
3085,3085,47.13,-9.65,61.63,0
3086,3086,47.14,-8.06,84.71,0
3087,3087,47.16,14.95,31.22,0
3088,3088,47.17,10.27,-34.71,0
3089,3089,47.18,-3.54,-70.97,0
3090,3090,47.2,17.42,-64.93,0
3091,3091,47.21,39.68,-2.18,0
3092,3092,47.22,11.44,47.36,0
3093,3093,47.24,-29.08,15.46,0
3094,3094,47.25,-26.66,-41.73,0
3095,3095,47.27,-7.85,-17.54,0
3096,3096,47.28,-5.67,68.22,0
3097,3097,47.29,0.86,95.61,0
3098,3098,47.31,12.5,54.93,0
3099,3099,47.32,-0.83,27.02,0
3100,3100,47.33,-22.88,38.96,0
3101,3101,47.35,-13.36,72.36,0
3102,3102,47.36,6.91,88.18,0
3103,3103,47.37,3.9,49.77,0
3104,3104,47.38,-4.47,-18.08,0
3105,3105,47.4,-5.19,-57.02,0
3106,3106,47.41,-1.61,-33.4,0
3107,3107,47.43,11.62,31.92,0
3108,3108,47.44,19.68,65.31,0
3109,3109,47.45,11.32,34.88,0
3110,3110,47.47,3.52,-1.19,0
3111,3111,47.48,5.29,11.64,0
3112,3112,47.49,11.34,35.61,0
3113,3113,47.51,16.57,18.29,0
3114,3114,47.52,10.35,-1.69,0
3115,3115,47.53,-3.79,9.13,0
3116,3116,47.54,-5.64,15.11,0
3117,3117,47.56,3.57,14.44,0
3118,3118,47.57,9.65,26.04,0
3119,3119,47.59,4.47,25.4,0
3120,3120,47.6,-12.13,7.48,0
3121,3121,47.61,-16.6,0.04,0
3122,3122,47.63,-1.69,6.27,0
3123,3123,47.64,3.89,4.98,0
3124,3124,47.65,1.48,-10.56,0
3125,3125,47.67,7.74,-5.17,0
3126,3126,47.68,7.29,13.19,0
3127,3127,47.69,-3.0,-21.35,0
3128,3128,47.71,-7.47,-46.41,0
3129,3129,47.72,-2.98,17.84,0
3130,3130,47.73,6.63,64.28,0
3131,3131,47.75,5.78,24.24,0
3132,3132,47.76,-9.06,-19.01,0
3133,3133,47.77,-10.89,-20.76,0
3134,3134,47.78,0.16,-8.53,0
3135,3135,47.8,-3.06,-11.17,0
3136,3136,47.81,-17.09,-35.33,0
3137,3137,47.82,-23.93,-38.37,0
3138,3138,47.84,-21.15,10.49,0
3139,3139,47.85,-9.33,57.72,0
3140,3140,47.86,4.96,45.17,0
3141,3141,47.88,4.81,-16.16,0
3142,3142,47.89,-9.73,-70.4,0
3143,3143,47.9,-14.05,-72.16,0
3144,3144,47.92,1.69,-30.27,0
3145,3145,47.93,14.57,1.19,0
3146,3146,47.95,4.91,-2.68,0
3147,3147,47.96,-15.28,-23.87,0
3148,3148,47.97,-17.45,-62.24,0
3149,3149,47.99,7.01,-89.17,0
3150,3150,48.0,29.15,-56.93,0
3151,3151,48.01,16.18,10.2,0
3152,3152,48.03,-10.3,41.0,0
3153,3153,48.04,1.03,-13.24,0
3154,3154,48.05,29.28,-84.92,0
3155,3155,48.06,11.87,-63.17,0
3156,3156,48.08,-28.15,24.25,0
3157,3157,48.09,-32.21,66.73,0
3158,3158,48.11,-16.62,18.29,0
3159,3159,48.12,-8.95,-49.38,0
3160,3160,48.13,2.38,-52.87,0
3161,3161,48.15,13.48,-23.46,0
3162,3162,48.16,16.4,-2.85,0
3163,3163,48.17,22.33,32.72,0
3164,3164,48.19,22.08,57.96,0
3165,3165,48.2,3.79,-1.93,0
3166,3166,48.21,-9.67,-130.57,0
3167,3167,48.22,4.53,-229.64,0
3168,3168,48.24,33.94,-257.76,0
3169,3169,48.25,53.07,-231.82,0
3170,3170,48.27,58.52,-157.99,0
3171,3171,48.28,52.49,-55.71,0
3172,3172,48.29,28.61,16.09,0
3173,3173,48.31,-3.08,16.35,0
3174,3174,48.32,-30.27,-20.49,0
3175,3175,48.33,-49.85,-24.13,0
3176,3176,48.35,-53.62,17.57,0
3177,3177,48.36,-49.06,59.08,0
3178,3178,48.37,-47.7,79.57,0
3179,3179,48.38,-35.71,95.81,0
3180,3180,48.4,-11.4,112.95,0
3181,3181,48.41,1.37,114.38,0
3182,3182,48.42,-8.66,93.19,0
3183,3183,48.44,-24.49,74.23,0
3184,3184,48.45,-18.92,80.93,0
3185,3185,48.46,6.17,100.01,0
3186,3186,48.48,21.99,110.49,0
3187,3187,48.49,20.3,105.5,0
3188,3188,48.5,11.2,86.93,0
3189,3189,48.52,-0.3,68.51,0
3190,3190,48.53,-6.13,61.23,0
3191,3191,48.54,-1.65,56.39,0
3192,3192,48.56,2.91,43.46,0
3193,3193,48.57,2.02,29.32,0
3194,3194,48.59,2.9,20.66,0
3195,3195,48.6,5.34,15.18,0
3196,3196,48.61,-1.08,14.31,0
3197,3197,48.63,-12.49,16.35,0
3198,3198,48.64,-11.22,17.42,0
3199,3199,48.65,2.85,22.75,0
3200,3200,48.67,11.95,28.84,0
3201,3201,48.68,9.18,23.39,0
3202,3202,48.69,2.61,11.01,0
3203,3203,48.71,-0.35,0.63,0
3204,3204,48.72,-2.7,-6.6,0
3205,3205,48.73,-5.84,-5.4,0
3206,3206,48.75,-2.03,2.29,0
3207,3207,48.76,5.41,4.74,0
3208,3208,48.77,3.28,1.47,0
3209,3209,48.79,-3.43,0.42,0
3210,3210,48.8,-2.45,2.35,0
3211,3211,48.81,4.72,1.69,0
3212,3212,48.83,10.82,-8.3,0
3213,3213,48.84,4.78,-23.85,0
3214,3214,48.85,-12.0,-28.13,0
3215,3215,48.87,-18.05,-16.81,0
3216,3216,48.88,-5.0,-7.34,0
3217,3217,48.89,7.52,-6.8,0
3218,3218,48.9,3.05,-5.49,0
3219,3219,48.92,-9.03,-0.91,0
3220,3220,48.93,-9.91,-1.6,0
3221,3221,48.95,0.65,-14.25,0
3222,3222,48.96,8.52,-24.2,0
3223,3223,48.97,9.63,-14.23,0
3224,3224,48.99,8.5,-0.56,0
3225,3225,49.0,3.67,-4.98,0
3226,3226,49.01,-5.02,-19.03,0
3227,3227,49.03,-7.8,-24.85,0
3228,3228,49.04,2.48,-21.82,0
3229,3229,49.05,15.72,-17.62,0
3230,3230,49.06,15.09,-15.55,0
3231,3231,49.08,3.93,-21.19,0
3232,3232,49.09,-0.22,-31.42,0
3233,3233,49.1,3.49,-29.1,0
3234,3234,49.12,-2.49,-14.62,0
3235,3235,49.13,-19.0,-7.22,0
3236,3236,49.14,-22.26,-15.37,0
3237,3237,49.16,-10.49,-25.1,0
3238,3238,49.17,-6.57,-16.34,0
3239,3239,49.19,-5.08,0.7,0
3240,3240,49.2,12.32,-7.74,0
3241,3241,49.21,30.6,-34.51,0
3242,3242,49.22,29.89,-38.46,0
3243,3243,49.24,18.16,-23.67,0
3244,3244,49.25,8.46,-23.49,0
3245,3245,49.27,4.06,-30.41,0
3246,3246,49.28,3.65,-28.39,0
3247,3247,49.29,-0.0,-22.98,0
3248,3248,49.31,-9.69,-14.04,0
3249,3249,49.32,-10.64,-10.0,0
3250,3250,49.33,4.84,-18.59,0
3251,3251,49.35,14.4,-16.81,0
3252,3252,49.36,4.17,-2.85,0
3253,3253,49.37,-8.12,-6.37,0
3254,3254,49.38,-13.18,-17.92,0
3255,3255,49.4,-17.63,-7.61,0
3256,3256,49.41,-12.28,10.02,0
3257,3257,49.43,6.98,8.67,0
3258,3258,49.44,13.52,-1.11,0
3259,3259,49.45,-3.51,0.59,0
3260,3260,49.47,-18.51,3.5,0
3261,3261,49.48,-17.02,-8.11,0
3262,3262,49.49,-6.89,-16.91,0
3263,3263,49.51,4.32,-10.16,0
3264,3264,49.52,8.83,-5.78,0
3265,3265,49.53,1.82,-9.78,0
3266,3266,49.54,-5.67,-12.16,0
3267,3267,49.56,0.36,-9.81,0
3268,3268,49.57,13.14,0.92,0
3269,3269,49.59,12.19,14.02,0
3270,3270,49.6,-1.0,9.83,0
3271,3271,49.61,-3.28,-12.09,0
3272,3272,49.63,4.92,-25.58,0
3273,3273,49.64,2.3,-12.68,0
3274,3274,49.65,-8.62,9.17,0
3275,3275,49.67,-10.63,12.22,0
3276,3276,49.68,-5.03,2.46,0
3277,3277,49.69,1.66,3.88,0
3278,3278,49.7,9.52,12.5,0
3279,3279,49.72,11.62,5.63,0
3280,3280,49.73,4.51,-9.64,0
3281,3281,49.74,1.76,-6.19,0
3282,3282,49.76,8.66,5.48,0
3283,3283,49.77,6.33,-3.27,0
3284,3284,49.78,-7.75,-16.67,0
3285,3285,49.8,-8.97,-8.0,0
3286,3286,49.81,5.85,5.92,0
3287,3287,49.83,13.21,2.01,0
3288,3288,49.84,5.64,-6.92,0
3289,3289,49.85,-0.44,0.9,0
3290,3290,49.87,4.74,17.03,0
3291,3291,49.88,8.69,15.16,0
3292,3292,49.89,3.13,-0.13,0
3293,3293,49.9,-1.09,-2.76,0
3294,3294,49.92,1.46,2.5,0
3295,3295,49.93,2.11,-0.77,0
3296,3296,49.95,-0.51,0.54,0
3297,3297,49.96,-0.96,12.58,0
3298,3298,49.97,-2.26,13.6,0
3299,3299,49.99,-6.21,-0.96,0
3300,3300,50.0,-1.59,-7.48,0
3301,3301,50.01,12.89,1.96,0
3302,3302,50.03,16.78,7.04,0
3303,3303,50.04,2.18,3.06,0
3304,3304,50.05,-8.77,8.64,0
3305,3305,50.06,-10.92,17.96,0
3306,3306,50.08,-26.39,6.95,0
3307,3307,50.09,-44.44,-8.08,0
3308,3308,50.11,-29.45,4.49,0
3309,3309,50.12,7.7,24.01,0
3310,3310,50.13,24.54,20.55,0
3311,3311,50.15,13.44,12.46,0
3312,3312,50.16,-4.47,17.66,0
3313,3313,50.17,-17.22,19.94,0
3314,3314,50.19,-19.06,1.56,0
3315,3315,50.2,-7.33,-40.39,0
3316,3316,50.21,9.8,-90.36,0
3317,3317,50.22,21.85,-117.74,0
3318,3318,50.24,24.21,-113.87,0
3319,3319,50.25,23.25,-104.25,0
3320,3320,50.27,32.52,-111.61,0
3321,3321,50.28,50.45,-132.81,0
3322,3322,50.29,58.55,-151.79,0
3323,3323,50.31,48.65,-156.51,0
3324,3324,50.32,35.77,-141.57,0
3325,3325,50.33,32.42,-109.3,0
3326,3326,50.34,30.21,-66.02,0
3327,3327,50.36,23.29,-15.87,0
3328,3328,50.37,18.27,32.8,0
3329,3329,50.38,12.77,67.8,0
3330,3330,50.4,-1.39,87.13,0
3331,3331,50.41,-20.06,99.69,0
3332,3332,50.42,-34.02,116.94,0
3333,3333,50.44,-46.46,138.26,0
3334,3334,50.45,-61.01,147.98,0
3335,3335,50.46,-64.75,146.21,0
3336,3336,50.48,-51.89,151.17,0
3337,3337,50.49,-43.8,160.43,0
3338,3338,50.51,-52.41,158.65,0
3339,3339,50.52,-55.23,154.72,0
3340,3340,50.53,-33.62,163.77,0
3341,3341,50.54,-11.77,172.7,0
3342,3342,50.56,-15.25,162.67,0
3343,3343,50.57,-20.61,141.17,0
3344,3344,50.59,-8.51,125.37,0
3345,3345,50.6,-5.26,113.31,0
3346,3346,50.61,-17.61,95.2,0
3347,3347,50.63,-13.52,77.7,0
3348,3348,50.64,3.6,67.99,0
3349,3349,50.65,-2.29,60.79,0
3350,3350,50.67,-20.21,56.12,0
3351,3351,50.68,-11.88,51.75,0
3352,3352,50.69,8.95,39.44,0
3353,3353,50.71,4.61,23.49,0
3354,3354,50.72,-11.74,13.57,0
3355,3355,50.73,-7.69,11.77,0
3356,3356,50.75,1.43,12.84,0
3357,3357,50.76,-4.1,7.14,0
3358,3358,50.77,-2.39,-4.34,0
3359,3359,50.79,10.43,-11.1,0
3360,3360,50.8,7.21,-13.42,0
3361,3361,50.81,-5.55,-20.08,0
3362,3362,50.83,1.4,-31.52,0
3363,3363,50.84,18.23,-40.06,0
3364,3364,50.85,12.96,-39.62,0
3365,3365,50.87,-4.18,-35.49,0
3366,3366,50.88,-1.35,-39.53,0
3367,3367,50.89,8.55,-51.53,0
3368,3368,50.9,0.14,-58.06,0
3369,3369,50.92,-8.83,-56.25,0
3370,3370,50.93,5.61,-56.27,0
3371,3371,50.95,27.45,-57.02,0
3372,3372,50.96,28.01,-51.75,0
3373,3373,50.97,13.37,-47.7,0
3374,3374,50.98,9.54,-50.74,0
3375,3375,51.0,13.87,-56.5,0
3376,3376,51.01,11.07,-62.4,0
3377,3377,51.02,11.47,-66.31,0
3378,3378,51.04,17.7,-65.93,0
3379,3379,51.05,9.09,-59.8,0
3380,3380,51.06,-7.52,-48.69,0
3381,3381,51.08,-3.36,-38.98,0
3382,3382,51.09,12.43,-39.72,0
3383,3383,51.1,6.56,-52.36,0
3384,3384,51.12,-9.92,-62.46,0
3385,3385,51.13,0.43,-60.35,0
3386,3386,51.15,19.02,-54.98,0
3387,3387,51.16,6.82,-49.41,0
3388,3388,51.17,-9.04,-39.68,0
3389,3389,51.19,7.03,-34.38,0
3390,3390,51.2,25.23,-41.04,0
3391,3391,51.21,15.1,-50.93,0
3392,3392,51.22,0.79,-50.64,0
3393,3393,51.24,4.48,-44.46,0
3394,3394,51.25,7.92,-45.55,0
3395,3395,51.27,-1.54,-46.04,0
3396,3396,51.28,-5.95,-35.65,0
3397,3397,51.29,3.28,-27.91,0
3398,3398,51.31,6.53,-31.92,0
3399,3399,51.32,0.46,-34.81,0
3400,3400,51.33,6.94,-29.84,0
3401,3401,51.35,19.47,-26.67,0
3402,3402,51.36,11.04,-30.88,0
3403,3403,51.37,-6.08,-32.96,0
3404,3404,51.38,-1.67,-23.79,0
3405,3405,51.4,11.92,-11.2,0
3406,3406,51.41,1.92,-4.18,0
3407,3407,51.43,-18.97,-2.19,0
3408,3408,51.44,-8.37,-8.87,0
3409,3409,51.45,22.67,-20.96,0
3410,3410,51.47,21.22,-23.12,0
3411,3411,51.48,-4.35,-14.43,0
3412,3412,51.49,-4.63,-8.62,0
3413,3413,51.51,11.71,-9.8,0
3414,3414,51.52,7.3,-8.46,0
3415,3415,51.53,-7.92,-1.19,0
3416,3416,51.54,-6.73,3.96,0
3417,3417,51.56,1.35,5.18,0
3418,3418,51.57,-0.48,6.41,0
3419,3419,51.59,-1.88,7.17,0
3420,3420,51.6,0.96,5.9,0
3421,3421,51.61,-2.73,1.36,0
3422,3422,51.62,-6.74,-0.54,0
3423,3423,51.64,-1.02,8.13,0
3424,3424,51.65,6.78,11.68,0
3425,3425,51.66,2.85,-4.34,0
3426,3426,51.68,-8.77,-15.9,0
3427,3427,51.69,-4.18,-2.81,0
3428,3428,51.7,13.0,16.46,0
3429,3429,51.72,11.7,20.78,0
3430,3430,51.73,-1.78,15.84,0
3431,3431,51.74,-0.65,19.76,0
3432,3432,51.76,3.72,33.59,0
3433,3433,51.77,-6.63,38.46,0
3434,3434,51.79,-16.1,29.45,0
3435,3435,51.8,-8.44,22.82,0
3436,3436,51.81,4.41,22.6,0
3437,3437,51.83,5.67,20.22,0
3438,3438,51.84,-1.33,19.68,0
3439,3439,51.85,-5.31,21.89,0
3440,3440,51.87,-4.15,17.77,0
3441,3441,51.88,-1.59,8.54,0
3442,3442,51.89,0.9,1.91,0
3443,3443,51.9,1.43,2.22,0
3444,3444,51.92,-2.61,8.23,0
3445,3445,51.93,-1.91,12.72,0
3446,3446,51.95,15.63,16.81,0
3447,3447,51.96,30.31,25.0,0
3448,3448,51.97,15.65,27.32,0
3449,3449,51.99,-11.68,19.19,0
3450,3450,52.0,-16.96,14.89,0
3451,3451,52.01,1.35,22.33,0
3452,3452,52.03,9.1,32.84,0
3453,3453,52.04,-7.82,34.06,0
3454,3454,52.05,-18.2,22.91,0
3455,3455,52.06,-16.69,12.31,0
3456,3456,52.08,-30.46,15.36,0
3457,3457,52.09,-36.94,26.04,0
3458,3458,52.11,-8.62,26.47,0
3459,3459,52.12,13.63,13.4,0
3460,3460,52.13,3.67,5.71,0
3461,3461,52.15,-8.46,12.02,0
3462,3462,52.16,-7.83,19.81,0
3463,3463,52.17,-5.77,22.02,0
3464,3464,52.19,-13.17,19.86,0
3465,3465,52.2,-21.66,13.27,0
3466,3466,52.21,-9.82,7.89,0
3467,3467,52.22,6.43,16.73,0
3468,3468,52.24,3.44,60.01,0
3469,3469,52.25,2.01,152.67,0
3470,3470,52.26,13.25,258.07,0
3471,3471,52.28,17.17,304.23,0
3472,3472,52.29,7.7,286.88,0
3473,3473,52.3,-3.21,259.93,0
3474,3474,52.32,-10.72,227.01,0
3475,3475,52.33,-22.73,166.42,0
3476,3476,52.34,-34.33,95.15,0
3477,3477,52.36,-27.33,29.8,0
3478,3478,52.37,-13.59,-30.9,0
3479,3479,52.38,-18.88,-82.04,0
3480,3480,52.4,-27.46,-123.96,0
3481,3481,52.41,-15.71,-166.22,0
3482,3482,52.425,-5.29,-200.31,0
3483,3483,52.44,-14.64,-209.18,0
3484,3484,52.45,-18.5,-200.89,0
3485,3485,52.47,-0.55,-194.13,0
3486,3486,52.48,20.5,-193.23,0
3487,3487,52.49,30.28,-189.75,0
3488,3488,52.51,30.59,-172.26,0
3489,3489,52.52,22.33,-146.59,0
3490,3490,52.53,8.0,-129.93,0
3491,3491,52.54,2.26,-115.83,0
3492,3492,52.56,16.93,-93.78,0
3493,3493,52.57,35.13,-84.67,0
3494,3494,52.59,26.21,-99.32,0
3495,3495,52.6,-3.83,-107.04,0
3496,3496,52.61,-15.19,-87.77,0
3497,3497,52.63,3.01,-60.53,0
3498,3498,52.64,20.37,-47.46,0
3499,3499,52.65,18.04,-50.64,0
3500,3500,52.67,11.12,-54.74,0
3501,3501,52.68,14.27,-44.14,0
3502,3502,52.69,18.17,-25.54,0
3503,3503,52.71,12.07,-15.68,0
3504,3504,52.72,4.82,-16.76,0
3505,3505,52.73,8.45,-20.68,0
3506,3506,52.75,14.48,-20.63,0
3507,3507,52.76,10.59,-11.32,0
3508,3508,52.77,6.7,4.21,0
3509,3509,52.79,8.69,13.23,0
3510,3510,52.8,8.77,11.24,0
3511,3511,52.81,8.21,7.06,0
3512,3512,52.83,2.87,4.94,0
3513,3513,52.84,-8.17,8.47,0
3514,3514,52.85,-5.37,22.22,0
3515,3515,52.87,9.66,33.39,0
3516,3516,52.88,12.61,30.97,0
3517,3517,52.89,0.97,28.63,0
3518,3518,52.9,-10.56,36.74,0
3519,3519,52.92,-12.73,42.77,0
3520,3520,52.93,-8.47,36.41,0
3521,3521,52.94,-8.83,28.52,0
3522,3522,52.96,-12.97,28.92,0
3523,3523,52.97,-5.03,28.36,0
3524,3524,52.98,10.46,26.47,0
3525,3525,53.0,8.52,38.07,0
3526,3526,53.01,-6.09,57.78,0
3527,3527,53.02,-7.81,65.85,0
3528,3528,53.04,-0.27,57.71,0
3529,3529,53.05,-3.06,45.65,0
3530,3530,53.06,-11.45,38.67,0
3531,3531,53.08,-9.65,35.39,0
3532,3532,53.09,-1.01,40.88,0
3533,3533,53.11,0.27,55.31,0
3534,3534,53.12,-9.21,58.45,0
3535,3535,53.13,-21.04,46.55,0
3536,3536,53.15,-24.32,40.87,0
3537,3537,53.16,-14.04,49.33,0
3538,3538,53.17,-0.9,58.94,0
3539,3539,53.19,0.96,54.74,0
3540,3540,53.2,-3.48,38.36,0
3541,3541,53.21,-1.13,25.07,0
3542,3542,53.22,6.72,19.43,0
3543,3543,53.24,9.5,19.8,0
3544,3544,53.25,4.71,25.66,0
3545,3545,53.27,-2.38,30.47,0
3546,3546,53.28,-9.46,32.75,0
3547,3547,53.29,-15.19,33.46,0
3548,3548,53.31,-12.4,28.06,0
3549,3549,53.32,-0.05,19.74,0
3550,3550,53.33,9.27,16.52,0
3551,3551,53.35,6.72,15.34,0
3552,3552,53.36,-3.02,13.1,0
3553,3553,53.37,-10.17,13.7,0
3554,3554,53.38,-6.17,15.09,0
3555,3555,53.4,6.53,14.04,0
3556,3556,53.41,10.01,14.5,0
3557,3557,53.43,-5.32,15.54,0
3558,3558,53.44,-19.58,9.87,0
3559,3559,53.45,-15.74,0.04,0
3560,3560,53.47,-6.86,4.57,0
3561,3561,53.48,-4.65,29.09,0
3562,3562,53.49,-3.0,39.61,0
3563,3563,53.51,0.38,15.05,0
3564,3564,53.52,-0.37,-7.09,0
3565,3565,53.53,-2.91,0.52,0
3566,3566,53.54,3.26,8.15,0
3567,3567,53.56,16.14,-2.28,0
3568,3568,53.57,20.5,-6.61,0
3569,3569,53.58,11.1,4.36,0
3570,3570,53.6,1.34,6.96,0
3571,3571,53.61,1.26,-6.91,0
3572,3572,53.62,-0.73,-15.43,0
3573,3573,53.64,-11.88,-6.76,0
3574,3574,53.65,-16.66,4.21,0
3575,3575,53.66,-7.21,4.03,0
3576,3576,53.68,1.4,-2.24,0
3577,3577,53.69,2.88,-4.1,0
3578,3578,53.7,11.49,0.98,0
3579,3579,53.72,23.03,1.9,0
3580,3580,53.73,16.09,-14.55,0
3581,3581,53.75,-0.73,-34.63,0
3582,3582,53.76,-6.85,-31.19,0
3583,3583,53.77,-7.05,-10.55,0
3584,3584,53.79,-6.17,-1.99,0
3585,3585,53.8,0.54,-10.01,0
3586,3586,53.81,8.45,-14.92,0
3587,3587,53.83,10.73,-9.58,0
3588,3588,53.84,5.92,-4.34,0
3589,3589,53.85,-4.35,-3.9,0
3590,3590,53.87,-11.42,-4.66,0
3591,3591,53.88,-9.32,-8.73,0
3592,3592,53.89,-3.57,-21.12,0
3593,3593,53.9,-0.44,-30.51,0
3594,3594,53.92,-2.71,-20.4,0
3595,3595,53.93,-9.47,-4.66,0
3596,3596,53.95,-10.32,-7.58,0
3597,3597,53.96,-0.65,-18.96,0
3598,3598,53.97,6.56,-17.4,0
3599,3599,53.99,3.16,-8.03,0
3600,3600,54.0,-1.01,-8.32,0
3601,3601,54.01,-1.14,-20.93,0
3602,3602,54.03,-4.93,-28.52,0
3603,3603,54.04,-10.72,-18.9,0
3604,3604,54.05,-4.74,-8.5,0
3605,3605,54.06,6.77,-13.65,0
3606,3606,54.08,-0.11,-23.44,0
3607,3607,54.09,-19.21,-25.61,0
3608,3608,54.11,-19.83,-20.0,0
3609,3609,54.12,-1.35,-9.66,0
3610,3610,54.13,8.68,-7.59,0
3611,3611,54.15,4.08,-24.26,0
3612,3612,54.16,3.11,-40.62,0
3613,3613,54.17,8.23,-23.5,0
3614,3614,54.18,7.3,35.57,0
3615,3615,54.2,6.14,111.11,0
3616,3616,54.21,15.16,156.07,0
3617,3617,54.22,27.0,111.45,0
3618,3618,54.24,27.87,-22.97,0
3619,3619,54.25,27.89,-74.59,0
3620,3620,54.26,51.57,79.93,0
3621,3621,54.28,61.75,161.88,0
3622,3622,54.29,13.13,-62.18,0
3623,3623,54.3,-24.18,-209.13,0
3624,3624,54.32,-7.2,5.72,0
3625,3625,54.33,-14.95,162.73,0
3626,3626,54.34,-52.75,8.26,0
3627,3627,54.36,-45.3,-109.08,0
3628,3628,54.37,-9.22,28.75,0
3629,3629,54.38,-2.45,178.36,0
3630,3630,54.4,-10.0,99.51,0
3631,3631,54.41,-0.25,-48.51,0
3632,3632,54.43,13.28,-59.4,0
3633,3633,54.44,6.42,-43.1,0
3634,3634,54.45,-8.8,-105.94,0
3635,3635,54.47,-6.53,-175.49,0
3636,3636,54.48,-9.77,-147.82,0
3637,3637,54.49,-34.29,-17.17,0
3638,3638,54.51,-35.09,38.72,0
3639,3639,54.52,-4.84,-50.86,0
3640,3640,54.53,11.74,-94.88,0
3641,3641,54.54,3.86,-48.27,0
3642,3642,54.56,-3.45,-86.78,0
3643,3643,54.57,7.97,-190.34,0
3644,3644,54.59,22.72,-155.54,0
3645,3645,54.6,22.82,-11.85,0
3646,3646,54.61,20.72,24.15,0
3647,3647,54.63,22.21,-60.13,0
3648,3648,54.64,20.65,-104.35,0
3649,3649,54.65,29.97,-68.84,0
3650,3650,54.67,49.58,-22.2,0
3651,3651,54.68,39.63,1.01,0
3652,3652,54.69,3.07,-1.86,0
3653,3653,54.71,-19.75,-18.05,0
3654,3654,54.72,-33.05,-41.78,0
3655,3655,54.73,-34.48,-61.23,0
3656,3656,54.75,-7.0,-34.64,0
3657,3657,54.76,9.41,-2.3,0
3658,3658,54.77,-9.58,-37.14,0
3659,3659,54.79,-20.0,-54.97,0
3660,3660,54.8,-5.82,25.68,0
3661,3661,54.81,1.94,87.39,0
3662,3662,54.82,0.39,39.64,0
3663,3663,54.84,3.98,-25.91,0
3664,3664,54.85,-0.01,-31.86,0
3665,3665,54.86,-15.75,-8.02,0
3666,3666,54.88,-23.11,8.08,0
3667,3667,54.89,-17.95,18.98,0
3668,3668,54.9,-12.46,34.73,0
3669,3669,54.92,-5.82,42.63,0
3670,3670,54.93,7.18,37.27,0
3671,3671,54.94,10.62,34.29,0
3672,3672,54.96,-5.26,47.63,0
3673,3673,54.97,-10.23,71.53,0
3674,3674,54.98,19.9,62.52,0
3675,3675,55.0,52.4,12.98,0
3676,3676,55.01,42.57,5.07,0
3677,3677,55.025000000000006,8.8,54.3,0
3678,3678,55.04,-7.64,67.01,0
3679,3679,55.05,-8.81,25.44,0
3680,3680,55.06,-1.5,1.44,0
3681,3681,55.08,8.25,27.52,0
3682,3682,55.09,-0.88,61.44,0
3683,3683,55.11,-17.86,48.55,0
3684,3684,55.12,-17.53,-1.96,0
3685,3685,55.13,-6.94,-41.73,0
3686,3686,55.15,2.1,-43.24,0
3687,3687,55.16,4.35,-17.19,0
3688,3688,55.17,-0.47,18.68,0
3689,3689,55.19,0.23,63.98,0
3690,3690,55.2,4.85,84.88,0
3691,3691,55.21,1.66,58.86,0
3692,3692,55.22,-3.88,22.79,0
3693,3693,55.24,-9.3,-1.5,0
3694,3694,55.25,-10.84,10.9,0
3695,3695,55.27,0.49,61.02,0
3696,3696,55.28,5.0,71.56,0
3697,3697,55.29,-15.64,26.69,0
3698,3698,55.31,-32.86,4.55,0
3699,3699,55.32,-19.06,24.8,0
3700,3700,55.33,-1.84,30.82,0
3701,3701,55.35,-7.52,4.57,0
3702,3702,55.36,-10.32,-13.06,0
3703,3703,55.37,4.64,-5.73,0
3704,3704,55.38,12.28,7.2,0
3705,3705,55.4,0.99,15.5,0
3706,3706,55.41,-10.69,21.93,0
3707,3707,55.43,-2.14,29.31,0
3708,3708,55.44,19.87,22.79,0
3709,3709,55.45,25.24,-21.73,0
3710,3710,55.46,3.86,-51.91,0
3711,3711,55.48,-19.65,1.8,0
3712,3712,55.49,-24.06,63.27,0
3713,3713,55.5,-19.23,39.15,0
3714,3714,55.52,-20.05,-17.74,0
3715,3715,55.53,-14.81,-28.16,0
3716,3716,55.54,0.43,6.41,0
3717,3717,55.56,0.5,28.41,0
3718,3718,55.57,-11.27,-3.16,0
3719,3719,55.58,-2.93,-37.66,0
3720,3720,55.6,17.15,-3.57,0
3721,3721,55.61,12.3,55.79,0
3722,3722,55.62,-12.92,46.96,0
3723,3723,55.64,-21.72,-4.53,0
3724,3724,55.65,-11.56,-15.66,0
3725,3725,55.66,-0.34,2.0,0
3726,3726,55.68,15.91,13.57,0
3727,3727,55.69,31.13,34.96,0
3728,3728,55.71,28.24,62.72,0
3729,3729,55.72,23.04,66.21,0
3730,3730,55.73,27.47,30.98,0
3731,3731,55.75,19.83,-29.82,0
3732,3732,55.76,3.02,-61.65,0
3733,3733,55.77,-0.12,-20.76,0
3734,3734,55.79,-3.55,27.38,0
3735,3735,55.8,-22.36,1.06,0
3736,3736,55.81,-26.31,-44.03,0
3737,3737,55.83,-3.09,-20.08,0
3738,3738,55.84,7.62,23.53,0
3739,3739,55.85,-2.84,-14.54,0
3740,3740,55.87,-3.71,-83.42,0
3741,3741,55.88,-0.18,-47.23,0
3742,3742,55.89,-10.32,39.71,0
3743,3743,55.9,-17.38,22.45,0
3744,3744,55.92,-4.88,-33.42,0
3745,3745,55.93,15.74,3.3,0
3746,3746,55.95,20.58,48.39,0
3747,3747,55.96,7.39,14.35,0
3748,3748,55.97,0.47,-14.44,0
3749,3749,55.99,4.95,12.92,0
3750,3750,56.0,1.59,44.26,0
3751,3751,56.01,-13.07,53.22,0
3752,3752,56.03,-12.89,36.0,0
3753,3753,56.04,15.13,-11.88,0
3754,3754,56.05,34.1,-40.3,0
3755,3755,56.06,14.93,-13.32,0
3756,3756,56.08,-23.11,3.56,0
3757,3757,56.09,-46.51,-29.53,0
3758,3758,56.1,-26.33,-44.24,0
3759,3759,56.12,15.77,-7.9,0
3760,3760,56.13,23.47,19.48,0
3761,3761,56.14,-0.33,1.41,0
3762,3762,56.16,-18.53,-25.22,0
3763,3763,56.17,-13.79,-21.28,0
3764,3764,56.18,6.48,-2.54,0
3765,3765,56.2,8.91,-4.47,0
3766,3766,56.21,-2.79,-14.93,0
3767,3767,56.22,8.89,-1.35,0
3768,3768,56.24,29.24,16.81,0
3769,3769,56.25,25.2,12.86,0
3770,3770,56.26,17.16,7.28,0
3771,3771,56.28,31.93,13.74,0
3772,3772,56.29,34.68,6.33,0
3773,3773,56.3,-8.6,-35.28,0
3774,3774,56.32,-49.39,-91.12,0
3775,3775,56.33,-45.84,-143.08,0
3776,3776,56.35,-33.84,-198.73,0
3777,3777,56.36,-30.88,-238.36,0
3778,3778,56.37,-10.66,-231.01,0
3779,3779,56.38,16.57,-192.17,0
3780,3780,56.4,20.28,-145.5,0
3781,3781,56.41,14.88,-88.2,0
3782,3782,56.43,24.62,-25.31,0
3783,3783,56.44,34.11,21.76,0
3784,3784,56.45,26.09,47.32,0
3785,3785,56.47,10.83,66.32,0
3786,3786,56.48,1.47,84.53,0
3787,3787,56.49,0.25,91.09,0
3788,3788,56.51,5.43,83.98,0
3789,3789,56.52,12.07,79.59,0
3790,3790,56.53,11.34,86.25,0
3791,3791,56.54,5.99,91.12,0
3792,3792,56.56,6.51,86.9,0
3793,3793,56.57,7.72,79.85,0
3794,3794,56.59,-2.78,73.01,0
3795,3795,56.6,-18.43,64.27,0
3796,3796,56.61,-19.94,56.35,0
3797,3797,56.63,-7.33,56.96,0
3798,3798,56.64,-1.08,60.51,0
3799,3799,56.65,-5.76,54.43,0
3800,3800,56.67,-5.29,47.2,0
3801,3801,56.68,4.5,55.14,0
3802,3802,56.69,13.67,70.31,0
3803,3803,56.71,14.42,72.45,0
3804,3804,56.72,1.88,60.9,0
3805,3805,56.73,-13.53,48.85,0
3806,3806,56.74,-9.13,41.33,0
3807,3807,56.76,4.94,38.0,0
3808,3808,56.77,-2.0,34.77,0
3809,3809,56.78,-20.63,26.26,0
3810,3810,56.8,-22.16,18.76,0
3811,3811,56.81,-11.25,19.29,0
3812,3812,56.82,-5.35,19.35,0
3813,3813,56.84,-2.71,9.56,0
3814,3814,56.85,1.66,0.42,0
3815,3815,56.86,3.93,4.69,0
3816,3816,56.88,1.74,7.84,0
3817,3817,56.89,-2.88,-4.19,0
3818,3818,56.9,-8.01,-15.42,0
3819,3819,56.92,-12.31,-13.02,0
3820,3820,56.93,-11.05,-3.92,0
3821,3821,56.94,-3.66,5.62,0
3822,3822,56.96,2.48,7.26,0
3823,3823,56.97,6.5,-11.21,0
3824,3824,56.99,10.22,-36.49,0
3825,3825,57.0,5.71,-40.82,0
3826,3826,57.01,-8.91,-26.19,0
3827,3827,57.03,-17.29,-15.61,0
3828,3828,57.04,-7.89,-16.38,0
3829,3829,57.05,6.43,-19.81,0
3830,3830,57.06,6.37,-23.51,0
3831,3831,57.08,-4.05,-28.63,0
3832,3832,57.09,-4.52,-28.27,0
3833,3833,57.11,3.78,-22.81,0
3834,3834,57.12,2.07,-22.0,0
3835,3835,57.13,-4.87,-26.07,0
3836,3836,57.15,0.22,-27.44,0
3837,3837,57.16,7.35,-19.42,0
3838,3838,57.17,1.3,-6.52,0
3839,3839,57.19,-7.65,-7.08,0
3840,3840,57.2,-8.32,-23.54,0
3841,3841,57.21,-5.92,-30.95,0
3842,3842,57.22,-6.99,-21.45,0
3843,3843,57.24,-7.77,-12.96,0
3844,3844,57.25,-1.91,-9.45,0
3845,3845,57.27,6.17,-6.81,0
3846,3846,57.28,4.91,-10.12,0
3847,3847,57.29,-2.52,-18.78,0
3848,3848,57.31,-2.99,-23.53,0
3849,3849,57.32,0.68,-19.6,0
3850,3850,57.33,1.71,-15.14,0
3851,3851,57.35,3.7,-18.23,0
3852,3852,57.36,4.31,-19.29,0
3853,3853,57.37,-3.23,-11.44,0
3854,3854,57.38,-10.31,-8.35,0
3855,3855,57.4,-6.54,-15.79,0
3856,3856,57.41,0.63,-22.93,0
3857,3857,57.42,4.02,-24.38,0
3858,3858,57.44,8.71,-21.01,0
3859,3859,57.45,12.73,-20.21,0
3860,3860,57.46,8.96,-24.11,0
3861,3861,57.48,1.47,-18.02,0
3862,3862,57.49,-0.45,-6.09,0
3863,3863,57.5,3.5,-10.94,0
3864,3864,57.52,6.64,-23.32,0
3865,3865,57.53,4.05,-17.72,0
3866,3866,57.54,-6.04,-5.33,0
3867,3867,57.56,-13.99,-11.57,0
3868,3868,57.57,-6.55,-27.04,0
3869,3869,57.58,5.08,-25.46,0
3870,3870,57.6,4.1,-10.25,0
3871,3871,57.61,-0.14,-4.79,0
3872,3872,57.63,0.99,-9.12,0
3873,3873,57.64,-0.06,-3.84,0
3874,3874,57.65,2.1,10.37,0
3875,3875,57.67,14.73,13.79,0
3876,3876,57.68,18.54,5.61,0
3877,3877,57.69,1.26,0.04,0
3878,3878,57.71,-11.81,-1.13,0
3879,3879,57.72,-2.58,0.16,0
3880,3880,57.73,5.44,0.43,0
3881,3881,57.75,-7.08,-10.73,0
3882,3882,57.76,-13.46,-23.88,0
3883,3883,57.77,7.45,-17.6,0
3884,3884,57.79,19.51,0.44,0
3885,3885,57.8,-3.89,10.2,0
3886,3886,57.81,-22.81,10.76,0
3887,3887,57.83,-9.12,4.66,0
3888,3888,57.84,2.29,-8.29,0
3889,3889,57.85,-6.93,-16.08,0
3890,3890,57.87,-5.67,-5.67,0
3891,3891,57.88,7.0,12.42,0
3892,3892,57.89,0.02,13.67,0
3893,3893,57.9,-12.87,2.78,0
3894,3894,57.92,1.16,1.37,0
3895,3895,57.93,22.72,3.55,0
3896,3896,57.95,12.93,-2.23,0
3897,3897,57.96,-13.25,-8.05,0
3898,3898,57.97,-11.97,0.09,0
3899,3899,57.99,8.73,20.79,0
3900,3900,58.0,10.59,30.0,0
3901,3901,58.01,1.84,18.4,0
3902,3902,58.02,7.14,5.4,0
3903,3903,58.04,10.2,5.28,0
3904,3904,58.05,-3.51,16.38,0
3905,3905,58.06,-16.85,28.18,0
3906,3906,58.08,-25.22,25.27,0
3907,3907,58.09,-32.51,6.8,0
3908,3908,58.1,-24.33,-7.2,0
3909,3909,58.12,-1.99,-3.69,0
3910,3910,58.13,12.24,8.43,0
3911,3911,58.14,11.63,19.53,0
3912,3912,58.16,8.64,28.0,0
3913,3913,58.17,12.86,18.96,0
3914,3914,58.18,17.36,-38.37,0
3915,3915,58.2,12.89,-120.84,0
3916,3916,58.21,3.33,-137.03,0
3917,3917,58.22,-3.74,-77.92,0
3918,3918,58.24,-9.28,-45.67,0
3919,3919,58.25,-18.98,-70.06,0
3920,3920,58.26,-19.25,-88.43,0
3921,3921,58.28,11.48,-86.26,0
3922,3922,58.29,45.51,-91.72,0
3923,3923,58.31,35.29,-95.52,0
3924,3924,58.32,4.22,-81.58,0
3925,3925,58.33,6.41,-62.71,0
3926,3926,58.35,30.31,-50.34,0
3927,3927,58.36,34.82,-41.9,0
3928,3928,58.37,24.77,-27.61,0
3929,3929,58.38,25.32,1.61,0
3930,3930,58.4,31.84,32.36,0
3931,3931,58.41,25.54,43.35,0
3932,3932,58.43,19.27,45.57,0
3933,3933,58.44,33.78,66.29,0
3934,3934,58.45,42.53,101.52,0
3935,3935,58.47,18.63,128.76,0
3936,3936,58.48,-4.53,143.39,0
3937,3937,58.49,0.08,149.13,0
3938,3938,58.51,0.89,145.31,0
3939,3939,58.52,-19.82,138.44,0
3940,3940,58.53,-33.89,140.17,0
3941,3941,58.54,-28.85,149.31,0
3942,3942,58.56,-22.66,151.46,0
3943,3943,58.57,-23.49,143.54,0
3944,3944,58.59,-21.8,136.72,0
3945,3945,58.6,-18.58,130.68,0
3946,3946,58.61,-26.52,120.9,0
3947,3947,58.63,-39.86,114.75,0
3948,3948,58.64,-38.76,107.66,0
3949,3949,58.65,-27.53,85.64,0
3950,3950,58.66,-26.21,61.95,0
3951,3951,58.68,-30.55,57.54,0
3952,3952,58.69,-25.05,58.63,0
3953,3953,58.7,-18.57,44.42,0
3954,3954,58.72,-21.14,25.41,0
3955,3955,58.73,-18.88,17.57,0
3956,3956,58.74,-7.18,15.97,0
3957,3957,58.76,-7.23,12.09,0
3958,3958,58.77,-22.4,6.59,0
3959,3959,58.78,-22.84,0.37,0
3960,3960,58.8,-2.07,-9.28,0
3961,3961,58.81,6.5,-20.07,0
3962,3962,58.82,-6.45,-25.9,0
3963,3963,58.84,-10.34,-25.0,0
3964,3964,58.85,0.57,-17.98,0
3965,3965,58.86,-2.24,-16.27,0
3966,3966,58.88,-15.33,-30.59,0
3967,3967,58.89,-8.8,-42.41,0
3968,3968,58.9,6.64,-34.39,0
3969,3969,58.92,2.05,-24.79,0
3970,3970,58.93,-8.51,-30.23,0
3971,3971,58.95,-1.18,-42.97,0
3972,3972,58.96,10.08,-54.75,0
3973,3973,58.97,4.77,-60.93,0
3974,3974,58.99,-6.39,-56.22,0
3975,3975,59.0,-7.2,-45.42,0
3976,3976,59.01,-1.25,-43.29,0
3977,3977,59.03,6.08,-55.55,0
3978,3978,59.04,15.3,-67.23,0
3979,3979,59.05,19.65,-61.16,0
3980,3980,59.06,14.14,-45.71,0
3981,3981,59.08,6.06,-40.55,0
3982,3982,59.09,4.12,-44.64,0
3983,3983,59.11,8.92,-48.88,0
3984,3984,59.12,12.34,-55.65,0
3985,3985,59.13,12.48,-62.88,0
3986,3986,59.15,20.56,-60.87,0
3987,3987,59.16,29.04,-53.02,0
3988,3988,59.17,14.53,-54.45,0
3989,3989,59.19,-8.91,-65.41,0
3990,3990,59.2,-7.43,-70.28,0
3991,3991,59.21,9.59,-65.08,0
3992,3992,59.22,4.06,-59.15,0
3993,3993,59.24,-21.93,-52.62,0
3994,3994,59.25,-26.58,-41.75,0
3995,3995,59.27,-1.79,-33.51,0
3996,3996,59.28,15.33,-30.04,0
3997,3997,59.29,9.5,-22.92,0
3998,3998,59.3,3.67,-13.67,0
3999,3999,59.32,7.32,-14.74,0
4000,4000,59.33,8.32,-28.23,0
4001,4001,59.34,9.22,-38.98,0
4002,4002,59.36,17.85,-33.64,0
4003,4003,59.37,22.12,-21.76,0
4004,4004,59.38,14.78,-19.41,0
4005,4005,59.4,10.49,-20.11,0
4006,4006,59.41,16.41,-11.93,0
4007,4007,59.42,17.58,-3.62,0
4008,4008,59.44,9.75,-8.62,0
4009,4009,59.45,11.86,-20.23,0
4010,4010,59.46,22.48,-19.37,0
4011,4011,59.48,17.29,-6.21,0
4012,4012,59.49,4.96,-0.88,0
4013,4013,59.5,9.71,-5.49,0
4014,4014,59.52,18.55,-5.7,0
4015,4015,59.53,13.37,-2.83,0
4016,4016,59.54,6.89,-7.14,0
4017,4017,59.56,8.31,-15.0,0
4018,4018,59.57,4.61,-18.44,0
4019,4019,59.59,-8.17,-18.43,0
4020,4020,59.6,-14.52,-11.33,0
4021,4021,59.61,-5.98,4.12,0
4022,4022,59.63,2.02,10.07,0
4023,4023,59.64,-5.17,-0.88,0
4024,4024,59.65,-13.19,-9.1,0
4025,4025,59.67,-8.97,-3.96,0
4026,4026,59.68,-4.18,2.4,0
4027,4027,59.69,-3.5,3.92,0
4028,4028,59.71,1.3,8.71,0
4029,4029,59.72,5.13,14.98,0
4030,4030,59.73,1.62,14.84,0
4031,4031,59.75,2.05,14.53,0
4032,4032,59.76,9.47,18.02,0
4033,4033,59.77,7.89,20.76,0
4034,4034,59.79,-4.21,24.09,0
4035,4035,59.8,-7.75,23.27,0
4036,4036,59.81,0.34,12.87,0
4037,4037,59.83,1.55,5.68,0
4038,4038,59.84,-4.72,11.61,0
4039,4039,59.85,0.22,20.65,0
4040,4040,59.87,9.94,21.79,0
4041,4041,59.88,3.72,14.56,0
4042,4042,59.89,-8.48,7.25,0
4043,4043,59.9,-7.28,11.11,0
4044,4044,59.92,-0.61,21.15,0
4045,4045,59.93,-5.89,20.79,0
4046,4046,59.94,-19.22,12.21,0
4047,4047,59.96,-17.54,13.09,0
4048,4048,59.97,1.05,22.14,0
4049,4049,59.98,6.76,24.0,0
4050,4050,60.0,-6.15,22.04,0
4051,4051,60.01,-11.72,25.42,0
4052,4052,60.02,-6.98,25.21,0
4053,4053,60.04,-6.99,18.05,0
4054,4054,60.05,-8.21,18.59,0
4055,4055,60.06,-8.63,28.07,0
4056,4056,60.08,-21.14,28.78,0
4057,4057,60.09,-36.86,18.39,0
4058,4058,60.1,-27.75,12.78,0
4059,4059,60.12,0.81,13.76,0
4060,4060,60.13,16.34,11.06,0
4061,4061,60.14,12.75,8.42,0
4062,4062,60.16,6.74,13.82,0
4063,4063,60.17,10.65,23.4,0
4064,4064,60.18,20.36,28.5,0
4065,4065,60.2,12.86,24.76,0
4066,4066,60.21,-6.71,14.87,0
4067,4067,60.22,-5.6,4.2,0
4068,4068,60.24,4.13,-3.09,0
4069,4069,60.25,-2.13,-1.84,0
4070,4070,60.27,-1.19,5.91,0
4071,4071,60.28,25.13,11.57,0
4072,4072,60.29,47.16,14.84,0
