,Unnamed: 0,Timestamp,Data1,Data2,Label
0,0,6.0,-3.73,-3.13,0
1,1,6.01,0.1,-4.46,0
2,2,6.03,2.06,-3.69,0
3,3,6.04,3.18,-1.12,0
4,4,6.05,4.35,3.44,0
5,5,6.07,2.57,8.03,0
6,6,6.08,-0.19,5.1,0
7,7,6.09,1.98,-7.06,0
8,8,6.11,5.11,-16.12,0
9,9,6.12,0.05,-12.07,0
10,10,6.13,-9.62,-3.24,0
11,11,6.15,-8.53,6.73,0
12,12,6.16,7.39,28.67,0
13,13,6.17,21.92,68.94,0
14,14,6.19,25.16,126.3,0
15,15,6.2,23.39,150.4,0
16,16,6.21,8.25,128.24,0
17,17,6.23,-26.82,165.54,0
18,18,6.24,-39.04,218.44,0
19,19,6.25,5.18,169.21,0
20,20,6.27,41.88,151.25,0
21,21,6.28,18.82,189.9,0
22,22,6.29,1.8,100.18,0
23,23,6.31,22.5,-4.24,0
24,24,6.32,23.7,70.62,0
25,25,6.33,-8.85,115.08,0
26,26,6.35,-39.4,-62.64,0
27,27,6.36,-29.85,-191.47,0
28,28,6.37,27.25,-8.41,0
29,29,6.39,62.67,252.17,0
30,30,6.4,32.08,260.48,0
31,31,6.41,-3.12,119.02,0
32,32,6.43,-24.49,51.74,0
33,33,6.44,-53.38,13.47,0
34,34,6.45,-32.73,-28.67,0
35,35,6.47,29.03,6.11,0
36,36,6.48,28.6,42.88,0
37,37,6.49,-28.81,-13.73,0
38,38,6.51,-59.66,-106.96,0
39,39,6.52,-59.36,-188.02,0
40,40,6.53,-58.37,-228.93,0
41,41,6.55,-48.53,-198.68,0
42,42,6.56,-32.6,-175.45,0
43,43,6.57,-25.91,-220.59,0
44,44,6.59,-21.35,-223.53,0
45,45,6.6,-20.32,-144.73,0
46,46,6.61,-24.11,-135.66,0
47,47,6.63,-12.24,-218.14,0
48,48,6.64,14.54,-226.14,0
49,49,6.65,16.0,-173.12,0
50,50,6.67,-17.58,-227.93,0
51,51,6.68,-27.16,-288.41,0
52,52,6.69,5.17,-144.75,0
53,53,6.71,24.08,5.48,0
54,54,6.72,23.35,-115.82,0
55,55,6.73,30.16,-292.33,0
56,56,6.75,20.83,-232.49,0
57,57,6.76,-13.63,-107.37,0
58,58,6.77,-27.25,-136.41,0
59,59,6.79,-8.72,-189.34,0
60,60,6.8,4.04,-117.66,0
61,61,6.81,-2.1,-22.6,0
62,62,6.82,-12.21,-48.66,0
63,63,6.84,-6.7,-127.38,0
64,64,6.85,22.52,-121.33,0
65,65,6.86,43.88,-75.75,0
66,66,6.88,31.44,-60.07,0
67,67,6.89,12.23,-53.29,0
68,68,6.91,11.62,-69.69,0
69,69,6.92,31.01,-78.37,0
70,70,6.93,64.37,-12.56,0
71,71,6.95,72.79,41.98,0
72,72,6.96,31.76,11.18,0
73,73,6.97,-16.2,5.14,0
74,74,6.99,-31.06,46.91,0
75,75,7.0,-21.38,9.35,0
76,76,7.01,-6.49,-58.11,0
77,77,7.03,4.27,-14.27,0
78,78,7.04,10.13,58.15,0
79,79,7.05,16.48,46.62,0
80,80,7.07,16.73,31.34,0
81,81,7.08,3.56,56.28,0
82,82,7.09,-2.58,42.71,0
83,83,7.11,11.66,-0.72,0
84,84,7.12,26.54,4.32,0
85,85,7.13,29.79,47.6,0
86,86,7.15,32.57,77.81,0
87,87,7.16,43.25,92.21,0
88,88,7.17,44.27,104.39,0
89,89,7.19,12.74,91.22,0
90,90,7.2,-24.46,65.46,0
91,91,7.21,-21.67,95.47,0
92,92,7.23,-6.18,154.51,0
93,93,7.24,-27.31,126.41,0
94,94,7.25,-53.05,22.2,0
95,95,7.27,-34.1,-9.6,0
96,96,7.28,9.8,14.94,0
97,97,7.29,32.74,-20.62,0
98,98,7.31,23.04,11.86,0
99,99,7.32,-0.59,167.82,0
100,100,7.33,-18.2,217.61,0
101,101,7.35,-16.0,135.09,0
102,102,7.36,-1.81,96.8,0
103,103,7.37,-4.33,124.13,0
104,104,7.39,-22.13,151.01,0
105,105,7.4,-24.3,145.52,0
106,106,7.41,-11.57,148.42,0
107,107,7.43,-12.4,202.78,0
108,108,7.44,-24.3,217.32,0
109,109,7.45,-18.3,142.3,0
110,110,7.47,11.64,96.43,0
111,111,7.48,40.36,122.2,0
112,112,7.49,39.85,118.66,0
113,113,7.51,8.1,61.01,0
114,114,7.52,-26.35,23.27,0
115,115,7.53,-36.29,30.84,0
116,116,7.55,-22.77,78.32,0
117,117,7.56,-4.96,144.29,0
118,118,7.57,7.05,144.71,0
119,119,7.59,11.84,98.17,0
120,120,7.6,6.53,113.51,0
121,121,7.61,-1.79,119.19,0
122,122,7.63,-4.29,33.42,0
123,123,7.64,-5.95,-3.49,0
124,124,7.65,-9.05,70.63,0
125,125,7.67,-8.04,113.96,0
126,126,7.68,-5.49,75.13,0
127,127,7.69,-10.75,48.42,0
128,128,7.71,-21.15,67.3,0
129,129,7.72,-13.53,60.28,0
130,130,7.73,24.47,-8.18,0
131,131,7.75,48.91,-47.9,0
132,132,7.76,20.4,-1.8,0
133,133,7.77,-14.77,27.96,0
134,134,7.79,-12.12,-3.49,0
135,135,7.8,-4.78,-17.37,0
136,136,7.81,-15.79,-17.87,0
137,137,7.83,-13.61,-39.0,0
138,138,7.84,5.27,-35.7,0
139,139,7.85,-2.68,-5.69,0
140,140,7.87,-28.39,6.85,0
141,141,7.88,-16.01,-5.45,0
142,142,7.89,19.83,-43.89,0
143,143,7.91,22.38,-67.86,0
144,144,7.92,2.44,-39.84,0
145,145,7.93,7.7,-12.93,0
146,146,7.95,28.57,8.74,0
147,147,7.96,21.99,46.42,0
148,148,7.97,-6.35,26.39,0
149,149,7.99,-19.38,-18.29,0
150,150,8.0,-18.95,12.12,0
151,151,8.01,-26.87,12.42,0
152,152,8.03,-26.84,-86.37,0
153,153,8.04,1.17,-126.92,0
154,154,8.05,30.38,-49.25,0
155,155,8.07,37.89,15.87,0
156,156,8.08,28.17,-9.32,0
157,157,8.09,3.76,-49.34,0
158,158,8.1,-10.6,-31.05,0
159,159,8.12,-0.87,-17.82,0
160,160,8.13,-1.47,-79.57,0
161,161,8.15,-13.18,-130.66,0
162,162,8.16,-4.91,-57.33,0
163,163,8.17,9.09,48.64,0
164,164,8.19,6.2,29.58,0
165,165,8.2,-0.92,-61.7,0
166,166,8.21,5.15,-122.72,0
167,167,8.23,15.8,-181.32,0
168,168,8.24,10.53,-236.14,0
169,169,8.25,-3.46,-239.28,0
170,170,8.27,-6.4,-223.56,0
171,171,8.28,-8.89,-227.93,0
172,172,8.29,-19.85,-215.89,0
173,173,8.31,-15.22,-158.95,0
174,174,8.32,8.73,-92.12,0
175,175,8.33,14.27,-49.87,0
176,176,8.35,-5.6,-27.21,0
177,177,8.36,-13.07,-10.44,0
178,178,8.37,-3.13,2.55,0
179,179,8.39,-5.2,14.04,0
180,180,8.4,-14.93,28.16,0
181,181,8.41,-13.96,40.45,0
182,182,8.43,-10.46,41.14,0
183,183,8.44,-8.39,34.45,0
184,184,8.45,-4.81,35.13,0
185,185,8.47,-6.64,32.03,0
186,186,8.48,-6.19,5.76,0
187,187,8.49,6.58,-15.5,0
188,188,8.51,9.59,-1.98,0
189,189,8.52,-11.66,13.96,0
190,190,8.53,-26.67,3.65,0
191,191,8.55,-12.83,-1.11,0
192,192,8.56,2.44,20.5,0
193,193,8.57,-5.0,40.21,0
194,194,8.59,-13.62,40.87,0
195,195,8.6,-2.57,37.72,0
196,196,8.61,12.02,41.82,0
197,197,8.63,7.77,48.87,0
198,198,8.64,-6.4,50.2,0
199,199,8.65,-2.37,37.61,0
200,200,8.67,19.91,18.26,0
201,201,8.68,27.26,15.61,0
202,202,8.69,6.55,33.52,0
203,203,8.71,-13.0,45.7,0
204,204,8.72,-8.75,37.88,0
205,205,8.73,1.52,25.61,0
206,206,8.75,-0.81,26.1,0
207,207,8.76,-1.45,35.0,0
208,208,8.77,10.75,33.92,0
209,209,8.78,14.22,17.59,0
210,210,8.8,-0.67,4.69,0
211,211,8.81,-7.78,11.18,0
212,212,8.82,0.33,24.82,0
213,213,8.84,4.29,25.43,0
214,214,8.85,2.31,12.0,0
215,215,8.87,2.64,-0.59,0
216,216,8.88,5.95,2.46,0
217,217,8.89,9.3,16.75,0
218,218,8.91,6.29,20.36,0
219,219,8.92,-0.15,8.46,0
220,220,8.93,-0.44,0.82,0
221,221,8.95,0.11,6.47,0
222,222,8.96,-2.97,11.15,0
223,223,8.97,-0.8,8.38,0
224,224,8.99,3.9,8.83,0
225,225,9.0,3.13,11.84,0
226,226,9.01,3.63,6.47,0
227,227,9.03,2.96,-3.57,0
228,228,9.04,-9.04,-6.24,0
229,229,9.05,-13.63,-0.89,0
230,230,9.07,8.13,1.8,0
231,231,9.08,31.15,-3.88,0
232,232,9.09,21.85,-8.74,0
233,233,9.11,-13.08,-5.29,0
234,234,9.12,-33.83,-4.48,0
235,235,9.13,-18.69,-12.8,0
236,236,9.15,6.52,-18.0,0
237,237,9.16,11.29,-15.66,0
238,238,9.17,1.42,-14.23,0
239,239,9.19,-8.68,-13.98,0
240,240,9.2,-15.57,-14.6,0
241,241,9.21,-8.45,-20.72,0
242,242,9.23,12.84,-25.32,0
243,243,9.24,25.8,-19.15,0
244,244,9.25,22.13,-9.14,0
245,245,9.27,15.19,-4.52,0
246,246,9.28,8.1,-4.75,0
247,247,9.29,-3.14,-9.39,0
248,248,9.31,-7.5,-17.84,0
249,249,9.32,3.39,-21.99,0
250,250,9.33,12.78,-17.84,0
251,251,9.35,6.89,-14.18,0
252,252,9.36,-1.55,-18.29,0
253,253,9.37,-0.39,-25.87,0
254,254,9.39,4.49,-28.42,0
255,255,9.4,8.5,-25.27,0
256,256,9.41,13.12,-20.09,0
257,257,9.43,13.47,-11.6,0
258,258,9.44,4.2,-3.99,0
259,259,9.45,-8.88,-3.93,0
260,260,9.47,-15.43,-2.78,0
261,261,9.48,-11.22,1.24,0
262,262,9.49,-0.64,-7.58,0
263,263,9.51,6.2,-24.43,0
264,264,9.52,8.51,-25.67,0
265,265,9.53,14.11,-11.43,0
266,266,9.55,16.58,-3.69,0
267,267,9.56,3.16,-7.39,0
268,268,9.57,-18.83,-8.97,0
269,269,9.59,-28.1,-5.32,0
270,270,9.6,-15.04,-5.01,0
271,271,9.61,3.11,-7.96,0
272,272,9.63,5.36,-8.65,0
273,273,9.64,0.65,-6.0,0
274,274,9.65,3.4,-2.72,0
275,275,9.67,2.71,-5.95,0
276,276,9.68,-3.36,-11.3,0
277,277,9.69,-0.87,-1.13,0
278,278,9.71,3.92,17.85,0
279,279,9.72,2.37,19.42,0
280,280,9.73,2.77,5.54,0
281,281,9.75,3.88,-3.21,0
282,282,9.76,-0.53,-3.57,0
283,283,9.77,0.01,-2.95,0
284,284,9.79,7.97,-4.15,0
285,285,9.8,5.15,-5.17,0
286,286,9.81,-13.51,-4.72,0
287,287,9.83,-26.32,-5.51,0
288,288,9.84,-16.94,-5.04,0
289,289,9.85,-0.66,0.66,0
290,290,9.87,-2.82,4.24,0
291,291,9.88,-14.75,0.77,0
292,292,9.89,-11.29,-2.4,0
293,293,9.91,-0.01,-2.18,0
294,294,9.92,2.67,0.16,0
295,295,9.93,10.24,5.17,0
296,296,9.95,25.21,6.51,0
297,297,9.96,16.46,6.43,0
298,298,9.97,-14.11,14.88,0
299,299,9.99,-19.91,20.64,0
300,300,10.0,3.98,13.36,0
301,301,10.01,11.4,9.77,0
302,302,10.02,-7.29,21.03,0
303,303,10.04,-14.78,33.27,0
304,304,10.05,0.05,32.43,0
305,305,10.06,12.18,19.78,0
306,306,10.08,9.35,5.9,0
307,307,10.09,2.53,0.18,0
308,308,10.1,0.85,0.27,0
309,309,10.12,-0.18,2.76,0
310,310,10.13,-3.0,12.71,0
311,311,10.15,0.4,15.43,0
312,312,10.16,4.26,-28.06,0
313,313,10.17,-6.29,-108.75,0
314,314,10.19,-18.59,-158.04,0
315,315,10.2,-5.99,-157.7,0
316,316,10.21,28.95,-154.78,0
317,317,10.23,50.96,-161.51,0
318,318,10.24,34.24,-155.86,0
319,319,10.25,2.04,-141.19,0
320,320,10.27,-12.66,-125.63,0
321,321,10.28,-15.72,-97.2,0
322,322,10.29,-19.47,-53.09,0
323,323,10.31,-15.64,-7.7,0
324,324,10.32,-1.99,27.47,0
325,325,10.33,6.71,51.52,0
326,326,10.35,-4.18,71.13,0
327,327,10.36,-23.97,95.71,0
328,328,10.37,-26.09,124.94,0
329,329,10.39,-13.91,146.05,0
330,330,10.4,-10.89,152.75,0
331,331,10.41,-15.94,155.58,0
332,332,10.43,-17.57,165.83,0
333,333,10.44,-20.04,173.7,0
334,334,10.45,-24.04,165.98,0
335,335,10.47,-16.24,156.47,0
336,336,10.48,-1.47,156.66,0
337,337,10.49,-2.05,148.57,0
338,338,10.51,-8.55,126.66,0
339,339,10.52,5.32,112.11,0
340,340,10.53,23.7,108.47,0
341,341,10.55,17.56,97.76,0
342,342,10.56,0.52,76.53,0
343,343,10.57,-6.0,59.86,0
344,344,10.59,-8.16,55.53,0
345,345,10.6,-9.6,54.09,0
346,346,10.61,-5.87,44.91,0
347,347,10.63,2.3,31.86,0
348,348,10.64,14.43,26.97,0
349,349,10.65,21.0,27.68,0
350,350,10.67,14.72,22.05,0
351,351,10.68,13.28,15.8,0
352,352,10.69,26.68,15.42,0
353,353,10.71,33.84,8.3,0
354,354,10.72,22.16,-6.04,0
355,355,10.73,5.3,-12.44,0
356,356,10.75,-9.17,-12.95,0
357,357,10.76,-24.07,-17.4,0
358,358,10.77,-26.83,-22.09,0
359,359,10.78,-8.47,-21.98,0
360,360,10.8,6.03,-20.06,0
361,361,10.81,2.08,-18.57,0
362,362,10.83,3.21,-20.72,0
363,363,10.84,13.15,-32.14,0
364,364,10.85,5.57,-45.52,0
365,365,10.87,-17.72,-48.38,0
366,366,10.88,-26.8,-46.78,0
367,367,10.89,-12.21,-48.32,0
368,368,10.91,3.07,-45.37,0
369,369,10.92,2.39,-39.69,0
370,370,10.93,0.41,-41.5,0
371,371,10.95,9.3,-45.07,0
372,372,10.96,16.15,-42.79,0
373,373,10.97,13.8,-43.19,0
374,374,10.99,8.93,-50.32,0
375,375,11.0,5.88,-49.91,0
376,376,11.01,5.04,-36.63,0
377,377,11.03,0.56,-28.85,0
378,378,11.04,-9.28,-37.41,0
379,379,11.05,-12.49,-49.31,0
380,380,11.07,-2.9,-54.0,0
381,381,11.08,7.22,-55.16,0
382,382,11.09,6.2,-52.37,0
383,383,11.11,-4.42,-44.32,0
384,384,11.12,-11.02,-40.21,0
385,385,11.13,-1.71,-43.07,0
386,386,11.15,11.76,-41.76,0
387,387,11.16,9.66,-34.23,0
388,388,11.17,-2.82,-34.07,0
389,389,11.19,-5.54,-45.31,0
390,390,11.2,5.11,-55.12,0
391,391,11.21,11.89,-51.35,0
392,392,11.23,5.14,-37.23,0
393,393,11.24,0.58,-26.69,0
394,394,11.25,9.13,-23.43,0
395,395,11.27,13.25,-24.13,0
396,396,11.28,3.78,-29.67,0
397,397,11.29,1.31,-34.28,0
398,398,11.31,10.91,-33.21,0
399,399,11.32,10.14,-31.21,0
400,400,11.33,-4.59,-25.82,0
401,401,11.35,-16.46,-17.5,0
402,402,11.36,-19.28,-17.92,0
403,403,11.37,-9.38,-23.64,0
404,404,11.39,7.44,-21.35,0
405,405,11.4,7.93,-15.96,0
406,406,11.41,-4.87,-17.56,0
407,407,11.43,-4.01,-20.22,0
408,408,11.44,5.55,-18.29,0
409,409,11.45,-0.2,-16.64,0
410,410,11.47,-10.96,-18.7,0
411,411,11.48,-2.9,-19.22,0
412,412,11.49,11.95,-11.18,0
413,413,11.51,5.67,3.38,0
414,414,11.52,-15.77,13.15,0
415,415,11.53,-21.72,12.86,0
416,416,11.55,-2.97,11.19,0
417,417,11.56,20.45,11.4,0
418,418,11.57,28.18,4.02,0
419,419,11.59,16.94,-5.82,0
420,420,11.6,-1.24,-1.56,0
421,421,11.61,-9.61,11.68,0
422,422,11.63,-5.26,13.25,0
423,423,11.64,-1.79,4.77,0
424,424,11.65,-3.64,8.23,0
425,425,11.67,-2.9,20.2,0
426,426,11.68,1.35,18.39,0
427,427,11.69,3.1,7.75,0
428,428,11.71,-1.09,6.04,0
429,429,11.72,-2.33,11.45,0
430,430,11.73,9.69,12.96,0
431,431,11.75,21.54,9.65,0
432,432,11.76,15.11,8.3,0
433,433,11.77,-2.58,10.52,0
434,434,11.79,-14.91,16.73,0
435,435,11.8,-13.12,24.38,0
436,436,11.81,-1.42,24.3,0
437,437,11.83,2.85,19.79,0
438,438,11.84,-7.1,16.9,0
439,439,11.85,-15.86,8.85,0
440,440,11.87,-11.51,2.52,0
441,441,11.88,0.07,16.39,0
442,442,11.89,5.64,36.24,0
443,443,11.91,-2.26,29.85,0
444,444,11.92,-13.75,9.3,0
445,445,11.93,-12.08,9.75,0
446,446,11.94,0.61,21.35,0
447,447,11.96,8.17,17.07,0
448,448,11.97,6.61,9.12,0
449,449,11.98,-1.51,14.05,0
450,450,12.0,-15.5,17.78,0
451,451,12.01,-21.32,11.85,0
452,452,12.02,-8.4,9.1,0
453,453,12.04,6.68,14.7,0
454,454,12.05,7.6,21.97,0
455,455,12.06,-0.06,25.2,0
456,456,12.08,-4.17,22.9,0
457,457,12.09,-3.14,18.07,0
458,458,12.11,-3.21,15.67,0
459,459,12.12,-2.67,17.37,0
460,460,12.13,5.1,21.05,0
461,461,12.15,10.76,22.56,0
462,462,12.16,0.06,21.87,0
463,463,12.17,-12.74,21.1,0
464,464,12.19,-6.6,16.91,0
465,465,12.2,4.71,10.96,0
466,466,12.21,3.19,12.23,0
467,467,12.23,1.34,15.13,0
468,468,12.24,2.83,8.15,0
469,469,12.25,-6.96,4.63,0
470,470,12.27,-17.3,33.37,0
471,471,12.28,-10.52,105.49,0
472,472,12.29,3.32,203.1,0
473,473,12.31,11.23,286.23,0
474,474,12.32,10.17,321.92,0
475,475,12.33,-1.61,311.44,0
476,476,12.35,-16.2,269.87,0
477,477,12.36,-22.73,199.46,0
478,478,12.37,-23.67,106.12,0
479,479,12.39,-23.48,13.4,0
480,480,12.4,-17.38,-62.84,0
481,481,12.41,-7.47,-123.79,0
482,482,12.43,-4.29,-171.5,0
483,483,12.44,-6.75,-211.51,0
484,484,12.45,-4.82,-246.02,0
485,485,12.47,6.4,-258.44,0
486,486,12.48,21.77,-239.0,0
487,487,12.49,29.44,-207.55,0
488,488,12.51,24.64,-184.83,0
489,489,12.52,15.41,-169.08,0
490,490,12.53,8.78,-149.45,0
491,491,12.55,4.15,-126.67,0
492,492,12.56,3.78,-111.79,0
493,493,12.57,15.48,-106.68,0
494,494,12.59,34.2,-98.29,0
495,495,12.6,40.85,-83.05,0
496,496,12.61,30.41,-67.66,0
497,497,12.63,17.67,-49.78,0
498,498,12.64,13.64,-35.37,0
499,499,12.65,12.49,-40.08,0
500,500,12.67,3.97,-50.77,0
501,501,12.68,-7.97,-43.91,0
502,502,12.69,-6.94,-26.59,0
503,503,12.71,7.03,-14.58,0
504,504,12.72,11.23,-8.74,0
505,505,12.73,-1.67,-4.98,0
506,506,12.75,-12.6,-2.55,0
507,507,12.76,-10.43,-0.59,0
508,508,12.77,-4.39,-0.87,0
509,509,12.79,-2.97,-5.46,0
510,510,12.8,-5.47,-4.68,0
511,511,12.81,-8.44,8.96,0
512,512,12.83,-6.43,22.91,0
513,513,12.84,0.65,26.46,0
514,514,12.85,0.83,23.77,0
515,515,12.87,-10.31,21.83,0
516,516,12.88,-15.91,23.1,0
517,517,12.89,-5.05,24.16,0
518,518,12.91,7.23,22.53,0
519,519,12.92,5.31,22.84,0
520,520,12.93,-3.35,27.86,0
521,521,12.95,-3.57,31.67,0
522,522,12.96,2.84,32.75,0
523,523,12.97,1.49,38.11,0
524,524,12.99,-4.95,45.18,0
525,525,13.0,-1.08,40.89,0
526,526,13.01,8.69,29.66,0
527,527,13.03,9.87,29.82,0
528,528,13.04,4.35,36.04,0
529,529,13.05,4.89,34.01,0
530,530,13.07,12.31,35.36,0
531,531,13.08,14.17,46.98,0
532,532,13.09,5.38,51.17,0
533,533,13.11,-7.68,42.88,0
534,534,13.12,-17.51,34.9,0
535,535,13.13,-21.72,28.95,0
536,536,13.15,-21.59,20.88,0
537,537,13.16,-14.73,21.3,0
538,538,13.17,-1.58,36.29,0
539,539,13.19,7.25,46.52,0
540,540,13.2,6.46,41.66,0
541,541,13.21,2.0,39.5,0
542,542,13.23,-3.71,46.75,0
543,543,13.24,-9.64,44.09,0
544,544,13.25,-10.22,27.94,0
545,545,13.27,-4.92,19.27,0
546,546,13.28,1.11,23.43,0
547,547,13.29,3.16,25.26,0
548,548,13.31,1.53,20.18,0
549,549,13.32,2.06,19.91,0
550,550,13.33,4.86,25.67,0
551,551,13.35,1.56,26.27,0
552,552,13.36,-8.08,22.59,0
553,553,13.37,-11.5,22.14,0
554,554,13.39,-2.95,22.79,0
555,555,13.4,6.15,21.51,0
556,556,13.41,3.77,22.47,0
557,557,13.43,-4.1,26.19,0
558,558,13.44,-4.81,20.17,0
559,559,13.45,-3.0,1.25,0
560,560,13.47,-5.74,-7.47,0
561,561,13.48,-3.25,7.31,0
562,562,13.49,4.75,21.49,0
563,563,13.51,3.01,17.61,0
564,564,13.52,-4.97,12.6,0
565,565,13.53,-4.64,16.22,0
566,566,13.55,-1.78,11.77,0
567,567,13.56,-2.84,-5.16,0
568,568,13.57,-1.08,-12.63,0
569,569,13.59,-1.04,-1.72,0
570,570,13.6,-9.12,3.82,0
571,571,13.61,-15.24,-9.87,0
572,572,13.63,-13.53,-21.81,0
573,573,13.64,-7.25,-15.41,0
574,574,13.65,2.5,-1.97,0
575,575,13.67,8.26,1.39,0
576,576,13.68,3.18,-9.65,0
577,577,13.69,-3.0,-21.02,0
578,578,13.71,-1.78,-15.84,0
579,579,13.72,-2.96,-3.8,0
580,580,13.73,-11.38,-3.65,0
581,581,13.75,-14.67,-11.56,0
582,582,13.76,-6.35,-13.4,0
583,583,13.77,7.43,-8.47,0
584,584,13.79,17.95,-8.3,0
585,585,13.8,17.37,-15.37,0
586,586,13.81,7.25,-16.76,0
587,587,13.83,-0.55,-8.51,0
588,588,13.84,-0.92,-3.63,0
589,589,13.85,0.89,-8.68,0
590,590,13.86,2.16,-16.11,0
591,591,13.88,6.9,-22.23,0
592,592,13.89,14.03,-27.06,0
593,593,13.9,13.99,-23.53,0
594,594,13.92,6.64,-10.11,0
595,595,13.93,2.54,-0.8,0
596,596,13.94,4.69,-7.21,0
597,597,13.96,8.54,-15.31,0
598,598,13.97,7.85,-8.86,0
599,599,13.98,0.3,-6.41,0
600,600,14.0,-8.81,-26.58,0
601,601,14.01,-12.81,-44.99,0
602,602,14.02,-6.97,-35.01,0
603,603,14.04,4.76,-14.68,0
604,604,14.05,8.71,-12.89,0
605,605,14.07,3.91,-23.12,0
606,606,14.08,2.43,-26.16,0
607,607,14.09,4.68,-23.32,0
608,608,14.11,3.95,-23.45,0
609,609,14.12,4.01,-24.17,0
610,610,14.13,5.6,-17.38,0
611,611,14.15,3.16,-6.15,0
612,612,14.16,0.23,10.75,0
613,613,14.17,8.51,36.08,0
614,614,14.19,31.08,32.95,0
615,615,14.2,44.04,12.7,0
616,616,14.21,27.3,50.11,0
617,617,14.23,3.15,90.5,0
618,618,14.24,-11.55,37.19,0
619,619,14.25,-28.12,-30.09,0
620,620,14.27,-37.79,14.07,0
621,621,14.28,-22.18,117.56,0
622,622,14.29,5.6,128.39,0
623,623,14.31,12.34,58.95,0
624,624,14.32,-5.81,29.09,0
625,625,14.33,-13.17,25.89,0
626,626,14.35,-0.97,-11.74,0
627,627,14.36,1.01,-54.0,0
628,628,14.37,-12.82,-52.18,0
629,629,14.39,-26.14,-28.46,0
630,630,14.4,-31.94,-33.85,0
631,631,14.41,-28.7,-46.11,0
632,632,14.43,-19.72,-25.78,0
633,633,14.44,-12.49,-22.04,0
634,634,14.45,-6.83,-75.09,0
635,635,14.47,-0.61,-119.88,0
636,636,14.48,1.22,-92.75,0
637,637,14.49,-1.31,-37.72,0
638,638,14.51,-1.51,-33.35,0
639,639,14.52,0.92,-75.42,0
640,640,14.53,6.75,-99.27,0
641,641,14.55,16.44,-80.96,0
642,642,14.56,14.94,-56.13,0
643,643,14.57,-5.86,-58.55,0
644,644,14.59,-24.51,-81.52,0
645,645,14.6,-17.61,-94.46,0
646,646,14.61,7.96,-60.27,0
647,647,14.63,22.82,-8.21,0
648,648,14.64,16.0,-34.11,0
649,649,14.65,2.86,-92.47,0
650,650,14.67,-3.85,-63.13,0
651,651,14.68,-5.13,13.24,0
652,652,14.69,-9.3,61.4,0
653,653,14.71,-5.51,65.53,0
654,654,14.72,19.67,8.21,0
655,655,14.73,31.42,-54.97,0
656,656,14.75,6.38,-35.64,0
657,657,14.76,-14.16,18.38,0
658,658,14.77,-6.07,14.36,0
659,659,14.79,5.63,-16.06,0
660,660,14.8,7.08,-6.45,0
661,661,14.81,-0.4,27.06,0
662,662,14.83,-13.06,42.02,0
663,663,14.84,-15.15,38.64,0
664,664,14.85,-2.27,30.05,0
665,665,14.87,15.15,4.76,0
666,666,14.88,24.95,-19.82,0
667,667,14.89,17.97,6.51,0
668,668,14.91,7.11,55.15,0
669,669,14.92,7.07,52.51,0
670,670,14.93,4.33,28.51,0
671,671,14.95,-13.83,43.14,0
672,672,14.96,-24.23,56.62,0
673,673,14.97,2.05,26.28,0
674,674,14.99,34.09,2.45,0
675,675,15.0,20.33,35.9,0
676,676,15.01,-16.92,74.14,0
677,677,15.03,-18.12,39.24,0
678,678,15.04,21.46,-25.98,0
679,679,15.05,52.92,-28.83,0
680,680,15.07,42.64,12.13,0
681,681,15.08,5.03,34.92,0
682,682,15.09,-26.34,42.25,0
683,683,15.11,-27.26,40.82,0
684,684,15.12,-3.36,32.9,0
685,685,15.13,13.13,52.41,0
686,686,15.15,8.59,68.48,0
687,687,15.16,-0.01,21.31,0
688,688,15.17,-1.95,-15.05,0
689,689,15.19,-5.82,26.96,0
690,690,15.2,-14.31,59.2,0
691,691,15.21,-12.39,35.87,0
692,692,15.23,1.71,16.63,0
693,693,15.24,6.06,10.65,0
694,694,15.25,0.99,3.2,0
695,695,15.27,0.19,8.47,0
696,696,15.28,-5.26,11.1,0
697,697,15.29,-16.58,8.98,0
698,698,15.31,-18.67,35.56,0
699,699,15.32,-6.42,59.13,0
700,700,15.33,12.44,31.23,0
701,701,15.35,15.54,-0.0,0
702,702,15.36,-6.23,6.51,0
703,703,15.37,-20.38,8.49,0
704,704,15.39,-7.1,-13.22,0
705,705,15.4,5.64,-19.96,0
706,706,15.41,5.22,3.85,0
707,707,15.43,6.68,13.17,0
708,708,15.44,3.71,-21.57,0
709,709,15.45,-8.61,-37.29,0
710,710,15.47,-10.7,8.25,0
711,711,15.48,-4.99,41.0,0
712,712,15.49,-15.19,20.74,0
713,713,15.51,-28.21,5.31,0
714,714,15.52,-12.12,8.63,0
715,715,15.53,18.96,-7.07,0
716,716,15.55,25.43,-23.59,0
717,717,15.56,10.98,-10.94,0
718,718,15.57,8.69,0.84,0
719,719,15.59,10.09,-7.71,0
720,720,15.6,-8.33,-15.29,0
721,721,15.61,-19.6,-24.46,0
722,722,15.63,-3.0,-43.81,0
723,723,15.64,6.79,-43.42,0
724,724,15.65,-5.48,-7.35,0
725,725,15.67,-13.68,41.1,0
726,726,15.68,-11.85,77.71,0
727,727,15.69,-5.06,65.97,0
728,728,15.71,10.75,8.23,0
729,729,15.72,19.09,-7.2,0
730,730,15.73,10.86,35.39,0
731,731,15.75,8.36,25.95,0
732,732,15.76,14.7,-57.74,0
733,733,15.77,13.14,-96.92,0
734,734,15.78,0.88,-43.85,0
735,735,15.8,-14.25,13.17,0
736,736,15.81,-17.92,12.54,0
737,737,15.82,-5.02,-19.1,0
738,738,15.84,4.41,-30.85,0
739,739,15.85,-4.15,-9.63,0
740,740,15.86,-13.47,0.08,0
741,741,15.88,-6.85,-9.35,0
742,742,15.89,0.66,-0.91,0
743,743,15.9,-12.3,10.9,0
744,744,15.92,-23.53,-6.92,0
745,745,15.93,-3.1,-46.0,0
746,746,15.94,13.71,-55.24,0
747,747,15.96,-6.7,-11.22,0
748,748,15.97,-25.35,20.47,0
749,749,15.98,-15.14,8.46,0
750,750,16.0,4.85,1.87,0
751,751,16.01,23.66,5.97,0
752,752,16.03,24.07,-0.74,0
753,753,16.04,-6.33,2.31,0
754,754,16.05,-24.91,8.14,0
755,755,16.07,-7.5,-27.47,0
756,756,16.08,8.73,-67.04,0
757,757,16.09,13.64,-38.11,0
758,758,16.11,22.49,0.17,0
759,759,16.12,19.23,-18.9,0
760,760,16.13,3.22,-16.2,0
761,761,16.15,3.0,35.48,0
762,762,16.16,11.29,36.76,0
763,763,16.17,2.61,-6.63,0
764,764,16.19,-11.14,-5.05,0
765,765,16.2,-6.71,6.56,0
766,766,16.21,13.54,-26.27,0
767,767,16.23,22.8,-33.04,0
768,768,16.24,3.89,12.89,0
769,769,16.25,-13.94,28.89,0
770,770,16.27,0.58,9.94,0
771,771,16.28,20.3,21.05,0
772,772,16.29,12.64,29.76,0
773,773,16.31,-0.81,-36.17,0
774,774,16.32,3.62,-128.7,0
775,775,16.33,9.67,-165.47,0
776,776,16.35,-0.87,-169.18,0
777,777,16.36,-19.86,-170.82,0
778,778,16.37,-25.58,-151.7,0
779,779,16.39,-12.33,-122.41,0
780,780,16.4,-1.72,-94.8,0
781,781,16.41,-7.58,-47.4,0
782,782,16.42,-10.41,12.4,0
783,783,16.44,1.31,53.1,0
784,784,16.45,8.1,75.09,0
785,785,16.46,0.89,93.93,0
786,786,16.48,-8.35,104.59,0
787,787,16.49,-12.11,100.3,0
788,788,16.5,-7.58,93.96,0
789,789,16.52,4.99,94.13,0
790,790,16.53,15.94,90.34,0
791,791,16.54,14.35,80.33,0
792,792,16.56,1.8,70.11,0
793,793,16.57,-1.23,54.04,0
794,794,16.58,17.17,40.18,0
795,795,16.6,30.92,49.9,0
796,796,16.61,19.87,69.71,0
797,797,16.62,6.76,69.97,0
798,798,16.64,4.38,55.77,0
799,799,16.65,-2.46,48.23,0
800,800,16.67,-9.03,52.51,0
801,801,16.68,-0.38,59.12,0
802,802,16.69,8.85,56.65,0
803,803,16.71,2.59,50.2,0
804,804,16.72,-7.04,51.81,0
805,805,16.73,-9.74,54.21,0
806,806,16.75,-8.66,47.55,0
807,807,16.76,-2.56,37.24,0
808,808,16.77,-0.42,29.26,0
809,809,16.79,-13.82,21.39,0
810,810,16.8,-22.91,8.12,0
811,811,16.81,-10.49,-3.1,0
812,812,16.83,3.82,1.33,0
813,813,16.84,4.27,10.8,0
814,814,16.85,-1.98,6.96,0
815,815,16.87,-11.66,-2.8,0
816,816,16.88,-22.34,-3.9,0
817,817,16.89,-22.16,2.3,0
818,818,16.91,-11.75,8.72,0
819,819,16.92,-3.51,10.92,0
820,820,16.93,2.88,3.39,0
821,821,16.95,8.39,-11.04,0
822,822,16.96,3.96,-20.01,0
823,823,16.97,-8.09,-18.22,0
824,824,16.99,-12.88,-11.54,0
825,825,17.0,-5.0,-9.47,0
826,826,17.01,5.36,-14.84,0
827,827,17.03,11.74,-18.04,0
828,828,17.04,16.35,-15.03,0
829,829,17.05,17.47,-16.78,0
830,830,17.06,8.18,-23.98,0
831,831,17.08,-12.5,-23.11,0
832,832,17.09,-22.95,-15.42,0
833,833,17.1,-7.05,-12.4,0
834,834,17.12,14.29,-14.4,0
835,835,17.13,18.13,-16.65,0
836,836,17.14,7.08,-19.68,0
837,837,17.16,-5.21,-26.28,0
838,838,17.17,-5.4,-34.14,0
839,839,17.18,3.09,-35.14,0
840,840,17.2,0.37,-29.62,0
841,841,17.21,-10.83,-26.14,0
842,842,17.22,-9.1,-25.26,0
843,843,17.24,0.06,-25.46,0
844,844,17.25,-0.35,-28.4,0
845,845,17.26,-2.24,-29.23,0
846,846,17.28,1.43,-24.59,0
847,847,17.29,1.68,-20.56,0
848,848,17.3,-2.72,-21.24,0
849,849,17.32,-5.28,-26.51,0
850,850,17.33,-2.63,-33.0,0
851,851,17.35,4.5,-29.79,0
852,852,17.36,5.13,-14.55,0
853,853,17.37,-3.99,-5.43,0
854,854,17.39,-6.3,-11.48,0
855,855,17.4,0.11,-18.32,0
856,856,17.41,2.75,-19.34,0
857,857,17.43,3.4,-22.78,0
858,858,17.44,4.72,-24.46,0
859,859,17.45,4.86,-12.95,0
860,860,17.47,7.08,-3.02,0
861,861,17.48,7.53,-14.76,0
862,862,17.49,5.77,-27.1,0
863,863,17.51,10.71,-14.55,0
864,864,17.52,14.32,1.53,0
865,865,17.53,4.83,-4.8,0
866,866,17.55,-6.41,-18.77,0
867,867,17.56,-8.64,-17.83,0
868,868,17.57,-7.72,-8.23,0
869,869,17.59,-5.5,-5.67,0
870,870,17.6,1.37,-8.25,0
871,871,17.61,8.94,-9.64,0
872,872,17.63,12.08,-9.54,0
873,873,17.64,8.75,-2.79,0
874,874,17.65,-0.59,7.87,0
875,875,17.67,-6.54,7.59,0
876,876,17.68,-3.17,-0.17,0
877,877,17.69,-0.25,-2.68,0
878,878,17.7,-4.54,-6.29,0
879,879,17.72,-9.32,-14.76,0
880,880,17.73,-6.18,-16.73,0
881,881,17.75,5.34,-12.12,0
882,882,17.76,11.31,-9.96,0
883,883,17.77,0.11,-9.7,0
884,884,17.78,-11.09,-7.88,0
885,885,17.8,-4.93,-3.82,0
886,886,17.81,4.96,-1.39,0
887,887,17.82,6.35,-1.95,0
888,888,17.84,6.52,2.54,0
889,889,17.85,5.87,8.68,0
890,890,17.86,0.61,5.35,0
891,891,17.88,-0.47,-2.72,0
892,892,17.89,9.36,-8.02,0
893,893,17.9,17.97,-7.79,0
894,894,17.92,13.82,-0.25,0
895,895,17.93,3.08,6.71,0
896,896,17.94,-4.02,6.58,0
897,897,17.96,-3.93,4.74,0
898,898,17.97,-0.08,5.52,0
899,899,17.99,0.83,7.16,0
900,900,18.0,-1.47,11.99,0
901,901,18.01,-5.08,17.38,0
902,902,18.03,-11.34,10.7,0
903,903,18.04,-14.64,-2.53,0
904,904,18.05,-5.57,-2.52,0
905,905,18.07,7.92,7.39,0
906,906,18.08,9.02,10.46,0
907,907,18.09,1.31,7.39,0
908,908,18.11,0.59,6.98,0
909,909,18.12,5.71,9.95,0
910,910,18.13,5.53,14.45,0
911,911,18.15,0.03,10.59,0
912,912,18.16,-2.01,-25.97,0
913,913,18.17,-0.99,-89.7,0
914,914,18.19,-0.06,-132.23,0
915,915,18.2,9.4,-140.76,0
916,916,18.21,23.12,-147.82,0
917,917,18.23,18.94,-157.23,0
918,918,18.24,6.42,-150.86,0
919,919,18.25,10.96,-136.5,0
920,920,18.27,15.68,-122.2,0
921,921,18.28,-1.26,-93.66,0
922,922,18.29,-21.69,-51.94,0
923,923,18.31,-19.89,-15.21,0
924,924,18.32,-1.49,16.91,0
925,925,18.33,2.2,47.99,0
926,926,18.34,-16.29,66.83,0
927,927,18.36,-26.13,82.82,0
928,928,18.37,-13.36,113.81,0
929,929,18.38,-0.94,139.12,0
930,930,18.4,-5.83,143.5,0
931,931,18.41,-14.25,157.7,0
932,932,18.42,-8.82,192.79,0
933,933,18.44,3.21,215.89,0
934,934,18.45,4.05,214.73,0
935,935,18.46,-6.3,208.31,0
936,936,18.48,-9.82,195.06,0
937,937,18.49,3.12,160.08,0
938,938,18.5,12.23,120.04,0
939,939,18.52,-2.21,99.91,0
940,940,18.53,-17.02,97.36,0
941,941,18.54,-7.47,97.9,0
942,942,18.56,8.67,93.56,0
943,943,18.57,8.21,85.57,0
944,944,18.58,-4.99,73.35,0
945,945,18.6,-14.2,51.31,0
946,946,18.61,-9.5,27.57,0
947,947,18.63,4.39,21.66,0
948,948,18.64,14.21,35.79,0
949,949,18.65,11.09,49.56,0
950,950,18.67,-3.74,45.17,0
951,951,18.68,-21.05,25.95,0
952,952,18.69,-27.35,8.98,0
953,953,18.71,-13.6,2.86,0
954,954,18.72,6.82,-0.66,0
955,955,18.73,9.82,-7.86,0
956,956,18.75,-3.33,-15.92,0
957,957,18.76,-10.5,-23.27,0
958,958,18.77,-6.75,-29.23,0
959,959,18.79,-5.81,-32.33,0
960,960,18.8,-12.34,-33.41,0
961,961,18.81,-21.08,-35.94,0
962,962,18.83,-22.2,-41.98,0
963,963,18.84,-5.5,-43.82,0
964,964,18.85,17.17,-40.55,0
965,965,18.87,19.99,-46.23,0
966,966,18.88,1.81,-55.05,0
967,967,18.89,-13.16,-53.52,0
968,968,18.91,-8.21,-53.02,0
969,969,18.92,8.85,-55.24,0
970,970,18.93,15.13,-47.06,0
971,971,18.95,5.28,-39.97,0
972,972,18.96,0.69,-45.53,0
973,973,18.97,6.17,-50.13,0
974,974,18.98,2.98,-51.03,0
975,975,19.0,-6.43,-58.39,0
976,976,19.01,-6.76,-65.21,0
977,977,19.02,-1.47,-61.64,0
978,978,19.04,4.44,-54.91,0
979,979,19.05,11.47,-56.41,0
980,980,19.06,11.89,-65.52,0
981,981,19.08,2.18,-67.62,0
982,982,19.09,-4.64,-53.58,0
983,983,19.1,5.2,-37.7,0
984,984,19.12,22.22,-34.79,0
985,985,19.13,21.28,-41.11,0
986,986,19.14,2.77,-46.94,0
987,987,19.16,-4.56,-45.9,0
988,988,19.17,3.16,-38.43,0
989,989,19.18,-0.17,-32.01,0
990,990,19.2,-14.34,-34.48,0
991,991,19.21,-12.37,-43.61,0
992,992,19.22,5.63,-46.41,0
993,993,19.24,16.57,-40.44,0
994,994,19.25,17.09,-37.52,0
995,995,19.26,15.36,-38.0,0
996,996,19.28,8.61,-33.3,0
997,997,19.29,-1.3,-25.53,0
998,998,19.31,-4.59,-22.52,0
999,999,19.32,-0.46,-26.8,0
1000,1000,19.33,4.64,-31.68,0
1001,1001,19.35,4.07,-28.1,0
1002,1002,19.36,-1.48,-14.96,0
1003,1003,19.37,-0.55,-1.89,0
1004,1004,19.39,10.13,-0.55,0
1005,1005,19.4,16.34,-8.7,0
1006,1006,19.41,11.09,-14.06,0
1007,1007,19.43,4.63,-14.11,0
1008,1008,19.44,3.49,-12.95,0
1009,1009,19.45,5.5,-8.62,0
1010,1010,19.47,8.03,-1.07,0
1011,1011,19.48,4.69,0.92,0
1012,1012,19.49,-8.77,-3.13,0
1013,1013,19.51,-18.74,-1.98,0
1014,1014,19.52,-11.28,5.23,0
1015,1015,19.53,2.18,7.66,0
1016,1016,19.55,6.49,4.96,0
1017,1017,19.56,2.83,5.77,0
1018,1018,19.57,-4.15,6.68,0
1019,1019,19.59,-6.88,0.64,0
1020,1020,19.6,0.89,-2.42,0
1021,1021,19.61,7.95,5.68,0
1022,1022,19.62,7.22,14.96,0
1023,1023,19.64,7.34,16.18,0
1024,1024,19.65,7.29,8.83,0
1025,1025,19.67,2.45,-0.65,0
1026,1026,19.68,-1.12,-2.07,0
1027,1027,19.69,-2.93,0.88,0
1028,1028,19.7,-7.74,-1.01,0
1029,1029,19.72,-12.32,-1.58,0
1030,1030,19.73,-10.4,7.38,0
1031,1031,19.75,-6.39,17.08,0
1032,1032,19.76,-7.19,14.62,0
1033,1033,19.77,-5.51,6.17,0
1034,1034,19.78,4.26,4.92,0
1035,1035,19.8,8.31,11.88,0
1036,1036,19.81,0.69,23.52,0
1037,1037,19.82,-1.7,33.59,0
1038,1038,19.84,4.49,33.7,0
1039,1039,19.85,1.49,26.07,0
1040,1040,19.86,-11.56,18.83,0
1041,1041,19.88,-15.37,14.72,0
1042,1042,19.89,-5.66,14.31,0
1043,1043,19.9,2.7,17.52,0
1044,1044,19.92,4.48,20.64,0
1045,1045,19.93,9.89,19.75,0
1046,1046,19.95,18.74,15.6,0
1047,1047,19.96,19.16,12.24,0
1048,1048,19.97,12.85,15.93,0
1049,1049,19.99,9.9,28.07,0
1050,1050,20.0,10.42,37.04,0
1051,1051,20.01,6.85,33.39,0
1052,1052,20.03,-2.9,25.57,0
1053,1053,20.04,-11.79,26.42,0
1054,1054,20.05,-16.45,35.92,0
1055,1055,20.07,-17.59,39.37,0
1056,1056,20.08,-12.54,27.71,0
1057,1057,20.09,-3.44,14.99,0
1058,1058,20.11,-1.04,14.07,0
1059,1059,20.12,-7.35,18.3,0
1060,1060,20.13,-9.44,23.47,0
1061,1061,20.15,-1.21,26.75,0
1062,1062,20.16,8.3,21.29,0
1063,1063,20.17,11.45,15.68,0
1064,1064,20.19,6.32,16.56,0
1065,1065,20.2,-2.1,15.2,0
1066,1066,20.21,-3.16,28.85,0
1067,1067,20.23,2.25,95.15,0
1068,1068,20.24,7.49,203.14,0
1069,1069,20.25,14.09,293.2,0
1070,1070,20.26,12.28,329.12,0
1071,1071,20.28,-4.88,316.05,0
1072,1072,20.29,-14.12,258.39,0
1073,1073,20.3,-6.06,161.29,0
1074,1074,20.32,-9.64,59.68,0
1075,1075,20.33,-32.72,-12.99,0
1076,1076,20.34,-43.81,-63.53,0
1077,1077,20.36,-30.34,-111.1,0
1078,1078,20.37,-17.37,-158.54,0
1079,1079,20.38,-16.06,-202.63,0
1080,1080,20.4,-11.35,-232.83,0
1081,1081,20.41,-3.02,-230.66,0
1082,1082,20.42,-0.13,-204.88,0
1083,1083,20.44,4.46,-183.87,0
1084,1084,20.45,11.81,-170.68,0
1085,1085,20.46,9.53,-154.88,0
1086,1086,20.48,0.28,-136.77,0
1087,1087,20.49,-1.44,-119.16,0
1088,1088,20.5,1.98,-107.47,0
1089,1089,20.52,1.77,-102.15,0
1090,1090,20.53,2.85,-94.49,0
1091,1091,20.54,6.57,-88.31,0
1092,1092,20.56,7.32,-91.48,0
1093,1093,20.57,6.32,-92.36,0
1094,1094,20.59,6.78,-80.65,0
1095,1095,20.6,12.46,-70.34,0
1096,1096,20.61,20.85,-68.23,0
1097,1097,20.63,19.26,-57.87,0
1098,1098,20.64,10.12,-39.26,0
1099,1099,20.65,8.62,-30.0,0
1100,1100,20.67,10.34,-27.0,0
1101,1101,20.68,1.48,-21.61,0
1102,1102,20.69,-11.82,-14.06,0
1103,1103,20.71,-10.01,0.22,0
1104,1104,20.72,8.58,15.15,0
1105,1105,20.73,20.43,14.41,0
1106,1106,20.75,13.41,5.45,0
1107,1107,20.76,3.36,7.28,0
1108,1108,20.77,4.36,13.46,0
1109,1109,20.79,9.17,11.39,0
1110,1110,20.8,6.94,10.86,0
1111,1111,20.81,0.99,20.45,0
1112,1112,20.83,-2.06,31.09,0
1113,1113,20.84,-3.71,36.63,0
1114,1114,20.85,-6.11,38.57,0
1115,1115,20.87,-6.67,34.4,0
1116,1116,20.88,-5.84,26.77,0
1117,1117,20.89,-9.64,26.62,0
1118,1118,20.9,-13.06,29.63,0
1119,1119,20.92,-3.97,28.51,0
1120,1120,20.93,8.68,35.18,0
1121,1121,20.94,7.84,49.33,0
1122,1122,20.96,-0.18,50.88,0
1123,1123,20.97,-5.32,42.37,0
1124,1124,20.98,-12.02,43.18,0
1125,1125,21.0,-13.46,48.3,0
1126,1126,21.01,-3.2,45.27,0
1127,1127,21.02,4.61,44.94,0
1128,1128,21.04,4.81,52.48,0
1129,1129,21.05,2.93,52.92,0
1130,1130,21.06,0.67,46.28,0
1131,1131,21.08,3.72,43.95,0
1132,1132,21.09,9.01,43.55,0
1133,1133,21.1,5.57,42.15,0
1134,1134,21.12,-1.34,41.41,0
1135,1135,21.13,-1.66,37.99,0
1136,1136,21.14,-0.6,34.4,0
1137,1137,21.16,-3.47,37.29,0
1138,1138,21.17,-1.59,40.09,0
1139,1139,21.18,5.55,38.27,0
1140,1140,21.2,4.52,38.12,0
1141,1141,21.21,-0.83,38.91,0
1142,1142,21.23,1.77,36.73,0
1143,1143,21.24,3.16,33.18,0
1144,1144,21.25,-5.19,26.75,0
1145,1145,21.27,-9.9,19.53,0
1146,1146,21.28,-5.6,20.21,0
1147,1147,21.29,-5.48,21.77,0
1148,1148,21.31,-9.05,10.81,0
1149,1149,21.32,-2.93,0.67,0
1150,1150,21.33,7.16,6.43,0
1151,1151,21.35,3.0,11.7,0
1152,1152,21.36,-9.54,5.52,0
1153,1153,21.37,-8.4,5.5,0
1154,1154,21.39,-1.1,14.35,0
1155,1155,21.4,-6.32,13.9,0
1156,1156,21.41,-8.44,1.81,0
1157,1157,21.43,5.36,-7.04,0
1158,1158,21.44,14.64,-3.04,0
1159,1159,21.45,8.7,6.82,0
1160,1160,21.47,0.99,8.98,0
1161,1161,21.48,-1.1,5.9,0
1162,1162,21.49,-0.98,6.01,0
1163,1163,21.51,-0.64,4.66,0
1164,1164,21.52,-2.19,-0.84,0
1165,1165,21.53,-9.18,-1.9,0
1166,1166,21.54,-15.32,3.65,0
1167,1167,21.56,-8.55,7.15,0
1168,1168,21.57,2.9,3.33,0
1169,1169,21.58,2.49,-0.15,0
1170,1170,21.6,-1.07,2.35,0
1171,1171,21.61,4.05,1.71,0
1172,1172,21.62,6.44,-6.42,0
1173,1173,21.64,2.18,-12.85,0
1174,1174,21.65,0.27,-11.71,0
1175,1175,21.67,-3.83,-8.59,0
1176,1176,21.68,-9.12,-8.49,0
1177,1177,21.69,-2.1,-5.31,0
1178,1178,21.7,9.62,-1.35,0
1179,1179,21.72,8.46,-7.82,0
1180,1180,21.73,-2.06,-17.14,0
1181,1181,21.75,-7.0,-16.33,0
1182,1182,21.76,-2.31,-12.64,0
1183,1183,21.77,5.94,-16.67,0
1184,1184,21.78,11.22,-22.23,0
1185,1185,21.8,6.33,-21.96,0
1186,1186,21.81,-7.48,-17.97,0
1187,1187,21.82,-10.77,-7.82,0
1188,1188,21.84,6.79,6.03,0
1189,1189,21.85,21.69,4.19,0
1190,1190,21.87,12.11,-14.94,0
1191,1191,21.88,-7.36,-27.26,0
1192,1192,21.89,-12.31,-22.92,0
1193,1193,21.91,-4.19,-13.98,0
1194,1194,21.92,-0.27,-8.44,0
1195,1195,21.93,-4.35,-5.0,0
1196,1196,21.95,-6.11,-5.12,0
1197,1197,21.96,-2.99,-8.64,0
1198,1198,21.97,0.38,-10.97,0
1199,1199,21.99,3.03,-17.31,0
1200,1200,22.0,4.46,-31.26,0
1201,1201,22.01,1.84,-40.2,0
1202,1202,22.03,-5.77,-34.42,0
1203,1203,22.04,-12.69,-20.32,0
1204,1204,22.05,-11.38,-11.25,0
1205,1205,22.07,-4.72,-16.3,0
1206,1206,22.08,0.5,-24.55,0
1207,1207,22.09,4.99,-18.75,0
1208,1208,22.11,7.28,-9.94,0
1209,1209,22.12,5.36,-16.7,0
1210,1210,22.13,6.24,-26.34,0
1211,1211,22.15,9.36,-22.61,0
1212,1212,22.16,3.24,-14.68,0
1213,1213,22.17,-9.94,-6.43,0
1214,1214,22.18,-14.33,29.33,0
1215,1215,22.2,-0.09,95.94,0
1216,1216,22.21,26.28,137.37,0
1217,1217,22.22,39.04,135.44,0
1218,1218,22.24,17.72,122.34,0
1219,1219,22.25,-11.07,86.43,0
1220,1220,22.26,0.0,43.81,0
1221,1221,22.28,23.99,40.33,0
1222,1222,22.29,-1.23,36.19,0
1223,1223,22.3,-42.22,50.68,0
1224,1224,22.32,-35.74,131.77,0
1225,1225,22.33,-7.31,130.23,0
1226,1226,22.34,0.76,-2.86,0
1227,1227,22.36,-0.35,-55.78,0
1228,1228,22.37,-4.34,6.16,0
1229,1229,22.38,-21.79,-5.51,0
1230,1230,22.4,-33.1,-105.62,0
1231,1231,22.41,-19.7,-153.86,0
1232,1232,22.42,3.26,-145.9,0
1233,1233,22.44,20.27,-142.25,0
1234,1234,22.45,23.4,-133.83,0
1235,1235,22.46,3.46,-150.98,0
1236,1236,22.48,-28.56,-176.23,0
1237,1237,22.49,-43.49,-119.66,0
1238,1238,22.5,-28.63,-54.64,0
1239,1239,22.52,-0.12,-85.81,0
1240,1240,22.53,18.05,-117.3,0
1241,1241,22.55,18.73,-58.51,0
1242,1242,22.56,15.6,4.06,0
1243,1243,22.57,19.66,-10.73,0
1244,1244,22.59,21.6,-54.18,0
1245,1245,22.6,13.54,-65.89,0
1246,1246,22.61,8.32,-48.65,0
1247,1247,22.63,10.03,-31.14,0
1248,1248,22.64,5.04,-37.62,0
1249,1249,22.65,-2.61,-59.83,0
1250,1250,22.67,-3.59,-63.88,0
1251,1251,22.68,-6.81,-41.66,0
1252,1252,22.69,-10.92,-11.95,0
1253,1253,22.71,-0.7,8.83,0
1254,1254,22.72,18.37,3.77,0
1255,1255,22.73,23.5,-24.39,0
1256,1256,22.75,10.44,-23.83,0
1257,1257,22.76,-1.8,30.13,0
1258,1258,22.77,-2.7,49.45,0
1259,1259,22.79,5.44,-8.82,0
1260,1260,22.8,19.82,-32.82,0
1261,1261,22.81,24.22,21.75,0
1262,1262,22.82,5.26,48.33,0
1263,1263,22.84,-12.38,2.17,0
1264,1264,22.85,1.01,-22.95,0
1265,1265,22.86,24.18,22.36,0
1266,1266,22.88,22.59,65.93,0
1267,1267,22.89,14.51,72.52,0
1268,1268,22.9,26.31,54.12,0
1269,1269,22.92,29.9,10.66,0
1270,1270,22.93,3.0,-5.7,0
1271,1271,22.94,-15.07,11.1,0
1272,1272,22.96,2.81,-12.1,0
1273,1273,22.97,17.42,-30.82,0
1274,1274,22.98,-0.7,25.82,0
1275,1275,23.0,-21.57,58.01,0
1276,1276,23.01,-17.3,0.3,0
1277,1277,23.02,-2.82,-31.64,0
1278,1278,23.04,0.85,22.89,0
1279,1279,23.05,-1.62,59.15,0
1280,1280,23.06,1.82,15.54,0
1281,1281,23.08,3.26,-4.92,0
1282,1282,23.09,-8.11,58.35,0
1283,1283,23.1,-17.34,96.39,0
1284,1284,23.12,-11.56,46.72,0
1285,1285,23.13,-4.69,-7.6,0
1286,1286,23.14,-5.46,-9.15,0
1287,1287,23.16,-5.45,19.8,0
1288,1288,23.17,-4.49,57.42,0
1289,1289,23.19,-7.39,71.23,0
1290,1290,23.2,-10.35,36.21,0
1291,1291,23.21,-10.89,10.1,0
1292,1292,23.23,-14.15,43.31,0
1293,1293,23.24,-21.68,93.52,0
1294,1294,23.25,-23.48,98.37,0
1295,1295,23.27,-11.8,60.24,0
1296,1296,23.28,1.94,39.78,0
1297,1297,23.29,2.69,48.02,0
1298,1298,23.31,-6.08,46.9,0
1299,1299,23.32,-10.45,36.98,0
1300,1300,23.33,-3.32,14.08,0
1301,1301,23.35,6.32,-20.39,0
1302,1302,23.36,4.71,-25.65,0
1303,1303,23.37,-5.46,-8.48,0
1304,1304,23.39,-11.42,8.21,0
1305,1305,23.4,-9.97,37.22,0
1306,1306,23.41,-15.19,46.24,0
1307,1307,23.43,-28.08,8.13,0
1308,1308,23.44,-17.05,-14.08,0
1309,1309,23.45,18.2,13.09,0
1310,1310,23.46,28.65,30.86,0
1311,1311,23.48,5.29,5.21,0
1312,1312,23.49,-12.27,-7.76,0
1313,1313,23.5,-14.61,32.25,0
1314,1314,23.52,-12.72,60.63,0
1315,1315,23.53,-0.25,28.41,0
1316,1316,23.54,13.4,-11.8,0
1317,1317,23.56,11.98,-10.52,0
1318,1318,23.57,7.03,24.53,0
1319,1319,23.58,4.62,61.74,0
1320,1320,23.6,-0.16,55.38,0
1321,1321,23.61,4.7,3.07,0
1322,1322,23.62,19.82,-33.21,0
1323,1323,23.64,17.12,-30.6,0
1324,1324,23.65,-8.65,-25.65,0
1325,1325,23.67,-25.23,-19.42,0
1326,1326,23.68,-18.77,7.18,0
1327,1327,23.69,-6.6,16.57,0
1328,1328,23.7,3.28,-27.25,0
1329,1329,23.72,12.25,-63.09,0
1330,1330,23.73,14.12,-18.44,0
1331,1331,23.75,7.87,48.55,0
1332,1332,23.76,2.73,37.7,0
1333,1333,23.77,2.22,-24.3,0
1334,1334,23.78,2.91,-44.73,0
1335,1335,23.8,8.16,-1.39,0
1336,1336,23.81,13.83,59.68,0
1337,1337,23.83,3.12,78.78,0
1338,1338,23.84,-13.33,33.03,0
1339,1339,23.85,-10.85,-35.63,0
1340,1340,23.87,2.86,-69.31,0
1341,1341,23.88,6.89,-52.73,0
1342,1342,23.89,3.53,-20.83,0
1343,1343,23.91,8.02,-9.18,0
1344,1344,23.92,12.61,7.73,0
1345,1345,23.93,-1.27,34.07,0
1346,1346,23.95,-17.67,-3.24,0
1347,1347,23.96,-15.5,-81.71,0
1348,1348,23.97,-11.68,-65.98,0
1349,1349,23.99,-15.77,27.39,0
1350,1350,24.0,-9.58,42.63,0
1351,1351,24.01,8.49,-27.9,0
1352,1352,24.03,22.31,-61.9,0
1353,1353,24.04,20.26,-31.65,0
1354,1354,24.05,4.05,-16.65,0
1355,1355,24.07,-6.79,-49.93,0
1356,1356,24.08,-3.7,-63.04,0
1357,1357,24.09,2.59,-19.98,0
1358,1358,24.1,11.3,16.55,0
1359,1359,24.12,20.04,9.37,0
1360,1360,24.13,14.7,-3.74,0
1361,1361,24.14,2.37,5.56,0
1362,1362,24.16,1.97,22.72,0
1363,1363,24.17,1.68,17.26,0
1364,1364,24.18,-13.23,-15.19,0
1365,1365,24.2,-20.32,-40.5,0
1366,1366,24.21,-5.21,-57.55,0
1367,1367,24.22,11.81,-111.26,0
1368,1368,24.24,17.92,-187.26,0
1369,1369,24.25,18.24,-216.53,0
1370,1370,24.26,22.03,-197.84,0
1371,1371,24.28,28.72,-178.35,0
1372,1372,24.29,17.44,-157.65,0
1373,1373,24.3,-7.25,-102.86,0
1374,1374,24.32,-5.26,-17.64,0
1375,1375,24.33,13.62,50.87,0
1376,1376,24.34,3.73,76.07,0
1377,1377,24.36,-21.17,80.3,0
1378,1378,24.37,-23.61,80.2,0
1379,1379,24.38,-11.75,74.09,0
1380,1380,24.4,-2.54,72.19,0
1381,1381,24.41,5.42,78.85,0
1382,1382,24.42,7.56,80.77,0
1383,1383,24.44,0.47,68.0,0
1384,1384,24.45,-5.66,52.2,0
1385,1385,24.46,-3.34,54.78,0
1386,1386,24.48,-2.05,64.76,0
1387,1387,24.49,-9.01,53.62,0
1388,1388,24.51,-12.53,30.84,0
1389,1389,24.52,-11.33,24.15,0
1390,1390,24.53,-15.61,33.94,0
1391,1391,24.55,-13.32,47.52,0
1392,1392,24.56,-1.84,56.79,0
1393,1393,24.57,-3.26,57.59,0
1394,1394,24.59,-8.85,54.84,0
1395,1395,24.6,8.27,55.66,0
1396,1396,24.61,25.35,56.85,0
1397,1397,24.63,8.5,51.67,0
1398,1398,24.64,-14.52,42.54,0
1399,1399,24.65,-8.83,36.47,0
1400,1400,24.67,1.89,34.91,0
1401,1401,24.68,-5.42,36.15,0
1402,1402,24.69,-10.14,34.59,0
1403,1403,24.71,-1.24,23.44,0
1404,1404,24.72,3.87,5.71,0
1405,1405,24.73,-0.44,-5.58,0
1406,1406,24.75,-1.59,-0.58,0
1407,1407,24.76,0.61,15.24,0
1408,1408,24.77,-3.19,27.49,0
1409,1409,24.78,-5.62,29.55,0
1410,1410,24.8,0.04,23.49,0
1411,1411,24.81,1.2,12.94,0
1412,1412,24.82,-3.23,1.14,0
1413,1413,24.84,-1.3,-7.05,0
1414,1414,24.85,-0.36,-7.89,0
1415,1415,24.86,-8.02,-2.58,0
1416,1416,24.88,-10.58,1.74,0
1417,1417,24.89,-0.49,-2.57,0
1418,1418,24.9,11.58,-9.13,0
1419,1419,24.92,11.1,-9.06,0
1420,1420,24.93,-3.26,-10.73,0
1421,1421,24.94,-14.7,-19.86,0
1422,1422,24.96,-10.52,-24.37,0
1423,1423,24.97,3.9,-20.46,0
1424,1424,24.98,14.84,-18.4,0
1425,1425,25.0,13.23,-17.58,0
1426,1426,25.01,5.05,-15.48,0
1427,1427,25.02,3.17,-14.97,0
1428,1428,25.04,9.16,-12.91,0
1429,1429,25.05,10.2,-11.49,0
1430,1430,25.06,-1.25,-16.42,0
1431,1431,25.08,-10.84,-19.46,0
1432,1432,25.09,-6.31,-11.71,0
1433,1433,25.1,-0.59,-1.19,0
1434,1434,25.12,-4.39,-3.09,0
1435,1435,25.13,-6.23,-16.03,0
1436,1436,25.15,3.85,-21.2,0
1437,1437,25.16,13.8,-14.96,0
1438,1438,25.17,7.2,-15.07,0
1439,1439,25.19,-10.05,-23.88,0
1440,1440,25.2,-13.54,-26.29,0
1441,1441,25.21,4.48,-25.92,0
1442,1442,25.23,16.18,-34.07,0
1443,1443,25.24,1.25,-41.19,0
1444,1444,25.25,-14.84,-38.41,0
1445,1445,25.27,-5.05,-32.46,0
1446,1446,25.28,9.52,-27.69,0
1447,1447,25.29,2.15,-20.91,0
1448,1448,25.31,-7.68,-12.08,0
1449,1449,25.32,-0.35,-9.84,0
1450,1450,25.33,5.06,-18.79,0
1451,1451,25.35,-1.16,-24.59,0
1452,1452,25.36,-1.57,-16.15,0
1453,1453,25.37,5.81,-5.65,0
1454,1454,25.38,8.21,-3.55,0
1455,1455,25.4,6.15,-4.83,0
1456,1456,25.41,4.45,-8.19,0
1457,1457,25.42,4.49,-15.08,0
1458,1458,25.44,5.08,-16.84,0
1459,1459,25.45,2.07,-9.19,0
1460,1460,25.46,-2.31,-0.95,0
1461,1461,25.48,-4.68,-0.61,0
1462,1462,25.49,-7.0,-7.46,0
1463,1463,25.5,-4.92,-11.89,0
1464,1464,25.52,4.6,-9.5,0
1465,1465,25.53,11.36,-6.58,0
1466,1466,25.54,5.91,-2.49,0
1467,1467,25.56,-5.69,3.91,0
1468,1468,25.57,-6.14,-0.46,0
1469,1469,25.58,9.78,-15.8,0
1470,1470,25.6,20.85,-19.36,0
1471,1471,25.61,13.73,-6.35,0
1472,1472,25.62,2.61,1.07,0
1473,1473,25.64,-2.91,-5.12,0
1474,1474,25.65,-8.99,-10.98,0
1475,1475,25.67,-16.48,-8.51,0
1476,1476,25.68,-14.41,-1.73,0
1477,1477,25.69,-3.37,1.25,0
1478,1478,25.7,-2.16,-5.34,0
1479,1479,25.72,-8.8,-12.79,0
1480,1480,25.73,0.99,-8.93,0
1481,1481,25.75,14.11,1.06,0
1482,1482,25.76,-0.66,4.05,0
1483,1483,25.77,-18.73,-0.05,0
1484,1484,25.79,-7.37,-1.21,0
1485,1485,25.8,9.28,5.21,0
1486,1486,25.81,8.93,10.84,0
1487,1487,25.83,6.3,5.57,0
1488,1488,25.84,8.05,-2.15,0
1489,1489,25.85,4.6,2.19,0
1490,1490,25.87,-1.99,11.38,0
1491,1491,25.88,-1.29,12.57,0
1492,1492,25.89,3.71,7.41,0
1493,1493,25.91,2.23,-0.51,0
1494,1494,25.92,-6.27,-7.56,0
1495,1495,25.93,-11.3,-6.26,0
1496,1496,25.95,0.12,2.89,0
1497,1497,25.96,20.43,8.56,0
1498,1498,25.97,20.22,6.55,0
1499,1499,25.99,-2.4,7.15,0
1500,1500,26.0,-15.54,13.25,0
1501,1501,26.01,-10.38,14.28,0
1502,1502,26.02,-1.92,12.78,0
1503,1503,26.04,7.29,17.86,0
1504,1504,26.05,11.2,20.95,0
1505,1505,26.06,-0.34,14.77,0
1506,1506,26.08,-11.91,8.22,0
1507,1507,26.09,-8.03,8.4,0
1508,1508,26.1,1.34,15.09,0
1509,1509,26.12,5.1,23.49,0
1510,1510,26.13,3.36,25.26,0
1511,1511,26.14,0.99,12.39,0
1512,1512,26.16,1.02,-27.1,0
1513,1513,26.17,3.18,-85.28,0
1514,1514,26.18,10.46,-117.62,0
1515,1515,26.2,18.9,-114.27,0
1516,1516,26.21,11.24,-125.25,0
1517,1517,26.22,-6.84,-160.79,0
1518,1518,26.24,-4.59,-172.79,0
1519,1519,26.25,16.93,-145.26,0
1520,1520,26.26,26.43,-105.98,0
1521,1521,26.28,18.02,-73.43,0
1522,1522,26.29,7.28,-47.47,0
1523,1523,26.3,-3.78,-22.72,0
1524,1524,26.32,-14.51,6.11,0
1525,1525,26.33,-16.71,33.01,0
1526,1526,26.34,-17.65,49.67,0
1527,1527,26.36,-24.72,68.8,0
1528,1528,26.37,-25.53,98.34,0
1529,1529,26.38,-18.15,116.57,0
1530,1530,26.4,-14.74,114.29,0
1531,1531,26.41,-13.35,115.52,0
1532,1532,26.43,-10.47,133.14,0
1533,1533,26.44,-11.8,147.12,0
1534,1534,26.45,-15.25,138.53,0
1535,1535,26.47,-14.87,121.41,0
1536,1536,26.48,-8.68,120.73,0
1537,1537,26.49,-2.0,132.59,0
1538,1538,26.51,-1.89,139.11,0
1539,1539,26.52,-3.35,135.83,0
1540,1540,26.53,-0.95,121.16,0
1541,1541,26.55,3.67,100.25,0
1542,1542,26.56,7.23,91.57,0
1543,1543,26.57,5.57,96.62,0
1544,1544,26.59,3.7,95.15,0
1545,1545,26.6,5.39,85.99,0
1546,1546,26.61,3.98,80.83,0
1547,1547,26.63,1.11,70.77,0
1548,1548,26.64,0.45,53.42,0
1549,1549,26.65,-3.5,44.78,0
1550,1550,26.67,-9.14,41.78,0
1551,1551,26.68,-7.62,31.31,0
1552,1552,26.69,-2.26,20.59,0
1553,1553,26.7,-4.09,19.01,0
1554,1554,26.72,-8.2,17.03,0
1555,1555,26.73,-5.29,2.66,0
1556,1556,26.75,-2.25,-14.51,0
1557,1557,26.76,-3.45,-17.42,0
1558,1558,26.77,-3.08,-11.06,0
1559,1559,26.78,-3.43,-12.93,0
1560,1560,26.8,-5.61,-25.47,0
1561,1561,26.81,-3.15,-34.3,0
1562,1562,26.82,2.42,-33.37,0
1563,1563,26.84,3.79,-33.53,0
1564,1564,26.85,-0.45,-40.71,0
1565,1565,26.86,-3.49,-47.14,0
1566,1566,26.88,1.56,-49.21,0
1567,1567,26.89,9.36,-51.09,0
1568,1568,26.9,8.97,-49.11,0
1569,1569,26.92,1.13,-40.97,0
1570,1570,26.93,-4.52,-38.28,0
1571,1571,26.94,-3.84,-44.75,0
1572,1572,26.96,0.01,-50.1,0
1573,1573,26.97,1.43,-52.5,0
1574,1574,26.98,1.12,-57.25,0
1575,1575,27.0,4.13,-61.11,0
1576,1576,27.01,9.07,-59.2,0
1577,1577,27.02,14.06,-54.36,0
1578,1578,27.04,19.13,-51.04,0
1579,1579,27.05,20.63,-50.06,0
1580,1580,27.065,17.64,-51.56,0
1581,1581,27.08,15.12,-53.3,0
1582,1582,27.09,12.25,-50.48,0
1583,1583,27.11,1.56,-45.66,0
1584,1584,27.12,-12.52,-41.69,0
1585,1585,27.13,-13.89,-36.45,0
1586,1586,27.15,-2.82,-38.64,0
1587,1587,27.16,5.54,-49.74,0
1588,1588,27.17,9.41,-51.28,0
1589,1589,27.19,14.27,-43.38,0
1590,1590,27.2,15.93,-42.34,0
1591,1591,27.21,12.6,-45.55,0
1592,1592,27.23,7.98,-44.47,0
1593,1593,27.24,0.36,-41.29,0
1594,1594,27.25,-6.12,-37.13,0
1595,1595,27.27,-2.52,-31.32,0
1596,1596,27.28,3.39,-28.92,0
1597,1597,27.29,1.79,-32.16,0
1598,1598,27.3,0.4,-33.3,0
1599,1599,27.32,2.7,-29.69,0
1600,1600,27.33,0.84,-31.42,0
1601,1601,27.34,-6.69,-37.73,0
1602,1602,27.36,-13.16,-34.07,0
1603,1603,27.37,-10.07,-22.55,0
1604,1604,27.38,1.23,-18.47,0
1605,1605,27.4,6.9,-20.84,0
1606,1606,27.41,3.07,-19.63,0
1607,1607,27.42,0.69,-15.0,0
1608,1608,27.44,2.8,-9.06,0
1609,1609,27.45,0.39,-3.43,0
1610,1610,27.46,-4.5,-4.36,0
1611,1611,27.48,-0.49,-9.02,0
1612,1612,27.49,5.47,-7.48,0
1613,1613,27.5,-0.24,-4.82,0
1614,1614,27.52,-6.71,-8.48,0
1615,1615,27.53,1.94,-9.4,0
1616,1616,27.54,15.41,-3.76,0
1617,1617,27.56,11.1,-0.85,0
1618,1618,27.57,-9.03,-1.26,0
1619,1619,27.58,-16.75,1.38,0
1620,1620,27.6,-1.9,6.6,0
1621,1621,27.61,10.54,8.39,0
1622,1622,27.62,6.83,5.72,0
1623,1623,27.64,0.65,5.65,0
1624,1624,27.65,-3.86,9.09,0
1625,1625,27.67,-8.89,8.68,0
1626,1626,27.68,-5.25,6.72,0
1627,1627,27.69,1.91,9.66,0
1628,1628,27.7,1.54,14.93,0
1629,1629,27.72,3.24,17.58,0
1630,1630,27.73,7.32,16.05,0
1631,1631,27.75,2.76,13.26,0
1632,1632,27.76,-3.16,13.59,0
1633,1633,27.77,-4.96,17.89,0
1634,1634,27.79,-4.82,20.56,0
1635,1635,27.8,1.26,16.92,0
1636,1636,27.81,5.97,16.21,0
1637,1637,27.83,0.33,23.15,0
1638,1638,27.84,-2.19,23.93,0
1639,1639,27.85,5.36,16.86,0
1640,1640,27.87,4.86,15.04,0
1641,1641,27.88,-8.51,18.41,0
1642,1642,27.89,-11.7,16.89,0
1643,1643,27.91,0.35,12.45,0
1644,1644,27.92,6.41,17.79,0
1645,1645,27.93,3.08,29.17,0
1646,1646,27.94,3.94,30.66,0
1647,1647,27.96,7.77,22.27,0
1648,1648,27.97,6.09,17.56,0
1649,1649,27.98,2.14,23.6,0
1650,1650,28.0,-1.03,29.53,0
1651,1651,28.01,-6.8,23.45,0
1652,1652,28.02,-10.56,15.38,0
1653,1653,28.04,-6.44,17.85,0
1654,1654,28.05,-1.74,21.53,0
1655,1655,28.06,-5.54,16.46,0
1656,1656,28.08,-12.95,14.08,0
1657,1657,28.09,-13.84,23.47,0
1658,1658,28.1,-9.48,26.66,0
1659,1659,28.12,-5.4,15.73,0
1660,1660,28.13,-0.84,14.01,0
1661,1661,28.14,1.86,24.23,0
1662,1662,28.16,0.67,24.91,0
1663,1663,28.17,1.51,16.83,0
1664,1664,28.18,5.13,10.01,0
1665,1665,28.2,6.88,5.72,0
1666,1666,28.21,4.07,11.43,0
1667,1667,28.22,0.4,44.81,0
1668,1668,28.24,6.5,122.91,0
1669,1669,28.25,18.83,231.3,0
1670,1670,28.26,20.6,318.19,0
1671,1671,28.28,9.19,344.6,0
1672,1672,28.29,-5.21,309.36,0
1673,1673,28.3,-14.52,235.31,0
1674,1674,28.32,-22.25,156.33,0
1675,1675,28.33,-38.17,89.67,0
1676,1676,28.34,-56.28,21.04,0
1677,1677,28.36,-64.05,-62.35,0
1678,1678,28.37,-57.85,-145.21,0
1679,1679,28.39,-36.49,-199.87,0
1680,1680,28.4,-9.59,-212.84,0
1681,1681,28.41,6.87,-197.83,0
1682,1682,28.43,13.01,-185.96,0
1683,1683,28.44,14.52,-190.32,0
1684,1684,28.45,12.85,-191.88,0
1685,1685,28.47,17.82,-173.64,0
1686,1686,28.48,29.92,-150.0,0
1687,1687,28.49,23.7,-138.04,0
1688,1688,28.51,1.31,-126.15,0
1689,1689,28.52,7.1,-99.62,0
1690,1690,28.53,47.4,-73.75,0
1691,1691,28.55,71.25,-71.21,0
1692,1692,28.56,50.52,-87.13,0
1693,1693,28.57,16.91,-97.65,0
1694,1694,28.58,7.54,-90.4,0
1695,1695,28.6,14.58,-76.22,0
1696,1696,28.61,11.21,-66.8,0
1697,1697,28.62,-3.25,-60.75,0
1698,1698,28.64,-9.68,-55.83,0
1699,1699,28.65,-4.32,-48.75,0
1700,1700,28.67,-0.88,-35.46,0
1701,1701,28.68,-4.85,-22.23,0
1702,1702,28.69,-6.59,-16.78,0
1703,1703,28.7,2.16,-11.97,0
1704,1704,28.72,11.46,-1.87,0
1705,1705,28.73,1.57,0.86,0
1706,1706,28.75,-20.45,-6.78,0
1707,1707,28.76,-24.32,-7.55,0
1708,1708,28.77,-8.28,2.28,0
1709,1709,28.78,-2.37,10.87,0
1710,1710,28.8,-11.27,15.95,0
1711,1711,28.81,-10.63,21.51,0
1712,1712,28.82,0.33,23.24,0
1713,1713,28.84,2.45,17.87,0
1714,1714,28.85,-2.31,15.98,0
1715,1715,28.86,-3.14,26.37,0
1716,1716,28.88,-1.13,37.3,0
1717,1717,28.89,2.55,36.33,0
1718,1718,28.9,5.73,32.36,0
1719,1719,28.92,3.67,34.51,0
1720,1720,28.93,-0.7,36.08,0
1721,1721,28.94,-1.56,35.24,0
1722,1722,28.96,2.49,36.66,0
1723,1723,28.97,8.68,39.03,0
1724,1724,28.98,10.99,43.79,0
1725,1725,29.0,8.33,47.01,0
1726,1726,29.01,1.17,39.27,0
1727,1727,29.03,-10.89,28.49,0
1728,1728,29.04,-18.91,26.79,0
1729,1729,29.05,-10.09,30.79,0
1730,1730,29.07,8.04,34.11,0
1731,1731,29.08,8.67,34.62,0
1732,1732,29.09,-8.71,32.33,0
1733,1733,29.11,-13.67,30.55,0
1734,1734,29.12,-2.26,31.37,0
1735,1735,29.13,0.24,34.52,0
1736,1736,29.15,-6.59,35.47,0
1737,1737,29.16,0.24,28.99,0
1738,1738,29.17,15.05,22.17,0
1739,1739,29.19,7.19,24.63,0
1740,1740,29.2,-16.56,30.35,0
1741,1741,29.21,-20.69,29.41,0
1742,1742,29.22,-5.27,26.63,0
1743,1743,29.24,5.49,30.17,0
1744,1744,29.25,6.23,33.99,0
1745,1745,29.26,3.12,32.19,0
1746,1746,29.28,-2.5,32.24,0
1747,1747,29.29,-7.25,37.91,0
1748,1748,29.3,-7.15,39.32,0
1749,1749,29.32,-5.98,27.36,0
1750,1750,29.33,-6.03,9.94,0
1751,1751,29.34,-2.03,2.13,0
1752,1752,29.36,6.51,6.37,0
1753,1753,29.37,12.58,14.91,0
1754,1754,29.38,13.35,20.03,0
1755,1755,29.4,8.61,22.33,0
1756,1756,29.41,0.53,26.97,0
1757,1757,29.42,-4.24,29.01,0
1758,1758,29.44,-4.05,22.21,0
1759,1759,29.45,-0.91,8.43,0
1760,1760,29.46,2.56,-6.1,0
1761,1761,29.48,2.52,-6.39,0
1762,1762,29.49,-0.71,12.5,0
1763,1763,29.5,-3.84,23.47,0
1764,1764,29.52,-3.68,9.59,0
1765,1765,29.53,0.88,-3.62,0
1766,1766,29.54,6.28,-0.33,0
1767,1767,29.56,7.87,0.54,0
1768,1768,29.57,4.4,-8.05,0
1769,1769,29.58,-1.47,-13.23,0
1770,1770,29.6,-6.32,-10.77,0
1771,1771,29.61,-8.6,-5.74,0
1772,1772,29.62,-8.07,-0.94,0
1773,1773,29.64,-5.43,5.33,0
1774,1774,29.65,-4.91,7.84,0
1775,1775,29.67,-6.94,-4.39,0
1776,1776,29.68,-3.98,-19.31,0
1777,1777,29.69,3.23,-13.86,0
1778,1778,29.71,4.28,-0.65,0
1779,1779,29.72,-1.64,-5.31,0
1780,1780,29.73,-8.51,-16.78,0
1781,1781,29.75,-12.18,-15.57,0
1782,1782,29.76,-9.6,-8.7,0
1783,1783,29.77,-0.01,-4.16,0
1784,1784,29.79,8.6,-1.0,0
1785,1785,29.8,6.73,-4.12,0
1786,1786,29.81,2.36,-12.26,0
1787,1787,29.83,7.04,-15.51,0
1788,1788,29.84,10.98,-15.26,0
1789,1789,29.85,5.81,-13.98,0
1790,1790,29.86,0.92,-7.94,0
1791,1791,29.88,-3.49,-6.51,0
1792,1792,29.89,-12.31,-17.68,0
1793,1793,29.9,-15.25,-24.06,0
1794,1794,29.92,-4.6,-14.27,0
1795,1795,29.93,10.1,-4.76,0
1796,1796,29.94,16.08,-7.02,0
1797,1797,29.96,11.57,-14.18,0
1798,1798,29.97,3.81,-19.75,0
1799,1799,29.98,-2.13,-22.55,0
1800,1800,30.0,-4.67,-23.72,0
1801,1801,30.01,-1.65,-23.54,0
1802,1802,30.02,3.69,-16.82,0
1803,1803,30.04,5.04,-5.62,0
1804,1804,30.05,1.31,-0.88,0
1805,1805,30.06,-3.31,-3.87,0
1806,1806,30.08,-1.96,-8.21,0
1807,1807,30.09,5.97,-13.3,0
1808,1808,30.1,11.43,-20.69,0
1809,1809,30.12,9.95,-22.87,0
1810,1810,30.13,4.59,-17.54,0
1811,1811,30.14,-0.55,-24.1,0
1812,1812,30.16,-1.72,-43.69,0
1813,1813,30.17,-1.22,-36.73,0
1814,1814,30.18,-3.89,-2.2,0
1815,1815,30.2,-2.35,23.47,0
1816,1816,30.21,14.08,73.8,0
1817,1817,30.22,34.49,148.68,0
1818,1818,30.24,43.68,95.01,0
1819,1819,30.25,35.63,-80.28,0
1820,1820,30.26,-1.41,-80.37,0
1821,1821,30.28,-45.07,115.84,0
1822,1822,30.29,-37.34,195.65,0
1823,1823,30.3,6.9,121.01,0
1824,1824,30.32,12.84,50.83,0
1825,1825,30.33,-10.71,20.96,0
1826,1826,30.35,-4.83,33.58,0
1827,1827,30.36,14.56,65.15,0
1828,1828,30.37,12.93,19.59,0
1829,1829,30.39,-0.36,-140.09,0
1830,1830,30.4,-14.99,-224.83,0
1831,1831,30.41,-22.21,-71.95,0
1832,1832,30.43,-16.3,99.09,0
1833,1833,30.44,-8.32,33.52,0
1834,1834,30.45,-7.16,-132.66,0
1835,1835,30.47,-21.28,-138.54,0
1836,1836,30.48,-35.95,-16.94,0
1837,1837,30.49,-10.02,7.71,0
1838,1838,30.5,34.1,-85.28,0
1839,1839,30.52,30.27,-135.05,0
1840,1840,30.53,-6.49,-92.37,0
1841,1841,30.54,-12.14,-21.22,0
1842,1842,30.56,13.37,-9.49,0
1843,1843,30.57,15.23,-83.6,0
1844,1844,30.58,-16.67,-111.8,0
1845,1845,30.6,-28.89,-37.56,0
1846,1846,30.61,-7.4,-6.91,0
1847,1847,30.62,4.51,-56.71,0
1848,1848,30.64,-3.39,-86.17,0
1849,1849,30.65,-4.51,-82.61,0
1850,1850,30.67,-2.65,-60.14,0
1851,1851,30.68,-13.35,-6.5,0
1852,1852,30.69,-15.73,32.1,0
1853,1853,30.7,-1.25,11.71,0
1854,1854,30.72,1.91,-9.74,0
1855,1855,30.73,-7.1,22.87,0
1856,1856,30.75,-7.03,46.97,0
1857,1857,30.76,1.76,6.34,0
1858,1858,30.77,8.85,-64.18,0
1859,1859,30.78,1.2,-94.89,0
1860,1860,30.8,-15.78,-51.41,0
1861,1861,30.81,-11.33,5.96,0
1862,1862,30.82,6.12,23.56,0
1863,1863,30.84,2.22,21.92,0
1864,1864,30.85,-1.95,11.33,0
1865,1865,30.86,15.64,0.48,0
1866,1866,30.88,18.42,-2.98,0
1867,1867,30.89,-6.77,-12.51,0
1868,1868,30.9,-20.42,-5.7,0
1869,1869,30.92,-9.3,36.6,0
1870,1870,30.93,5.95,73.85,0
1871,1871,30.94,10.42,66.61,0
1872,1872,30.96,0.49,33.04,0
1873,1873,30.97,-9.65,12.22,0
1874,1874,30.99,-4.76,-0.73,0
1875,1875,31.0,4.51,-8.4,0
1876,1876,31.01,9.24,19.42,0
1877,1877,31.03,16.18,36.73,0
1878,1878,31.04,17.07,-5.77,0
1879,1879,31.05,4.25,-15.99,0
1880,1880,31.07,0.68,44.57,0
1881,1881,31.08,19.48,60.35,0
1882,1882,31.09,27.54,7.76,0
1883,1883,31.11,6.77,-18.8,0
1884,1884,31.12,-0.99,-9.72,0
1885,1885,31.13,17.23,-20.79,0
1886,1886,31.14,14.4,-38.91,0
1887,1887,31.16,-12.25,-13.32,0
1888,1888,31.17,-21.0,48.33,0
1889,1889,31.18,-5.97,82.62,0
1890,1890,31.2,12.51,55.03,0
1891,1891,31.21,21.03,12.45,0
1892,1892,31.22,16.47,21.61,0
1893,1893,31.24,6.99,69.77,0
1894,1894,31.25,3.2,65.23,0
1895,1895,31.26,3.39,-5.21,0
1896,1896,31.28,-1.9,-25.12,0
1897,1897,31.29,-9.25,29.6,0
1898,1898,31.3,-3.35,38.78,0
1899,1899,31.32,9.31,-17.67,0
1900,1900,31.33,4.6,-24.02,0
1901,1901,31.34,-11.82,38.22,0
1902,1902,31.36,-14.47,71.35,0
1903,1903,31.37,-4.63,42.97,0
1904,1904,31.38,-2.06,-6.21,0
1905,1905,31.4,-3.18,-20.18,0
1906,1906,31.41,7.29,15.62,0
1907,1907,31.42,12.37,26.51,0
1908,1908,31.44,-3.35,11.37,0
1909,1909,31.45,-14.31,53.93,0
1910,1910,31.46,-3.99,94.14,0
1911,1911,31.48,4.76,41.53,0
1912,1912,31.49,-3.89,-19.8,0
1913,1913,31.5,-10.42,-17.12,0
1914,1914,31.52,-3.08,-8.74,0
1915,1915,31.53,-0.48,-29.29,0
1916,1916,31.54,-9.66,-41.28,0
1917,1917,31.56,-16.88,-12.65,0
1918,1918,31.57,-9.54,46.35,0
1919,1919,31.58,16.63,84.89,0
1920,1920,31.6,37.84,67.39,0
1921,1921,31.61,27.05,28.93,0
1922,1922,31.63,2.02,10.69,0
1923,1923,31.64,-8.25,-3.95,0
1924,1924,31.65,-8.32,-10.19,0
1925,1925,31.67,-10.06,21.41,0
1926,1926,31.68,-7.01,43.46,0
1927,1927,31.69,3.52,8.42,0
1928,1928,31.71,9.1,-30.44,0
1929,1929,31.72,4.18,-19.27,0
1930,1930,31.73,-2.35,17.53,0
1931,1931,31.75,-2.82,28.92,0
1932,1932,31.76,-5.13,5.66,0
1933,1933,31.77,-11.29,-10.33,0
1934,1934,31.78,-10.68,10.71,0
1935,1935,31.8,-6.2,52.22,0
1936,1936,31.81,-3.37,67.08,0
1937,1937,31.82,-0.37,21.62,0
1938,1938,31.84,2.47,-41.27,0
1939,1939,31.85,6.53,-44.94,0
1940,1940,31.86,12.84,2.18,0
1941,1941,31.88,14.11,15.26,0
1942,1942,31.89,7.51,-20.66,0
1943,1943,31.9,7.25,-31.41,0
1944,1944,31.92,16.77,-10.93,0
1945,1945,31.93,13.41,-9.83,0
1946,1946,31.94,-6.75,-13.7,0
1947,1947,31.96,-14.53,-1.89,0
1948,1948,31.97,-1.83,10.72,0
1949,1949,31.98,6.37,20.24,0
1950,1950,32.0,2.61,20.15,0
1951,1951,32.01,-4.23,16.61,0
1952,1952,32.03,-13.28,32.54,0
1953,1953,32.04,-15.66,38.38,0
1954,1954,32.05,-3.56,-7.73,0
1955,1955,32.06,5.35,-56.96,0
1956,1956,32.08,-5.13,-50.29,0
1957,1957,32.09,-19.64,-26.52,0
1958,1958,32.11,-15.72,-42.81,0
1959,1959,32.12,-3.21,-74.24,0
1960,1960,32.13,-6.08,-68.17,0
1961,1961,32.15,-15.51,-29.17,0
1962,1962,32.16,-10.56,9.09,0
1963,1963,32.17,-1.58,20.48,0
1964,1964,32.19,0.28,7.76,0
1965,1965,32.2,9.74,9.26,0
1966,1966,32.21,21.29,25.54,0
1967,1967,32.22,13.02,13.1,0
1968,1968,32.24,-0.14,-26.21,0
1969,1969,32.25,4.16,-38.8,0
1970,1970,32.27,12.04,-11.21,0
1971,1971,32.28,7.22,11.33,0
1972,1972,32.29,1.75,8.37,0
1973,1973,32.31,9.42,5.68,0
1974,1974,32.32,15.18,22.72,0
1975,1975,32.33,2.51,50.2,0
1976,1976,32.35,-9.14,56.9,0
1977,1977,32.36,-4.8,9.99,0
1978,1978,32.37,-5.36,-80.13,0
1979,1979,32.39,-12.27,-171.88,0
1980,1980,32.4,-7.6,-248.38,0
1981,1981,32.41,-5.31,-300.05,0
1982,1982,32.43,-20.93,-303.64,0
1983,1983,32.44,-37.91,-257.99,0
1984,1984,32.45,-40.39,-190.04,0
1985,1985,32.47,-34.48,-121.72,0
1986,1986,32.48,-28.65,-56.32,0
1987,1987,32.49,-21.37,4.9,0
1988,1988,32.51,-11.73,48.73,0
1989,1989,32.52,-0.47,69.82,0
1990,1990,32.53,8.83,83.99,0
1991,1991,32.54,8.48,101.42,0
1992,1992,32.56,4.19,112.7,0
1993,1993,32.57,7.36,113.82,0
1994,1994,32.59,12.49,111.86,0
1995,1995,32.6,12.23,111.16,0
1996,1996,32.61,12.1,114.2,0
1997,1997,32.63,11.8,114.59,0
1998,1998,32.64,7.46,99.75,0
1999,1999,32.65,9.27,81.34,0
2000,2000,32.67,19.57,82.07,0
2001,2001,32.68,19.65,92.94,0
2002,2002,32.69,5.97,87.72,0
2003,2003,32.71,-4.62,68.49,0
2004,2004,32.72,-8.96,59.9,0
2005,2005,32.73,-11.53,64.66,0
2006,2006,32.75,-7.82,64.5,0
2007,2007,32.76,2.17,55.41,0
2008,2008,32.77,8.45,45.58,0
2009,2009,32.79,5.83,42.39,0
2010,2010,32.8,2.03,46.88,0
2011,2011,32.81,6.09,46.08,0
2012,2012,32.83,13.27,33.28,0
2013,2013,32.84,10.17,22.66,0
2014,2014,32.85,-1.22,22.37,0
2015,2015,32.87,0.3,22.64,0
2016,2016,32.88,15.21,17.62,0
2017,2017,32.89,13.76,12.32,0
2018,2018,32.9,-3.8,11.31,0
2019,2019,32.92,-5.96,12.42,0
2020,2020,32.93,5.14,10.59,0
2021,2021,32.95,6.89,8.24,0
2022,2022,32.96,2.88,11.33,0
2023,2023,32.97,2.78,11.53,0
2024,2024,32.99,0.92,0.09,0
2025,2025,33.0,-5.38,-11.32,0
2026,2026,33.01,-9.01,-14.2,0
2027,2027,33.03,-4.2,-10.9,0
2028,2028,33.04,5.16,-4.96,0
2029,2029,33.05,6.6,-7.53,0
2030,2030,33.06,-1.61,-18.66,0
2031,2031,33.08,-2.92,-21.73,0
2032,2032,33.09,10.77,-16.3,0
2033,2033,33.11,20.85,-17.34,0
2034,2034,33.12,12.78,-25.39,0
2035,2035,33.13,-0.04,-28.25,0
2036,2036,33.15,-2.4,-25.05,0
2037,2037,33.16,2.26,-25.9,0
2038,2038,33.17,4.14,-31.2,0
2039,2039,33.19,1.55,-30.82,0
2040,2040,33.2,2.1,-27.83,0
2041,2041,33.21,8.66,-31.65,0
2042,2042,33.22,11.51,-33.07,0
2043,2043,33.24,7.53,-29.75,0
2044,2044,33.25,4.97,-31.34,0
2045,2045,33.27,2.01,-25.83,0
2046,2046,33.28,-6.99,-15.32,0
2047,2047,33.29,-12.1,-27.46,0
2048,2048,33.31,-6.1,-46.45,0
2049,2049,33.32,0.76,-38.31,0
2050,2050,33.33,2.4,-21.84,0
2051,2051,33.35,1.12,-24.74,0
2052,2052,33.36,-5.63,-29.99,0
2053,2053,33.37,-10.72,-20.25,0
2054,2054,33.38,-2.04,-13.67,0
2055,2055,33.4,9.47,-23.3,0
2056,2056,33.41,9.11,-31.45,0
2057,2057,33.43,3.87,-24.65,0
2058,2058,33.44,-0.25,-16.14,0
2059,2059,33.45,-6.05,-22.21,0
2060,2060,33.47,-9.92,-31.56,0
2061,2061,33.48,-5.96,-24.64,0
2062,2062,33.49,4.2,-11.78,0
2063,2063,33.51,9.66,-13.0,0
2064,2064,33.52,2.79,-21.51,0
2065,2065,33.53,-4.41,-18.49,0
2066,2066,33.54,-0.88,-6.91,0
2067,2067,33.56,2.23,-6.7,0
2068,2068,33.57,-3.98,-15.02,0
2069,2069,33.59,-6.74,-10.74,0
2070,2070,33.6,-2.16,2.67,0
2071,2071,33.61,-7.15,8.61,0
2072,2072,33.63,-19.94,8.94,0
2073,2073,33.64,-14.99,6.59,0
2074,2074,33.65,7.45,-5.45,0
2075,2075,33.67,16.45,-17.28,0
2076,2076,33.68,0.76,-14.72,0
2077,2077,33.69,-15.85,-8.01,0
2078,2078,33.71,-14.73,-7.11,0
2079,2079,33.72,-9.19,-8.73,0
2080,2080,33.73,-12.4,-13.57,0
2081,2081,33.75,-12.14,-19.2,0
2082,2082,33.76,-3.37,-15.44,0
2083,2083,33.77,2.27,-3.19,0
2084,2084,33.79,2.29,4.26,0
2085,2085,33.8,0.58,4.03,0
2086,2086,33.81,-1.07,4.58,0
2087,2087,33.83,-0.67,3.86,0
2088,2088,33.84,-0.97,-2.05,0
2089,2089,33.85,-2.79,-5.86,0
2090,2090,33.87,-2.55,-4.2,0
2091,2091,33.88,-2.37,-1.84,0
2092,2092,33.89,-5.73,0.09,0
2093,2093,33.9,-7.5,3.0,0
2094,2094,33.92,-3.46,5.81,0
2095,2095,33.93,2.59,9.22,0
2096,2096,33.95,6.67,13.1,0
2097,2097,33.96,4.08,10.2,0
2098,2098,33.97,-5.75,0.74,0
2099,2099,33.99,-11.02,-2.5,0
2100,2100,34.0,-4.85,4.58,0
2101,2101,34.01,2.35,10.89,0
2102,2102,34.03,6.35,12.01,0
2103,2103,34.04,13.73,15.77,0
2104,2104,34.05,15.1,21.83,0
2105,2105,34.06,-0.97,21.14,0
2106,2106,34.08,-16.26,10.9,0
2107,2107,34.09,-7.5,-0.85,0
2108,2108,34.11,15.26,-4.52,0
2109,2109,34.12,20.89,-0.41,0
2110,2110,34.13,-0.19,6.69,0
2111,2111,34.15,-20.03,12.96,0
2112,2112,34.16,-13.6,13.38,0
2113,2113,34.17,3.15,7.38,0
2114,2114,34.19,2.61,1.18,0
2115,2115,34.2,-7.71,-12.62,0
2116,2116,34.21,2.81,-51.65,0
2117,2117,34.23,25.65,-98.98,0
2118,2118,34.24,19.38,-114.64,0
2119,2119,34.25,-1.37,-107.26,0
2120,2120,34.27,9.81,-118.4,0
2121,2121,34.28,27.19,-140.44,0
2122,2122,34.29,10.27,-139.43,0
2123,2123,34.31,-10.05,-127.17,0
2124,2124,34.32,-2.77,-120.55,0
2125,2125,34.33,12.67,-96.9,0
2126,2126,34.35,13.62,-51.06,0
2127,2127,34.36,0.23,-12.75,0
2128,2128,34.37,-9.75,10.78,0
2129,2129,34.38,-3.0,37.82,0
2130,2130,34.4,12.74,64.65,0
2131,2131,34.41,21.6,78.46,0
2132,2132,34.43,13.21,95.59,0
2133,2133,34.44,-4.38,126.53,0
2134,2134,34.45,-9.21,144.93,0
2135,2135,34.47,-6.69,139.51,0
2136,2136,34.48,-17.1,141.79,0
2137,2137,34.49,-22.11,167.04,0
2138,2138,34.51,-5.05,188.98,0
2139,2139,34.52,3.25,187.85,0
2140,2140,34.53,-11.12,172.26,0
2141,2141,34.54,-19.09,156.56,0
2142,2142,34.56,-6.31,145.21,0
2143,2143,34.57,9.49,135.34,0
2144,2144,34.59,9.2,124.77,0
2145,2145,34.6,-7.29,111.3,0
2146,2146,34.61,-19.26,90.91,0
2147,2147,34.63,-11.8,72.07,0
2148,2148,34.64,-4.33,69.94,0
2149,2149,34.65,-14.42,75.91,0
2150,2150,34.67,-19.33,68.18,0
2151,2151,34.68,-1.03,47.61,0
2152,2152,34.69,17.8,31.32,0
2153,2153,34.71,14.78,23.71,0
2154,2154,34.72,-1.83,15.47,0
2155,2155,34.73,-12.78,7.29,0
2156,2156,34.75,-9.8,8.84,0
2157,2157,34.76,-1.27,14.7,0
2158,2158,34.77,0.78,7.52,0
2159,2159,34.79,-4.8,-11.55,0
2160,2160,34.8,-10.73,-22.79,0
2161,2161,34.81,-8.17,-24.47,0
2162,2162,34.83,3.97,-28.63,0
2163,2163,34.84,10.02,-28.2,0
2164,2164,34.85,0.71,-19.17,0
2165,2165,34.87,-3.48,-20.03,0
2166,2166,34.88,6.72,-35.38,0
2167,2167,34.89,7.88,-48.56,0
2168,2168,34.91,-5.51,-50.13,0
2169,2169,34.92,-8.36,-44.68,0
2170,2170,34.93,5.15,-42.96,0
2171,2171,34.95,12.29,-52.4,0
2172,2172,34.96,3.69,-63.15,0
2173,2173,34.97,-4.65,-60.38,0
2174,2174,34.99,-1.78,-52.0,0
2175,2175,35.0,5.49,-51.94,0
2176,2176,35.01,9.1,-53.15,0
2177,2177,35.03,5.9,-46.68,0
2178,2178,35.04,-2.29,-41.78,0
2179,2179,35.05,-6.15,-47.68,0
2180,2180,35.06,-0.95,-56.79,0
2181,2181,35.08,8.29,-58.34,0
2182,2182,35.09,14.13,-54.72,0
2183,2183,35.11,12.64,-51.49,0
2184,2184,35.12,8.3,-49.87,0
2185,2185,35.13,7.02,-52.55,0
2186,2186,35.15,7.86,-56.5,0
2187,2187,35.16,11.87,-54.98,0
2188,2188,35.17,21.4,-48.74,0
2189,2189,35.19,25.35,-40.59,0
2190,2190,35.2,8.95,-35.72,0
2191,2191,35.21,-13.5,-38.06,0
2192,2192,35.22,-12.36,-41.66,0
2193,2193,35.24,5.52,-46.99,0
2194,2194,35.25,8.53,-53.74,0
2195,2195,35.27,0.86,-46.9,0
2196,2196,35.28,1.34,-32.34,0
2197,2197,35.29,-0.89,-31.18,0
2198,2198,35.31,-7.8,-33.25,0
2199,2199,35.32,-6.35,-23.86,0
2200,2200,35.33,-7.94,-21.04,0
2201,2201,35.35,-15.25,-34.73,0
2202,2202,35.36,-9.97,-40.34,0
2203,2203,35.37,1.23,-24.17,0
2204,2204,35.38,2.12,-9.91,0
2205,2205,35.4,0.01,-14.77,0
2206,2206,35.41,2.12,-22.0,0
2207,2207,35.43,0.57,-16.07,0
2208,2208,35.44,-4.03,-6.51,0
2209,2209,35.45,-0.54,-8.23,0
2210,2210,35.47,5.93,-16.29,0
2211,2211,35.48,1.91,-11.28,0
2212,2212,35.49,-5.89,1.27,0
2213,2213,35.51,-3.75,-3.84,0
2214,2214,35.52,-0.9,-19.13,0
2215,2215,35.53,-9.56,-19.02,0
2216,2216,35.55,-15.14,-8.32,0
2217,2217,35.56,-7.1,-1.94,0
2218,2218,35.57,0.16,3.69,0
2219,2219,35.59,4.14,8.79,0
2220,2220,35.6,9.65,-0.15,0
2221,2221,35.61,7.32,-16.37,0
2222,2222,35.63,2.95,-12.88,0
2223,2223,35.64,11.58,10.66,0
2224,2224,35.65,19.75,28.83,0
2225,2225,35.67,13.69,25.68,0
2226,2226,35.68,6.91,8.54,0
2227,2227,35.69,7.8,-2.99,0
2228,2228,35.71,8.56,-3.89,0
2229,2229,35.72,3.4,-0.67,0
2230,2230,35.73,-6.19,6.65,0
2231,2231,35.75,-9.58,14.44,0
2232,2232,35.76,-2.82,14.82,0
2233,2233,35.77,0.87,12.87,0
2234,2234,35.79,-2.15,16.38,0
2235,2235,35.8,-3.2,19.05,0
2236,2236,35.81,-5.46,12.65,0
2237,2237,35.83,-14.89,4.82,0
2238,2238,35.84,-20.7,7.78,0
2239,2239,35.85,-7.85,17.79,0
2240,2240,35.87,10.55,26.46,0
2241,2241,35.88,3.97,32.54,0
2242,2242,35.89,-18.95,29.5,0
2243,2243,35.9,-21.2,18.79,0
2244,2244,35.92,-1.56,16.43,0
2245,2245,35.93,14.76,17.4,0
2246,2246,35.95,15.71,8.25,0
2247,2247,35.96,2.45,6.36,0
2248,2248,35.97,-9.44,19.96,0
2249,2249,35.99,-4.11,23.44,0
2250,2250,36.0,5.07,13.54,0
2251,2251,36.01,-3.14,13.22,0
2252,2252,36.03,-16.71,23.2,0
2253,2253,36.04,-17.62,29.3,0
2254,2254,36.05,-13.72,30.61,0
2255,2255,36.06,-9.98,29.35,0
2256,2256,36.08,-2.71,24.58,0
2257,2257,36.09,1.03,18.94,0
2258,2258,36.11,2.46,15.91,0
2259,2259,36.12,6.78,20.51,0
2260,2260,36.13,3.18,31.0,0
2261,2261,36.15,-1.57,31.67,0
2262,2262,36.16,11.68,18.67,0
2263,2263,36.17,24.56,9.23,0
2264,2264,36.19,13.19,11.74,0
2265,2265,36.2,-3.55,15.95,0
2266,2266,36.21,0.05,15.3,0
2267,2267,36.23,14.17,13.71,0
2268,2268,36.24,14.86,13.93,0
2269,2269,36.25,4.19,15.43,0
2270,2270,36.27,-0.45,15.67,0
2271,2271,36.28,-2.87,11.19,0
2272,2272,36.29,-15.22,6.88,0
2273,2273,36.31,-24.66,15.36,0
2274,2274,36.32,-17.77,50.92,0
2275,2275,36.33,-9.75,123.71,0
2276,2276,36.35,-5.99,216.42,0
2277,2277,36.36,13.85,287.88,0
2278,2278,36.37,40.69,313.84,0
2279,2279,36.38,40.54,293.52,0
2280,2280,36.4,21.73,230.49,0
2281,2281,36.41,13.14,143.55,0
2282,2282,36.43,0.18,68.85,0
2283,2283,36.44,-40.62,16.16,0
2284,2284,36.45,-84.96,-42.1,0
2285,2285,36.47,-96.86,-111.54,0
2286,2286,36.48,-79.47,-163.11,0
2287,2287,36.49,-54.7,-189.42,0
2288,2288,36.51,-31.09,-209.8,0
2289,2289,36.52,-11.53,-225.26,0
2290,2290,36.53,3.15,-217.1,0
2291,2291,36.54,17.08,-188.93,0
2292,2292,36.56,26.93,-166.24,0
2293,2293,36.57,25.56,-159.17,0
2294,2294,36.59,20.19,-155.04,0
2295,2295,36.6,20.69,-139.83,0
2296,2296,36.61,20.59,-115.37,0
2297,2297,36.63,13.13,-94.18,0
2298,2298,36.64,6.04,-80.29,0
2299,2299,36.65,11.09,-71.37,0
2300,2300,36.67,35.5,-72.56,0
2301,2301,36.68,61.04,-80.76,0
2302,2302,36.69,50.94,-80.99,0
2303,2303,36.71,14.34,-72.77,0
2304,2304,36.72,-1.95,-65.85,0
2305,2305,36.73,6.52,-60.41,0
2306,2306,36.75,11.87,-50.38,0
2307,2307,36.76,7.51,-35.53,0
2308,2308,36.77,-0.11,-26.26,0
2309,2309,36.79,-3.87,-25.61,0
2310,2310,36.8,2.62,-20.09,0
2311,2311,36.81,12.66,-10.05,0
2312,2312,36.83,15.96,-10.11,0
2313,2313,36.84,12.97,-15.15,0
2314,2314,36.85,7.46,-7.13,0
2315,2315,36.87,3.04,8.84,0
2316,2316,36.88,-0.78,13.74,0
2317,2317,36.89,-3.57,11.63,0
2318,2318,36.9,1.19,14.81,0
2319,2319,36.92,5.25,20.36,0
2320,2320,36.93,-3.05,25.65,0
2321,2321,36.95,-7.9,31.57,0
2322,2322,36.96,-0.27,31.39,0
2323,2323,36.97,0.5,26.71,0
2324,2324,36.99,-5.48,31.38,0
2325,2325,37.0,1.61,40.01,0
2326,2326,37.01,15.17,38.22,0
2327,2327,37.03,15.29,33.94,0
2328,2328,37.04,3.88,35.17,0
2329,2329,37.05,-2.88,35.62,0
2330,2330,37.06,-4.15,39.01,0
2331,2331,37.08,-8.96,47.05,0
2332,2332,37.09,-9.54,44.39,0
2333,2333,37.11,-0.1,35.39,0
2334,2334,37.12,5.09,42.22,0
2335,2335,37.13,-1.42,55.62,0
2336,2336,37.15,-10.1,53.2,0
2337,2337,37.16,-13.09,44.1,0
2338,2338,37.17,-8.09,42.33,0
2339,2339,37.19,1.8,42.22,0
2340,2340,37.2,2.57,40.77,0
2341,2341,37.21,-10.47,40.5,0
2342,2342,37.22,-20.59,39.52,0
2343,2343,37.24,-14.24,40.56,0
2344,2344,37.25,1.5,43.75,0
2345,2345,37.27,8.14,40.67,0
2346,2346,37.28,1.99,37.46,0
2347,2347,37.29,-1.22,45.03,0
2348,2348,37.31,5.57,50.23,0
2349,2349,37.32,8.24,38.65,0
2350,2350,37.33,-1.24,23.07,0
2351,2351,37.35,-9.85,18.94,0
2352,2352,37.36,-9.38,21.14,0
2353,2353,37.37,-4.83,21.49,0
2354,2354,37.38,2.22,21.45,0
2355,2355,37.4,7.49,22.57,0
2356,2356,37.41,4.58,23.98,0
2357,2357,37.43,-4.34,25.34,0
2358,2358,37.44,-12.04,22.21,0
2359,2359,37.45,-11.54,11.82,0
2360,2360,37.47,-3.54,4.22,0
2361,2361,37.48,3.06,7.95,0
2362,2362,37.49,3.39,16.12,0
2363,2363,37.51,-0.04,19.16,0
2364,2364,37.52,-5.15,18.07,0
2365,2365,37.53,-8.09,15.3,0
2366,2366,37.54,-4.55,7.59,0
2367,2367,37.56,0.01,0.81,0
2368,2368,37.57,-0.1,0.25,0
2369,2369,37.59,-1.59,1.17,0
2370,2370,37.6,-5.89,4.62,0
2371,2371,37.61,-14.78,7.34,0
2372,2372,37.63,-16.37,-0.42,0
2373,2373,37.64,-2.78,-9.91,0
2374,2374,37.65,13.55,-8.34,0
2375,2375,37.67,18.45,-0.96,0
2376,2376,37.68,11.6,3.01,0
2377,2377,37.69,1.72,0.79,0
2378,2378,37.71,-3.01,-4.33,0
2379,2379,37.72,-2.15,-7.29,0
2380,2380,37.73,-0.95,-8.02,0
2381,2381,37.75,-2.71,-6.84,0
2382,2382,37.76,-7.42,-1.77,0
2383,2383,37.77,-7.28,3.48,0
2384,2384,37.79,3.37,-1.37,0
2385,2385,37.8,10.37,-18.1,0
2386,2386,37.81,5.71,-28.22,0
2387,2387,37.83,3.89,-18.08,0
2388,2388,37.84,6.25,-3.68,0
2389,2389,37.85,1.02,-4.03,0
2390,2390,37.87,-4.01,-13.56,0
2391,2391,37.88,3.21,-18.61,0
2392,2392,37.89,14.07,-18.5,0
2393,2393,37.9,11.4,-19.12,0
2394,2394,37.92,-6.06,-16.74,0
2395,2395,37.93,-19.29,-7.44,0
2396,2396,37.95,-15.48,-1.6,0
2397,2397,37.96,-4.23,-4.72,0
2398,2398,37.97,-0.38,-11.67,0
2399,2399,37.99,-2.47,-23.6,0
2400,2400,38.0,-0.76,-31.88,0
2401,2401,38.01,1.24,-23.67,0
2402,2402,38.03,-3.26,-14.91,0
2403,2403,38.04,-6.75,-18.02,0
2404,2404,38.05,-3.99,-15.69,0
2405,2405,38.06,-2.49,-7.47,0
2406,2406,38.08,-6.73,-14.17,0
2407,2407,38.09,-9.01,-32.77,0
2408,2408,38.11,-1.7,-36.15,0
2409,2409,38.12,7.82,-15.67,0
2410,2410,38.13,9.6,-10.89,0
2411,2411,38.15,3.99,-51.08,0
2412,2412,38.16,-2.2,-67.22,0
2413,2413,38.17,-1.66,14.24,0
2414,2414,38.19,3.8,117.65,0
2415,2415,38.2,13.99,142.5,0
2416,2416,38.21,33.41,90.83,0
2417,2417,38.22,40.7,35.03,0
2418,2418,38.24,21.73,93.38,0
2419,2419,38.25,3.55,193.12,0
2420,2420,38.27,-9.88,134.09,0
2421,2421,38.28,-31.01,19.2,0
2422,2422,38.29,-31.79,26.04,0
2423,2423,38.31,-5.39,99.51,0
2424,2424,38.32,5.46,172.17,0
2425,2425,38.33,-15.6,158.47,0
2426,2426,38.35,-36.26,6.46,0
2427,2427,38.36,-22.42,-58.32,0
2428,2428,38.37,16.61,48.16,0
2429,2429,38.38,34.9,36.46,0
2430,2430,38.4,15.67,-123.89,0
2431,2431,38.41,-8.12,-158.48,0
2432,2432,38.43,-10.74,-84.67,0
2433,2433,38.44,-1.34,-97.88,0
2434,2434,38.45,5.39,-146.37,0
2435,2435,38.47,4.96,-133.2,0
2436,2436,38.48,-2.73,-141.73,0
2437,2437,38.49,-11.41,-172.82,0
2438,2438,38.51,-13.65,-122.02,0
2439,2439,38.52,-10.88,-52.7,0
2440,2440,38.53,-3.65,-87.91,0
2441,2441,38.54,9.68,-175.17,0
2442,2442,38.56,18.73,-190.22,0
2443,2443,38.57,19.7,-144.58,0
2444,2444,38.59,17.19,-112.87,0
2445,2445,38.6,4.42,-85.71,0
2446,2446,38.61,-11.34,-77.55,0
2447,2447,38.63,-8.78,-94.94,0
2448,2448,38.64,6.02,-50.94,0
2449,2449,38.65,5.61,10.89,0
2450,2450,38.67,-11.42,-7.79,0
2451,2451,38.68,-13.6,-39.89,0
2452,2452,38.69,0.94,-29.68,0
2453,2453,38.71,2.5,-12.54,0
2454,2454,38.72,-10.34,-15.0,0
2455,2455,38.73,-24.2,-29.14,0
2456,2456,38.75,-29.13,-14.17,0
2457,2457,38.76,-13.45,10.28,0
2458,2458,38.77,5.15,-18.27,0
2459,2459,38.79,3.92,-54.0,0
2460,2460,38.8,5.03,-34.45,0
2461,2461,38.81,19.48,-10.09,0
2462,2462,38.83,17.69,-24.5,0
2463,2463,38.84,-0.13,-40.73,0
2464,2464,38.85,-7.31,-15.26,0
2465,2465,38.87,-2.25,43.47,0
2466,2466,38.88,6.02,78.84,0
2467,2467,38.89,12.38,64.91,0
2468,2468,38.9,14.36,14.93,0
2469,2469,38.92,17.57,-40.17,0
2470,2470,38.93,24.0,-39.92,0
2471,2471,38.95,23.25,1.18,0
2472,2472,38.96,4.79,1.54,0
2473,2473,38.97,-17.11,-17.08,0
2474,2474,38.99,-11.18,22.18,0
2475,2475,39.0,11.58,75.89,0
2476,2476,39.01,10.97,58.1,0
2477,2477,39.03,-0.98,31.91,0
2478,2478,39.04,2.43,75.19,0
2479,2479,39.05,-1.35,110.44,0
2480,2480,39.06,-15.71,75.08,0
2481,2481,39.08,-12.82,18.36,0
2482,2482,39.09,-2.34,-2.88,0
2483,2483,39.11,2.29,35.02,0
2484,2484,39.12,9.13,77.19,0
2485,2485,39.13,5.11,39.86,0
2486,2486,39.15,-19.14,-17.6,0
2487,2487,39.16,-32.46,23.07,0
2488,2488,39.17,-18.31,97.3,0
2489,2489,39.19,-5.75,82.52,0
2490,2490,39.2,-8.53,37.45,0
2491,2491,39.21,-13.47,45.76,0
2492,2492,39.22,-16.23,62.3,0
2493,2493,39.24,-13.03,55.98,0
2494,2494,39.25,-4.25,56.5,0
2495,2495,39.27,1.39,65.72,0
2496,2496,39.28,7.39,61.38,0
2497,2497,39.29,16.1,37.26,0
2498,2498,39.31,17.57,17.32,0
2499,2499,39.32,12.41,22.23,0
2500,2500,39.33,9.41,28.12,0
2501,2501,39.35,8.74,25.02,0
2502,2502,39.36,13.2,41.91,0
2503,2503,39.37,22.94,62.74,0
2504,2504,39.38,24.02,55.2,0
2505,2505,39.4,20.41,50.57,0
2506,2506,39.41,20.68,69.38,0
2507,2507,39.43,8.41,77.36,0
2508,2508,39.44,-12.28,58.3,0
2509,2509,39.45,-15.69,17.95,0
2510,2510,39.47,-6.93,-32.79,0
2511,2511,39.48,-6.0,-54.2,0
2512,2512,39.49,-12.61,-29.02,0
2513,2513,39.51,-10.69,7.57,0
2514,2514,39.52,2.91,28.3,0
2515,2515,39.53,8.5,28.51,0
2516,2516,39.54,-2.13,15.78,0
2517,2517,39.56,-12.56,14.08,0
2518,2518,39.57,-13.99,21.18,0
2519,2519,39.59,-10.7,3.81,0
2520,2520,39.6,-4.45,-27.82,0
2521,2521,39.61,-0.55,-19.18,0
2522,2522,39.63,-3.83,34.2,0
2523,2523,39.64,-2.75,61.79,0
2524,2524,39.65,7.99,21.27,0
2525,2525,39.67,12.67,-25.17,0
2526,2526,39.68,3.71,-13.93,0
2527,2527,39.69,-1.1,16.03,0
2528,2528,39.71,15.14,19.6,0
2529,2529,39.72,26.36,22.84,0
2530,2530,39.73,-0.31,32.79,0
2531,2531,39.75,-31.17,7.53,0
2532,2532,39.76,-20.62,-45.63,0
2533,2533,39.77,5.65,-60.41,0
2534,2534,39.79,1.54,-31.89,0
2535,2535,39.8,-16.36,-13.32,0
2536,2536,39.81,-3.83,-13.26,0
2537,2537,39.83,22.47,-29.8,0
2538,2538,39.84,20.3,-53.53,0
2539,2539,39.85,4.39,-27.51,0
2540,2540,39.87,1.83,14.02,0
2541,2541,39.88,3.15,-19.44,0
2542,2542,39.89,4.37,-56.41,0
2543,2543,39.9,10.7,-6.54,0
2544,2544,39.92,12.44,49.08,0
2545,2545,39.93,10.05,37.32,0
2546,2546,39.95,9.05,-0.89,0
2547,2547,39.96,4.47,-29.93,0
2548,2548,39.97,1.37,-51.93,0
2549,2549,39.99,1.21,-47.73,0
2550,2550,40.0,-3.54,-6.73,0
2551,2551,40.01,-10.93,5.24,0
2552,2552,40.03,-16.16,-30.14,0
2553,2553,40.04,-13.89,-13.75,0
2554,2554,40.05,-9.04,49.44,0
2555,2555,40.07,-14.1,34.45,0
2556,2556,40.08,-18.61,-59.7,0
2557,2557,40.09,-9.36,-112.3,0
2558,2558,40.11,7.1,-65.71,0
2559,2559,40.12,22.6,12.75,0
2560,2560,40.13,21.74,53.22,0
2561,2561,40.15,1.19,60.23,0
2562,2562,40.16,-9.65,29.64,0
2563,2563,40.17,0.8,-15.47,0
2564,2564,40.19,6.43,-21.08,0
2565,2565,40.2,-7.71,-7.67,0
2566,2566,40.21,-22.82,-7.59,0
2567,2567,40.22,-15.98,-40.03,0
2568,2568,40.24,9.23,-140.44,0
2569,2569,40.25,22.66,-248.96,0
2570,2570,40.27,3.44,-263.97,0
2571,2571,40.28,-25.06,-215.93,0
2572,2572,40.29,-28.24,-191.18,0
2573,2573,40.31,-15.59,-181.35,0
2574,2574,40.32,-17.39,-128.73,0
2575,2575,40.33,-23.45,-41.36,0
2576,2576,40.35,-7.12,27.26,0
2577,2577,40.36,12.9,67.37,0
2578,2578,40.37,7.57,96.06,0
2579,2579,40.38,-5.52,109.86,0
2580,2580,40.4,-0.51,108.3,0
2581,2581,40.41,10.07,105.78,0
2582,2582,40.43,7.4,108.14,0
2583,2583,40.44,-1.58,109.2,0
2584,2584,40.45,-6.59,107.75,0
2585,2585,40.47,-5.16,107.48,0
2586,2586,40.48,4.93,104.13,0
2587,2587,40.49,11.63,90.29,0
2588,2588,40.51,3.74,73.28,0
2589,2589,40.52,-1.95,66.52,0
2590,2590,40.53,7.41,63.74,0
2591,2591,40.54,13.72,56.32,0
2592,2592,40.56,1.01,54.08,0
2593,2593,40.57,-12.92,57.26,0
2594,2594,40.59,-2.2,51.5,0
2595,2595,40.6,19.63,38.52,0
2596,2596,40.61,20.16,30.28,0
2597,2597,40.63,3.95,28.64,0
2598,2598,40.64,-4.59,30.37,0
2599,2599,40.65,-1.16,30.74,0
2600,2600,40.67,8.07,24.32,0
2601,2601,40.68,14.94,15.65,0
2602,2602,40.69,13.13,13.22,0
2603,2603,40.71,10.89,13.92,0
2604,2604,40.72,14.04,12.29,0
2605,2605,40.73,10.54,11.98,0
2606,2606,40.75,-3.15,11.29,0
2607,2607,40.76,-12.7,4.53,0
2608,2608,40.77,-14.21,0.38,0
2609,2609,40.79,-12.38,5.24,0
2610,2610,40.8,-5.92,6.39,0
2611,2611,40.81,-0.21,-3.38,0
2612,2612,40.83,-0.39,-11.08,0
2613,2613,40.84,-2.98,-9.6,0
2614,2614,40.85,-5.51,-8.36,0
2615,2615,40.87,-4.95,-9.04,0
2616,2616,40.88,-4.37,-5.14,0
2617,2617,40.89,-10.77,-4.68,0
2618,2618,40.9,-15.65,-11.83,0
2619,2619,40.92,-7.84,-11.39,0
2620,2620,40.93,2.05,-4.06,0
2621,2621,40.95,3.54,-10.23,0
2622,2622,40.96,5.29,-28.25,0
2623,2623,40.97,10.04,-32.19,0
2624,2624,40.99,9.19,-16.23,0
2625,2625,41.0,5.63,-7.99,0
2626,2626,41.01,7.89,-21.45,0
2627,2627,41.03,10.13,-36.0,0
2628,2628,41.04,3.85,-36.66,0
2629,2629,41.05,-6.0,-32.24,0
2630,2630,41.06,-6.38,-30.39,0
2631,2631,41.08,6.01,-26.5,0
2632,2632,41.09,13.11,-18.52,0
2633,2633,41.11,1.09,-13.95,0
2634,2634,41.12,-14.79,-18.88,0
2635,2635,41.13,-15.4,-26.67,0
2636,2636,41.15,-1.99,-25.38,0
2637,2637,41.16,8.54,-17.31,0
2638,2638,41.17,3.67,-15.24,0
2639,2639,41.19,-4.44,-17.97,0
2640,2640,41.2,0.15,-17.37,0
2641,2641,41.21,4.76,-16.37,0
2642,2642,41.22,-4.91,-17.94,0
2643,2643,41.24,-14.46,-20.09,0
2644,2644,41.25,-9.82,-21.78,0
2645,2645,41.27,0.38,-20.95,0
2646,2646,41.28,5.52,-20.12,0
2647,2647,41.29,5.12,-24.89,0
2648,2648,41.31,0.47,-27.7,0
2649,2649,41.32,-4.97,-19.69,0
2650,2650,41.33,-2.62,-11.91,0
2651,2651,41.35,3.24,-15.47,0
2652,2652,41.36,-2.29,-20.96,0
2653,2653,41.37,-12.79,-18.5,0
2654,2654,41.38,-10.08,-12.69,0
2655,2655,41.4,-1.3,-10.64,0
2656,2656,41.41,-1.92,-12.49,0
2657,2657,41.43,-4.92,-14.86,0
2658,2658,41.44,-1.7,-17.14,0
2659,2659,41.45,3.87,-17.38,0
2660,2660,41.47,9.7,-11.75,0
2661,2661,41.48,12.92,-5.09,0
2662,2662,41.49,7.77,-3.42,0
2663,2663,41.51,0.3,-5.83,0
2664,2664,41.52,0.96,-10.32,0
2665,2665,41.53,4.14,-11.04,0
2666,2666,41.54,2.52,-3.3,0
2667,2667,41.56,1.91,3.25,0
2668,2668,41.57,4.29,-0.74,0
2669,2669,41.59,2.46,-8.71,0
2670,2670,41.6,-3.75,-17.57,0
2671,2671,41.61,-8.55,-26.25,0
2672,2672,41.63,-7.37,-19.8,0
2673,2673,41.64,1.85,1.19,0
2674,2674,41.65,6.78,12.74,0
2675,2675,41.67,0.14,8.68,0
2676,2676,41.68,-0.67,1.73,0
2677,2677,41.69,7.17,-2.29,0
2678,2678,41.71,6.69,0.43,0
2679,2679,41.72,1.19,12.17,0
2680,2680,41.73,2.76,22.27,0
2681,2681,41.75,6.9,16.44,0
2682,2682,41.76,4.81,-2.79,0
2683,2683,41.77,-0.22,-12.78,0
2684,2684,41.79,3.68,-2.37,0
2685,2685,41.8,14.83,7.28,0
2686,2686,41.81,13.24,1.08,0
2687,2687,41.83,-5.36,-3.39,0
2688,2688,41.84,-15.26,4.36,0
2689,2689,41.85,-4.91,8.87,0
2690,2690,41.87,5.78,4.92,0
2691,2691,41.88,6.0,4.04,0
2692,2692,41.89,4.56,3.5,0
2693,2693,41.9,5.46,-3.41,0
2694,2694,41.92,4.01,-2.09,0
2695,2695,41.93,-2.46,14.08,0
2696,2696,41.95,-9.07,23.78,0
2697,2697,41.96,-10.97,18.99,0
2698,2698,41.97,-11.79,15.42,0
2699,2699,41.99,-11.99,13.87,0
2700,2700,42.0,-4.99,6.43,0
2701,2701,42.01,2.97,1.12,0
2702,2702,42.03,-1.51,5.54,0
2703,2703,42.04,-8.51,15.45,0
2704,2704,42.05,-4.37,24.25,0
2705,2705,42.06,0.43,27.64,0
2706,2706,42.08,-0.08,16.7,0
2707,2707,42.09,1.34,-24.36,0
2708,2708,42.11,1.81,-87.51,0
2709,2709,42.12,2.35,-134.4,0
2710,2710,42.13,18.37,-145.2,0
2711,2711,42.15,49.62,-130.87,0
2712,2712,42.16,65.85,-110.12,0
2713,2713,42.17,46.98,-103.39,0
2714,2714,42.19,18.38,-114.13,0
2715,2715,42.2,7.25,-118.92,0
2716,2716,42.21,-0.81,-102.8,0
2717,2717,42.22,-20.36,-74.91,0
2718,2718,42.24,-32.21,-43.85,0
2719,2719,42.25,-24.18,-10.63,0
2720,2720,42.27,-20.57,23.36,0
2721,2721,42.28,-35.66,56.34,0
2722,2722,42.29,-43.6,81.38,0
2723,2723,42.31,-30.13,98.17,0
2724,2724,42.32,-15.08,119.63,0
2725,2725,42.33,-14.71,139.66,0
2726,2726,42.35,-27.55,136.95,0
2727,2727,42.36,-39.01,120.99,0
2728,2728,42.37,-35.52,118.86,0
2729,2729,42.38,-18.63,133.58,0
2730,2730,42.4,-4.7,151.73,0
2731,2731,42.41,-10.44,163.68,0
2732,2732,42.43,-26.83,162.9,0
2733,2733,42.44,-23.48,149.44,0
2734,2734,42.45,3.05,132.8,0
2735,2735,42.47,19.33,121.71,0
2736,2736,42.48,14.05,116.18,0
2737,2737,42.49,7.59,107.43,0
2738,2738,42.51,5.32,96.21,0
2739,2739,42.52,1.38,92.06,0
2740,2740,42.53,-2.43,82.62,0
2741,2741,42.54,-5.56,57.8,0
2742,2742,42.56,-0.78,42.45,0
2743,2743,42.57,13.84,47.91,0
2744,2744,42.59,17.88,47.95,0
2745,2745,42.6,2.61,30.74,0
2746,2746,42.61,-6.66,14.82,0
2747,2747,42.63,4.9,7.5,0
2748,2748,42.64,16.84,-9.87,0
2749,2749,42.65,17.89,-37.4,0
2750,2750,42.66,16.21,-41.48,0
2751,2751,42.68,9.06,-14.21,0
2752,2752,42.69,-0.38,8.92,0
2753,2753,42.71,6.74,5.46,0
2754,2754,42.72,20.04,-11.77,0
2755,2755,42.73,11.12,-25.17,0
2756,2756,42.75,-3.61,-30.43,0
2757,2757,42.76,6.65,-27.05,0
2758,2758,42.77,22.86,-17.06,0
2759,2759,42.79,14.72,-15.85,0
2760,2760,42.8,-2.0,-31.55,0
2761,2761,42.81,0.95,-44.84,0
2762,2762,42.83,9.46,-40.89,0
2763,2763,42.84,0.75,-32.56,0
2764,2764,42.85,-8.46,-37.83,0
2765,2765,42.87,1.05,-52.65,0
2766,2766,42.88,15.55,-58.58,0
2767,2767,42.89,18.81,-49.69,0
2768,2768,42.9,13.67,-38.33,0
2769,2769,42.92,7.52,-39.11,0
2770,2770,42.93,3.98,-49.33,0
2771,2771,42.95,0.54,-50.93,0
2772,2772,42.96,-4.64,-42.48,0
2773,2773,42.97,-5.0,-40.67,0
2774,2774,42.99,1.45,-45.17,0
2775,2775,43.0,6.85,-45.9,0
2776,2776,43.01,7.2,-47.1,0
2777,2777,43.03,4.77,-51.02,0
2778,2778,43.04,1.75,-52.28,0
2779,2779,43.05,0.52,-52.23,0
2780,2780,43.06,0.35,-48.65,0
2781,2781,43.08,-2.88,-37.88,0
2782,2782,43.09,-5.76,-32.2,0
2783,2783,43.11,0.09,-37.03,0
2784,2784,43.12,10.98,-40.55,0
2785,2785,43.13,8.33,-41.38,0
2786,2786,43.15,-8.82,-42.72,0
2787,2787,43.16,-14.86,-38.03,0
2788,2788,43.17,-5.07,-29.65,0
2789,2789,43.19,1.06,-26.36,0
2790,2790,43.2,-0.76,-29.33,0
2791,2791,43.21,-0.64,-37.56,0
2792,2792,43.22,4.07,-45.13,0
2793,2793,43.24,8.94,-43.05,0
2794,2794,43.25,6.96,-35.82,0
2795,2795,43.27,-3.54,-31.11,0
2796,2796,43.28,-8.45,-26.26,0
2797,2797,43.29,-0.52,-23.0,0
2798,2798,43.3,4.58,-24.95,0
2799,2799,43.32,2.01,-23.46,0
2800,2800,43.33,3.46,-14.99,0
2801,2801,43.35,2.98,-13.26,0
2802,2802,43.36,-6.83,-21.12,0
2803,2803,43.37,-12.7,-21.93,0
2804,2804,43.38,-12.22,-12.92,0
2805,2805,43.4,-16.04,-10.62,0
2806,2806,43.41,-18.13,-17.21,0
2807,2807,43.43,-8.99,-17.45,0
2808,2808,43.44,1.38,-7.94,0
2809,2809,43.45,1.69,-0.69,0
2810,2810,43.47,-2.3,-0.04,0
2811,2811,43.48,-0.86,-2.93,0
2812,2812,43.49,0.92,-9.74,0
2813,2813,43.51,-6.04,-15.42,0
2814,2814,43.52,-9.59,-11.01,0
2815,2815,43.53,2.98,0.01,0
2816,2816,43.54,16.66,5.42,0
2817,2817,43.56,13.84,3.02,0
2818,2818,43.57,3.66,1.2,0
2819,2819,43.59,0.92,5.56,0
2820,2820,43.6,3.26,11.82,0
2821,2821,43.61,8.09,11.12,0
2822,2822,43.63,13.5,6.23,0
2823,2823,43.64,8.54,9.42,0
2824,2824,43.65,-1.88,17.01,0
2825,2825,43.67,-2.85,16.65,0
2826,2826,43.68,-1.51,13.65,0
2827,2827,43.69,-6.27,14.74,0
2828,2828,43.71,-7.83,15.09,0
2829,2829,43.72,-2.22,15.22,0
2830,2830,43.73,3.48,16.3,0
2831,2831,43.75,6.31,14.03,0
2832,2832,43.76,4.92,9.66,0
2833,2833,43.77,-3.37,9.25,0
2834,2834,43.79,-10.5,15.75,0
2835,2835,43.8,-10.14,24.89,0
2836,2836,43.81,-10.34,27.63,0
2837,2837,43.83,-10.67,25.62,0
2838,2838,43.84,-1.41,25.62,0
2839,2839,43.85,11.51,22.76,0
2840,2840,43.87,11.76,17.7,0
2841,2841,43.88,-3.86,18.76,0
2842,2842,43.89,-21.78,20.07,0
2843,2843,43.9,-24.67,17.64,0
2844,2844,43.92,-10.99,20.61,0
2845,2845,43.93,3.07,26.38,0
2846,2846,43.94,6.94,24.47,0
2847,2847,43.96,6.68,17.28,0
2848,2848,43.97,6.52,15.39,0
2849,2849,43.99,1.18,19.21,0
2850,2850,44.0,-2.95,18.31,0
2851,2851,44.01,4.38,9.85,0
2852,2852,44.03,9.11,4.98,0
2853,2853,44.04,-0.88,11.06,0
2854,2854,44.05,-7.41,20.09,0
2855,2855,44.06,-1.76,20.15,0
2856,2856,44.08,-0.52,14.49,0
2857,2857,44.09,-5.17,16.29,0
2858,2858,44.11,-3.98,22.47,0
2859,2859,44.12,-0.26,22.96,0
2860,2860,44.13,0.45,24.11,0
2861,2861,44.15,-1.97,25.99,0
2862,2862,44.16,-5.77,17.77,0
2863,2863,44.17,-3.2,11.15,0
2864,2864,44.19,1.68,17.49,0
2865,2865,44.2,-1.01,17.98,0
2866,2866,44.21,-0.39,13.71,0
2867,2867,44.22,9.65,49.23,0
2868,2868,44.24,12.3,140.92,0
2869,2869,44.25,0.91,244.55,0
2870,2870,44.27,-3.54,312.64,0
2871,2871,44.28,7.19,332.04,0
2872,2872,44.29,5.26,310.41,0
2873,2873,44.31,-15.74,251.91,0
2874,2874,44.32,-24.17,161.79,0
2875,2875,44.33,-17.92,70.43,0
2876,2876,44.35,-16.89,0.57,0
2877,2877,44.36,-9.58,-57.41,0
2878,2878,44.37,9.14,-107.44,0
2879,2879,44.38,9.56,-151.09,0
2880,2880,44.4,-10.18,-198.24,0
2881,2881,44.41,-13.61,-234.47,0
2882,2882,44.43,0.53,-240.55,0
2883,2883,44.44,2.42,-229.16,0
2884,2884,44.45,-6.16,-217.15,0
2885,2885,44.47,-4.56,-200.34,0
2886,2886,44.48,4.13,-176.89,0
2887,2887,44.49,3.61,-159.7,0
2888,2888,44.51,-7.78,-154.97,0
2889,2889,44.52,-10.91,-150.83,0
2890,2890,44.53,5.4,-136.0,0
2891,2891,44.54,17.82,-114.38,0
2892,2892,44.56,6.18,-95.91,0
2893,2893,44.57,-5.06,-85.5,0
2894,2894,44.58,9.34,-76.26,0
2895,2895,44.6,26.28,-59.17,0
2896,2896,44.61,19.21,-47.72,0
2897,2897,44.63,4.24,-55.13,0
2898,2898,44.64,1.75,-60.4,0
2899,2899,44.65,4.08,-48.31,0
2900,2900,44.67,2.9,-34.98,0
2901,2901,44.68,6.49,-29.87,0
2902,2902,44.69,15.53,-26.52,0
2903,2903,44.71,14.83,-16.58,0
2904,2904,44.72,5.87,3.44,0
2905,2905,44.73,4.14,15.68,0
2906,2906,44.75,6.4,8.08,0
2907,2907,44.76,5.21,5.67,0
2908,2908,44.77,7.35,20.98,0
2909,2909,44.79,8.48,29.22,0
2910,2910,44.8,-0.7,24.31,0
2911,2911,44.81,-7.34,24.01,0
2912,2912,44.83,-2.7,29.61,0
2913,2913,44.84,3.27,34.9,0
2914,2914,44.85,8.87,39.75,0
2915,2915,44.87,17.49,41.5,0
2916,2916,44.88,20.01,36.44,0
2917,2917,44.89,8.89,28.09,0
2918,2918,44.9,-4.1,25.42,0
2919,2919,44.92,-6.9,32.82,0
2920,2920,44.93,-5.79,40.35,0
2921,2921,44.95,-6.14,38.72,0
2922,2922,44.96,-3.57,39.89,0
2923,2923,44.97,-1.63,48.74,0
2924,2924,44.99,-4.24,46.64,0
2925,2925,45.0,0.98,35.39,0
2926,2926,45.01,15.38,32.93,0
2927,2927,45.03,15.76,36.2,0
2928,2928,45.04,1.47,39.6,0
2929,2929,45.05,-6.64,44.32,0
2930,2930,45.06,-10.89,44.5,0
2931,2931,45.08,-15.15,42.32,0
2932,2932,45.09,-9.25,47.23,0
2933,2933,45.11,-1.95,54.81,0
2934,2934,45.12,-2.6,56.84,0
2935,2935,45.13,-1.78,53.18,0
2936,2936,45.15,-0.79,47.13,0
2937,2937,45.16,-2.52,48.13,0
2938,2938,45.17,0.24,55.26,0
2939,2939,45.19,2.7,48.92,0
2940,2940,45.2,-4.24,31.9,0
2941,2941,45.21,-12.73,28.98,0
2942,2942,45.22,-7.63,36.16,0
2943,2943,45.24,5.11,34.74,0
2944,2944,45.25,5.45,29.21,0
2945,2945,45.26,-4.26,27.15,0
2946,2946,45.28,-6.29,25.6,0
2947,2947,45.29,0.03,25.3,0
2948,2948,45.31,2.22,25.03,0
2949,2949,45.32,-2.35,20.97,0
2950,2950,45.33,-4.33,15.01,0
2951,2951,45.35,-1.91,12.82,0
2952,2952,45.36,-1.86,15.12,0
2953,2953,45.37,-4.01,13.54,0
2954,2954,45.38,-4.45,6.95,0
2955,2955,45.4,-3.62,8.3,0
2956,2956,45.41,-5.63,17.53,0
2957,2957,45.43,-10.44,16.39,0
2958,2958,45.44,-10.52,5.66,0
2959,2959,45.45,-2.92,6.97,0
2960,2960,45.47,3.14,18.88,0
2961,2961,45.48,-3.25,18.14,0
2962,2962,45.49,-13.43,4.52,0
2963,2963,45.51,-8.53,-5.91,0
2964,2964,45.52,3.08,-8.51,0
2965,2965,45.53,1.14,-4.89,0
2966,2966,45.54,-6.18,1.26,0
2967,2967,45.56,-4.13,4.71,0
2968,2968,45.57,1.7,2.2,0
2969,2969,45.59,1.59,-6.35,0
2970,2970,45.6,-5.32,-13.14,0
2971,2971,45.61,-13.54,-10.35,0
2972,2972,45.63,-15.3,-1.56,0
2973,2973,45.64,-6.86,2.46,0
2974,2974,45.65,3.09,-6.34,0
2975,2975,45.67,6.07,-19.89,0
2976,2976,45.68,5.61,-20.98,0
2977,2977,45.69,2.84,-14.88,0
2978,2978,45.71,0.52,-15.01,0
2979,2979,45.72,7.52,-14.1,0
2980,2980,45.73,12.89,-10.2,0
2981,2981,45.75,2.26,-10.78,0
2982,2982,45.76,-10.61,-11.57,0
2983,2983,45.77,-7.32,-11.25,0
2984,2984,45.79,5.95,-13.11,0
2985,2985,45.8,14.67,-13.89,0
2986,2986,45.81,13.67,-14.02,0
2987,2987,45.83,4.32,-13.44,0
2988,2988,45.84,-3.43,-11.14,0
2989,2989,45.85,-3.56,-16.51,0
2990,2990,45.86,-5.94,-26.22,0
2991,2991,45.88,-9.94,-22.84,0
2992,2992,45.89,-4.06,-13.18,0
2993,2993,45.9,5.27,-13.29,0
2994,2994,45.92,5.31,-17.9,0
2995,2995,45.93,-1.88,-24.84,0
2996,2996,45.95,-7.07,-34.66,0
2997,2997,45.96,-2.27,-29.36,0
2998,2998,45.97,10.01,-8.51,0
2999,2999,45.99,16.74,-2.66,0
3000,3000,46.0,7.89,-15.3,0
3001,3001,46.01,-10.61,-23.56,0
3002,3002,46.03,-17.27,-25.21,0
3003,3003,46.04,-2.01,-24.02,0
3004,3004,46.05,13.22,-14.2,0
3005,3005,46.06,4.62,-2.99,0
3006,3006,46.08,-11.04,-4.78,0
3007,3007,46.09,-3.2,-20.7,0
3008,3008,46.11,13.41,-35.78,0
3009,3009,46.12,6.61,-33.27,0
3010,3010,46.13,-10.44,-24.87,0
3011,3011,46.15,-9.22,-15.22,0
3012,3012,46.16,2.23,35.35,0
3013,3013,46.17,5.57,85.31,0
3014,3014,46.19,2.24,44.83,0
3015,3015,46.2,1.31,21.74,0
3016,3016,46.21,15.36,136.44,0
3017,3017,46.22,41.38,204.01,0
3018,3018,46.24,37.78,95.03,0
3019,3019,46.25,0.57,40.07,0
3020,3020,46.27,-6.75,107.88,0
3021,3021,46.28,11.44,63.2,0
3022,3022,46.29,-17.88,-46.84,0
3023,3023,46.31,-58.58,-47.14,0
3024,3024,46.32,-23.05,-34.51,0
3025,3025,46.33,29.58,-40.36,0
3026,3026,46.35,13.42,47.16,0
3027,3027,46.36,-10.95,154.1,0
3028,3028,46.37,8.0,71.94,0
3029,3029,46.38,17.67,-138.65,0
3030,3030,46.4,0.95,-132.97,0
3031,3031,46.41,-6.47,64.76,0
3032,3032,46.43,-5.35,41.19,0
3033,3033,46.44,-10.43,-178.66,0
3034,3034,46.45,-5.41,-225.68,0
3035,3035,46.47,9.82,-107.33,0
3036,3036,46.48,8.49,-34.42,0
3037,3037,46.49,-1.43,-29.57,0
3038,3038,46.5,-0.67,-56.71,0
3039,3039,46.52,-2.56,-90.02,0
3040,3040,46.53,-11.16,-75.15,0
3041,3041,46.54,-12.74,-39.04,0
3042,3042,46.56,-14.02,-41.51,0
3043,3043,46.57,-26.43,-51.86,0
3044,3044,46.59,-36.25,-55.33,0
3045,3045,46.6,-23.55,-71.94,0
3046,3046,46.61,6.86,-84.54,0
3047,3047,46.63,24.32,-82.79,0
3048,3048,46.64,9.21,-66.55,0
3049,3049,46.65,-15.55,-71.9,0
3050,3050,46.67,-10.68,-124.29,0
3051,3051,46.68,16.5,-142.06,0
3052,3052,46.69,24.44,-91.98,0
3053,3053,46.71,16.22,-68.59,0
3054,3054,46.72,16.98,-78.42,0
3055,3055,46.73,16.4,-35.25,0
3056,3056,46.75,13.49,24.19,0
3057,3057,46.76,28.0,15.14,0
3058,3058,46.77,37.08,-22.07,0
3059,3059,46.79,15.37,-13.87,0
3060,3060,46.8,-3.45,43.16,0
3061,3061,46.81,-2.84,98.8,0
3062,3062,46.83,-6.46,82.5,0
3063,3063,46.84,-4.84,6.74,0
3064,3064,46.85,9.93,-14.52,0
3065,3065,46.87,6.39,28.9,0
3066,3066,46.88,-15.84,26.13,0
3067,3067,46.89,-16.42,-31.29,0
3068,3068,46.9,8.67,-51.78,0
3069,3069,46.92,13.42,-28.92,0
3070,3070,46.93,-11.41,-22.99,0
3071,3071,46.95,-16.43,-26.54,0
3072,3072,46.96,8.17,1.59,0
3073,3073,46.97,22.97,42.45,0
3074,3074,46.99,15.87,49.23,0
3075,3075,47.0,-3.29,37.53,0
3076,3076,47.01,-22.82,52.81,0
3077,3077,47.03,-26.47,59.13,0
3078,3078,47.04,-16.7,8.3,0
3079,3079,47.05,-10.02,-36.39,0
3080,3080,47.06,-7.37,7.6,0
3081,3081,47.08,0.89,88.18,0
3082,3082,47.09,5.78,103.62,0
3083,3083,47.11,-5.8,66.16,0
3084,3084,47.12,-11.33,38.45,0
3085,3085,47.13,4.48,28.84,0
3086,3086,47.14,11.71,26.79,0
3087,3087,47.16,-2.43,37.19,0
3088,3088,47.17,-9.98,57.67,0
3089,3089,47.18,1.69,77.96,0
3090,3090,47.2,17.72,86.89,0
3091,3091,47.21,22.82,54.37,0
3092,3092,47.22,6.6,-11.85,0
3093,3093,47.24,-15.25,-21.76,0
3094,3094,47.25,-8.04,45.98,0
3095,3095,47.27,16.59,74.06,0
3096,3096,47.28,25.28,10.54,0
3097,3097,47.29,19.78,-31.13,0
3098,3098,47.31,5.36,18.91,0
3099,3099,47.32,-14.07,60.36,0
3100,3100,47.33,-18.63,14.05,0
3101,3101,47.35,-7.67,-29.12,0
3102,3102,47.36,-5.0,14.38,0
3103,3103,47.37,-14.63,63.7,0
3104,3104,47.38,-18.25,51.46,0
3105,3105,47.4,-10.5,31.85,0
3106,3106,47.41,1.3,36.91,0
3107,3107,47.43,5.62,38.16,0
3108,3108,47.44,-5.95,19.68,0
3109,3109,47.45,-12.91,-4.99,0
3110,3110,47.47,-0.32,-10.36,0
3111,3111,47.48,9.69,16.51,0
3112,3112,47.49,6.41,50.25,0
3113,3113,47.51,-2.77,41.49,0
3114,3114,47.52,-15.49,8.21,0
3115,3115,47.53,-19.91,16.91,0
3116,3116,47.54,-7.88,56.09,0
3117,3117,47.56,8.83,66.43,0
3118,3118,47.57,10.13,29.54,0
3119,3119,47.59,-10.12,-25.85,0
3120,3120,47.6,-23.52,-47.29,0
3121,3121,47.61,-10.87,-14.72,0
3122,3122,47.63,2.88,7.03,0
3123,3123,47.64,4.42,-32.7,0
3124,3124,47.65,3.5,-46.29,0
3125,3125,47.67,-6.03,10.22,0
3126,3126,47.68,-18.47,26.91,0
3127,3127,47.69,-13.15,-4.96,0
3128,3128,47.71,1.72,11.51,0
3129,3129,47.72,14.28,52.19,0
3130,3130,47.73,21.56,47.23,0
3131,3131,47.75,9.01,15.68,0
3132,3132,47.76,-8.79,2.7,0
3133,3133,47.77,-3.12,28.23,0
3134,3134,47.78,4.56,75.84,0
3135,3135,47.8,-1.56,78.17,0
3136,3136,47.81,2.16,19.72,0
3137,3137,47.82,6.4,-7.34,0
3138,3138,47.84,-8.39,45.76,0
3139,3139,47.85,-8.89,82.08,0
3140,3140,47.86,17.89,25.56,0
3141,3141,47.88,21.38,-15.53,0
3142,3142,47.89,-5.78,36.23,0
3143,3143,47.9,-9.03,64.97,0
3144,3144,47.92,15.05,11.8,0
3145,3145,47.93,18.34,-24.19,0
3146,3146,47.95,-6.04,6.53,0
3147,3147,47.96,-19.72,27.42,0
3148,3148,47.97,-5.76,-16.82,0
3149,3149,47.99,7.5,-66.17,0
3150,3150,48.0,0.31,-54.71,0
3151,3151,48.01,-8.25,-21.63,0
3152,3152,48.03,-5.16,-29.99,0
3153,3153,48.04,2.71,-62.67,0
3154,3154,48.05,8.81,-64.23,0
3155,3155,48.06,4.24,-26.14,0
3156,3156,48.08,-7.13,-4.14,0
3157,3157,48.09,-5.65,-29.86,0
3158,3158,48.11,7.18,-51.28,0
3159,3159,48.12,16.22,-35.74,0
3160,3160,48.13,14.18,-23.38,0
3161,3161,48.15,1.11,-24.53,0
3162,3162,48.16,-5.65,-14.87,0
3163,3163,48.17,5.27,-26.58,0
3164,3164,48.19,14.07,-69.36,0
3165,3165,48.2,-0.87,-66.51,0
3166,3166,48.21,-21.93,-7.69,0
3167,3167,48.22,-15.66,21.89,0
3168,3168,48.24,1.57,3.91,0
3169,3169,48.25,-3.51,-8.38,0
3170,3170,48.27,-12.65,-7.9,0
3171,3171,48.28,-3.42,-24.73,0
3172,3172,48.29,6.41,-68.06,0
3173,3173,48.31,3.64,-128.13,0
3174,3174,48.32,-6.92,-180.92,0
3175,3175,48.33,-19.9,-198.4,0
3176,3176,48.35,-23.76,-196.0,0
3177,3177,48.36,-11.27,-218.2,0
3178,3178,48.37,2.79,-239.5,0
3179,3179,48.38,0.79,-192.91,0
3180,3180,48.4,-8.46,-95.2,0
3181,3181,48.41,-4.13,-14.73,0
3182,3182,48.42,11.42,29.72,0
3183,3183,48.44,20.41,57.84,0
3184,3184,48.45,18.15,81.4,0
3185,3185,48.46,13.11,98.66,0
3186,3186,48.48,10.71,107.87,0
3187,3187,48.49,12.36,108.45,0
3188,3188,48.5,15.69,99.55,0
3189,3189,48.52,14.11,90.22,0
3190,3190,48.53,8.08,91.78,0
3191,3191,48.54,0.35,100.21,0
3192,3192,48.56,-9.27,106.46,0
3193,3193,48.57,-11.2,112.27,0
3194,3194,48.59,-1.56,117.09,0
3195,3195,48.6,6.67,106.25,0
3196,3196,48.61,11.51,81.48,0
3197,3197,48.63,16.34,67.81,0
3198,3198,48.64,11.89,66.44,0
3199,3199,48.65,-0.06,57.09,0
3200,3200,48.67,-5.52,40.73,0
3201,3201,48.68,1.66,31.53,0
3202,3202,48.69,12.84,32.71,0
3203,3203,48.71,12.59,39.38,0
3204,3204,48.72,4.33,41.91,0
3205,3205,48.73,1.94,31.19,0
3206,3206,48.75,0.08,14.49,0
3207,3207,48.76,-5.96,10.65,0
3208,3208,48.77,-6.69,19.27,0
3209,3209,48.79,-3.82,21.89,0
3210,3210,48.8,-6.0,15.33,0
3211,3211,48.81,-6.22,9.03,0
3212,3212,48.83,0.82,3.46,0
3213,3213,48.84,3.33,-0.12,0
3214,3214,48.85,-2.49,-0.61,0
3215,3215,48.87,-6.51,-4.58,0
3216,3216,48.88,-6.7,-8.64,0
3217,3217,48.89,-6.47,-3.72,0
3218,3218,48.9,-4.07,1.14,0
3219,3219,48.92,0.0,-4.51,0
3220,3220,48.93,2.58,-13.06,0
3221,3221,48.95,1.67,-18.51,0
3222,3222,48.96,-2.29,-19.38,0
3223,3223,48.97,-3.24,-12.82,0
3224,3224,48.99,1.85,-8.91,0
3225,3225,49.0,6.83,-14.47,0
3226,3226,49.01,8.81,-20.0,0
3227,3227,49.03,8.28,-21.72,0
3228,3228,49.04,4.56,-22.38,0
3229,3229,49.05,0.13,-22.1,0
3230,3230,49.06,-1.88,-22.6,0
3231,3231,49.08,-1.76,-25.9,0
3232,3232,49.09,-5.14,-29.23,0
3233,3233,49.1,-13.54,-26.21,0
3234,3234,49.12,-13.22,-17.01,0
3235,3235,49.13,3.74,-14.33,0
3236,3236,49.14,18.05,-22.13,0
3237,3237,49.16,10.14,-23.6,0
3238,3238,49.17,-7.32,-14.18,0
3239,3239,49.19,-9.12,-7.83,0
3240,3240,49.2,-0.53,-8.5,0
3241,3241,49.21,-2.7,-10.58,0
3242,3242,49.22,-12.36,-11.2,0
3243,3243,49.24,-15.4,-15.6,0
3244,3244,49.25,-8.75,-26.11,0
3245,3245,49.27,-1.98,-29.59,0
3246,3246,49.28,-5.06,-24.07,0
3247,3247,49.29,-10.3,-25.04,0
3248,3248,49.31,-8.13,-33.02,0
3249,3249,49.32,-1.46,-34.43,0
3250,3250,49.33,6.01,-24.57,0
3251,3251,49.35,5.81,-15.59,0
3252,3252,49.36,-5.94,-20.45,0
3253,3253,49.37,-14.31,-26.94,0
3254,3254,49.38,-9.61,-15.47,0
3255,3255,49.4,1.26,1.18,0
3256,3256,49.41,10.43,-1.84,0
3257,3257,49.43,13.36,-15.34,0
3258,3258,49.44,10.05,-17.22,0
3259,3259,49.45,6.02,-10.54,0
3260,3260,49.47,1.72,-8.48,0
3261,3261,49.48,-3.82,-13.87,0
3262,3262,49.49,-5.32,-21.58,0
3263,3263,49.51,-4.19,-23.34,0
3264,3264,49.52,-6.78,-15.01,0
3265,3265,49.53,-8.97,-2.86,0
3266,3266,49.54,-3.57,0.87,0
3267,3267,49.56,3.6,-6.25,0
3268,3268,49.57,2.49,-10.15,0
3269,3269,49.59,-2.03,-4.16,0
3270,3270,49.6,0.87,-2.11,0
3271,3271,49.61,4.56,-7.61,0
3272,3272,49.63,-2.0,-3.27,0
3273,3273,49.64,-12.64,8.16,0
3274,3274,49.65,-14.49,4.37,0
3275,3275,49.67,-5.26,-10.16,0
3276,3276,49.68,3.48,-12.16,0
3277,3277,49.69,2.91,-3.66,0
3278,3278,49.7,-0.05,-1.38,0
3279,3279,49.72,0.18,-0.56,0
3280,3280,49.73,1.3,6.71,0
3281,3281,49.74,2.29,8.26,0
3282,3282,49.76,0.31,0.05,0
3283,3283,49.77,-2.17,-4.77,0
3284,3284,49.78,3.37,-2.44,0
3285,3285,49.8,11.82,2.21,0
3286,3286,49.81,8.43,7.66,0
3287,3287,49.83,-2.33,11.47,0
3288,3288,49.84,-3.14,9.69,0
3289,3289,49.85,3.05,5.61,0
3290,3290,49.87,5.04,6.75,0
3291,3291,49.88,6.78,7.5,0
3292,3292,49.89,8.58,0.37,0
3293,3293,49.9,1.52,-2.69,0
3294,3294,49.92,-7.72,6.15,0
3295,3295,49.93,-3.3,13.93,0
3296,3296,49.95,10.06,10.61,0
3297,3297,49.96,13.12,2.14,0
3298,3298,49.97,4.78,0.89,0
3299,3299,49.99,-2.69,8.11,0
3300,3300,50.0,-8.84,9.8,0
3301,3301,50.01,-13.9,1.65,0
3302,3302,50.03,-8.5,-1.86,0
3303,3303,50.04,3.84,5.01,0
3304,3304,50.05,5.73,11.68,0
3305,3305,50.06,-2.88,14.97,0
3306,3306,50.08,-3.94,19.11,0
3307,3307,50.09,3.94,18.23,0
3308,3308,50.11,4.61,9.27,0
3309,3309,50.12,-4.5,2.04,0
3310,3310,50.13,-8.89,9.28,0
3311,3311,50.15,3.5,20.45,0
3312,3312,50.16,23.62,-19.29,0
3313,3313,50.17,27.15,-121.8,0
3314,3314,50.19,11.28,-196.93,0
3315,3315,50.2,-3.88,-191.47,0
3316,3316,50.21,-8.6,-159.27,0
3317,3317,50.22,-5.53,-144.94,0
3318,3318,50.24,-2.2,-137.75,0
3319,3319,50.25,-6.88,-124.9,0
3320,3320,50.27,-9.0,-107.05,0
3321,3321,50.28,7.47,-77.22,0
3322,3322,50.29,22.01,-27.59,0
3323,3323,50.31,8.47,27.14,0
3324,3324,50.32,-7.01,66.32,0
3325,3325,50.33,3.49,86.68,0
3326,3326,50.34,12.3,92.63,0
3327,3327,50.36,-0.38,95.03,0
3328,3328,50.37,-7.89,106.1,0
3329,3329,50.38,1.16,123.09,0
3330,3330,50.4,6.25,138.69,0
3331,3331,50.41,4.6,152.6,0
3332,3332,50.42,9.25,158.62,0
3333,3333,50.44,13.3,149.89,0
3334,3334,50.45,4.89,141.58,0
3335,3335,50.46,-3.64,146.22,0
3336,3336,50.48,1.53,146.63,0
3337,3337,50.49,6.41,135.48,0
3338,3338,50.51,-9.37,130.6,0
3339,3339,50.52,-27.58,130.79,0
3340,3340,50.53,-13.56,117.93,0
3341,3341,50.54,10.42,100.61,0
3342,3342,50.56,0.09,98.0,0
3343,3343,50.57,-23.82,97.35,0
3344,3344,50.59,-24.88,81.1,0
3345,3345,50.6,-9.79,66.34,0
3346,3346,50.61,4.42,67.35,0
3347,3347,50.63,6.4,62.31,0
3348,3348,50.64,-0.76,36.59,0
3349,3349,50.65,1.96,15.45,0
3350,3350,50.67,8.26,20.55,0
3351,3351,50.68,-2.35,30.73,0
3352,3352,50.69,-12.28,20.86,0
3353,3353,50.71,-2.26,0.06,0
3354,3354,50.72,1.81,-12.66,0
3355,3355,50.73,-11.35,-13.86,0
3356,3356,50.75,-11.81,-11.57,0
3357,3357,50.76,6.68,-13.87,0
3358,3358,50.77,21.83,-19.37,0
3359,3359,50.79,22.64,-20.96,0
3360,3360,50.8,11.58,-18.92,0
3361,3361,50.81,0.36,-22.56,0
3362,3362,50.83,0.17,-34.65,0
3363,3363,50.84,0.12,-40.76,0
3364,3364,50.85,-10.03,-32.56,0
3365,3365,50.87,-11.44,-29.24,0
3366,3366,50.88,1.02,-43.05,0
3367,3367,50.89,2.73,-53.86,0
3368,3368,50.9,-7.12,-49.14,0
3369,3369,50.92,-7.6,-44.42,0
3370,3370,50.93,0.39,-51.53,0
3371,3371,50.95,4.88,-65.37,0
3372,3372,50.96,2.67,-70.31,0
3373,3373,50.97,-4.42,-57.19,0
3374,3374,50.98,-5.91,-45.72,0
3375,3375,51.0,2.35,-53.97,0
3376,3376,51.01,4.28,-62.49,0
3377,3377,51.02,-3.63,-55.57,0
3378,3378,51.04,-4.3,-51.18,0
3379,3379,51.05,4.0,-60.66,0
3380,3380,51.06,9.89,-68.74,0
3381,3381,51.08,9.23,-62.92,0
3382,3382,51.09,2.83,-53.15,0
3383,3383,51.1,-3.29,-53.86,0
3384,3384,51.12,-6.12,-62.33,0
3385,3385,51.13,-8.92,-65.46,0
3386,3386,51.15,-7.74,-57.97,0
3387,3387,51.16,1.48,-46.97,0
3388,3388,51.17,9.6,-42.34,0
3389,3389,51.19,7.33,-46.54,0
3390,3390,51.2,-0.54,-51.57,0
3391,3391,51.21,-6.63,-47.44,0
3392,3392,51.22,-10.78,-37.06,0
3393,3393,51.24,-11.91,-31.91,0
3394,3394,51.25,-6.07,-33.34,0
3395,3395,51.27,5.29,-37.21,0
3396,3396,51.28,12.35,-42.43,0
3397,3397,51.29,7.17,-46.94,0
3398,3398,51.31,2.2,-45.21,0
3399,3399,51.32,11.75,-32.16,0
3400,3400,51.33,20.87,-14.71,0
3401,3401,51.35,14.11,-7.7,0
3402,3402,51.36,5.28,-12.75,0
3403,3403,51.37,5.77,-19.04,0
3404,3404,51.38,6.58,-20.04,0
3405,3405,51.4,-0.11,-15.05,0
3406,3406,51.41,-5.97,-6.33,0
3407,3407,51.43,-2.02,-0.27,0
3408,3408,51.44,0.97,-1.46,0
3409,3409,51.45,-4.91,-4.8,0
3410,3410,51.47,-9.85,-1.91,0
3411,3411,51.48,-12.47,4.07,0
3412,3412,51.49,-13.89,3.93,0
3413,3413,51.51,-6.97,2.33,0
3414,3414,51.52,0.79,5.63,0
3415,3415,51.53,-0.47,8.19,0
3416,3416,51.54,-2.54,8.45,0
3417,3417,51.56,-4.32,10.54,0
3418,3418,51.57,-12.07,10.12,0
3419,3419,51.59,-14.66,2.09,0
3420,3420,51.6,-4.86,-3.66,0
3421,3421,51.61,2.46,3.26,0
3422,3422,51.62,-0.85,15.74,0
3423,3423,51.64,-6.06,20.18,0
3424,3424,51.65,-9.29,13.74,0
3425,3425,51.66,-8.78,8.16,0
3426,3426,51.68,0.17,10.71,0
3427,3427,51.69,9.88,11.03,0
3428,3428,51.7,11.27,7.62,0
3429,3429,51.72,8.73,12.91,0
3430,3430,51.73,3.46,21.28,0
3431,3431,51.74,-8.96,19.04,0
3432,3432,51.76,-16.39,14.29,0
3433,3433,51.77,-7.07,18.38,0
3434,3434,51.79,-0.48,24.36,0
3435,3435,51.8,-12.29,21.19,0
3436,3436,51.81,-21.59,10.9,0
3437,3437,51.83,-10.44,5.9,0
3438,3438,51.84,4.61,14.14,0
3439,3439,51.85,6.19,27.82,0
3440,3440,51.87,5.64,31.25,0
3441,3441,51.88,11.04,23.27,0
3442,3442,51.89,10.13,20.28,0
3443,3443,51.9,5.35,27.12,0
3444,3444,51.92,6.71,27.42,0
3445,3445,51.93,8.02,16.05,0
3446,3446,51.95,6.87,8.62,0
3447,3447,51.96,4.8,6.59,0
3448,3448,51.97,1.17,0.76,0
3449,3449,51.99,5.83,3.49,0
3450,3450,52.0,14.37,18.07,0
3451,3451,52.01,9.9,24.01,0
3452,3452,52.03,4.74,21.94,0
3453,3453,52.04,11.1,23.56,0
3454,3454,52.05,7.97,19.68,0
3455,3455,52.06,-10.61,12.04,0
3456,3456,52.08,-20.66,15.3,0
3457,3457,52.09,-13.93,23.56,0
3458,3458,52.11,-2.54,25.18,0
3459,3459,52.12,1.41,22.0,0
3460,3460,52.13,-0.02,16.18,0
3461,3461,52.15,4.92,8.04,0
3462,3462,52.16,7.97,5.32,0
3463,3463,52.17,-0.3,14.53,0
3464,3464,52.19,-0.13,26.99,0
3465,3465,52.2,11.51,45.14,0
3466,3466,52.21,9.48,98.04,0
3467,3467,52.22,-4.72,187.82,0
3468,3468,52.24,-8.25,268.03,0
3469,3469,52.25,-1.57,299.84,0
3470,3470,52.26,0.19,288.03,0
3471,3471,52.28,0.65,253.2,0
3472,3472,52.29,6.65,201.4,0
3473,3473,52.3,0.96,133.81,0
3474,3474,52.32,-22.56,60.43,0
3475,3475,52.33,-34.38,-7.15,0
3476,3476,52.34,-20.56,-63.58,0
3477,3477,52.36,-8.69,-111.6,0
3478,3478,52.37,-15.2,-158.15,0
3479,3479,52.38,-17.08,-202.21,0
3480,3480,52.4,-4.68,-227.94,0
3481,3481,52.41,-0.66,-226.58,0
3482,3482,52.43,-5.85,-212.71,0
3483,3483,52.44,0.38,-198.2,0
3484,3484,52.45,11.67,-180.45,0
3485,3485,52.47,7.53,-157.99,0
3486,3486,52.48,-4.97,-136.11,0
3487,3487,52.49,-2.98,-123.09,0
3488,3488,52.51,13.7,-111.25,0
3489,3489,52.52,21.78,-80.9,0
3490,3490,52.53,14.65,-51.87,0
3491,3491,52.54,15.17,-63.85,0
3492,3492,52.56,33.65,-95.8,0
3493,3493,52.57,46.82,-96.56,0
3494,3494,52.59,35.63,-69.64,0
3495,3495,52.6,9.96,-54.57,0
3496,3496,52.61,-9.18,-55.37,0
3497,3497,52.63,-7.62,-49.3,0
3498,3498,52.64,5.02,-35.4,0
3499,3499,52.65,6.71,-32.1,0
3500,3500,52.67,3.27,-41.89,0
3501,3501,52.68,8.24,-42.61,0
3502,3502,52.69,10.52,-21.48,0
3503,3503,52.71,2.95,-0.78,0
3504,3504,52.72,-8.32,-0.47,0
3505,3505,52.73,-15.39,-6.66,0
3506,3506,52.75,-11.0,-4.93,0
3507,3507,52.76,-4.44,0.19,0
3508,3508,52.77,-6.02,5.75,0
3509,3509,52.79,-6.06,13.13,0
3510,3510,52.8,-0.34,16.85,0
3511,3511,52.81,2.2,13.21,0
3512,3512,52.83,1.41,11.57,0
3513,3513,52.84,2.51,22.77,0
3514,3514,52.85,5.71,36.95,0
3515,3515,52.87,10.76,34.83,0
3516,3516,52.88,15.17,24.03,0
3517,3517,52.89,11.52,28.51,0
3518,3518,52.9,2.58,39.59,0
3519,3519,52.92,0.22,34.57,0
3520,3520,52.93,2.9,25.74,0
3521,3521,52.94,3.41,33.01,0
3522,3522,52.96,6.17,46.34,0
3523,3523,52.97,9.4,50.62,0
3524,3524,52.98,0.23,45.8,0
3525,3525,53.0,-15.75,40.75,0
3526,3526,53.01,-16.06,42.74,0
3527,3527,53.02,1.36,46.78,0
3528,3528,53.04,7.31,46.59,0
3529,3529,53.05,-7.19,44.51,0
3530,3530,53.06,-11.67,40.73,0
3531,3531,53.08,-0.69,38.5,0
3532,3532,53.09,3.0,45.95,0
3533,3533,53.11,-3.28,56.22,0
3534,3534,53.12,-11.2,55.07,0
3535,3535,53.13,-15.83,50.15,0
3536,3536,53.15,-11.16,51.19,0
3537,3537,53.16,-1.09,48.74,0
3538,3538,53.17,-0.79,39.1,0
3539,3539,53.19,-13.75,31.46,0
3540,3540,53.2,-24.29,28.81,0
3541,3541,53.21,-21.78,30.47,0
3542,3542,53.22,-10.55,38.13,0
3543,3543,53.24,1.38,46.07,0
3544,3544,53.25,6.69,43.7,0
3545,3545,53.27,3.08,33.91,0
3546,3546,53.28,-4.62,27.36,0
3547,3547,53.29,-11.32,23.28,0
3548,3548,53.31,-16.13,15.78,0
3549,3549,53.32,-16.84,7.62,0
3550,3550,53.33,-10.06,6.34,0
3551,3551,53.35,-0.65,14.34,0
3552,3552,53.36,2.87,19.38,0
3553,3553,53.37,1.85,14.68,0
3554,3554,53.38,1.54,15.03,0
3555,3555,53.4,-0.08,19.56,0
3556,3556,53.41,-3.93,12.32,0
3557,3557,53.43,-2.78,4.85,0
3558,3558,53.44,5.16,12.04,0
3559,3559,53.45,10.93,18.86,0
3560,3560,53.47,5.61,14.18,0
3561,3561,53.48,-6.07,7.63,0
3562,3562,53.49,-7.68,2.26,0
3563,3563,53.51,2.6,-5.85,0
3564,3564,53.52,5.32,-8.64,0
3565,3565,53.53,-3.74,0.67,0
3566,3566,53.54,-4.26,8.13,0
3567,3567,53.56,5.11,1.72,0
3568,3568,53.57,4.69,-5.15,0
3569,3569,53.58,-0.89,-3.2,0
3570,3570,53.6,4.58,-3.19,0
3571,3571,53.61,10.0,-7.55,0
3572,3572,53.62,9.37,-8.32,0
3573,3573,53.64,14.01,-7.14,0
3574,3574,53.65,13.24,-9.96,0
3575,3575,53.66,-2.25,-15.33,0
3576,3576,53.68,-13.38,-16.83,0
3577,3577,53.69,-12.37,-16.49,0
3578,3578,53.7,-13.05,-22.55,0
3579,3579,53.72,-14.98,-28.66,0
3580,3580,53.73,-4.66,-25.88,0
3581,3581,53.75,9.35,-21.95,0
3582,3582,53.76,4.54,-21.35,0
3583,3583,53.77,-10.94,-16.8,0
3584,3584,53.79,-10.46,-11.13,0
3585,3585,53.8,3.36,-11.75,0
3586,3586,53.81,12.76,-12.52,0
3587,3587,53.83,14.72,-8.05,0
3588,3588,53.84,11.03,-9.89,0
3589,3589,53.85,5.75,-20.88,0
3590,3590,53.87,2.03,-24.93,0
3591,3591,53.88,-3.21,-20.56,0
3592,3592,53.89,-7.62,-18.79,0
3593,3593,53.9,-6.01,-19.7,0
3594,3594,53.92,-0.69,-20.55,0
3595,3595,53.93,4.28,-18.74,0
3596,3596,53.95,6.03,-12.96,0
3597,3597,53.96,3.18,-10.14,0
3598,3598,53.97,-2.24,-14.2,0
3599,3599,53.99,-5.93,-20.58,0
3600,3600,54.0,-4.78,-24.29,0
3601,3601,54.01,0.0,-21.23,0
3602,3602,54.03,6.45,-16.12,0
3603,3603,54.04,8.94,-19.58,0
3604,3604,54.05,-0.5,-22.9,0
3605,3605,54.06,-15.44,-11.96,0
3606,3606,54.08,-17.74,-0.08,0
3607,3607,54.09,-2.68,-3.06,0
3608,3608,54.11,12.14,-17.63,0
3609,3609,54.12,10.45,-35.1,0
3610,3610,54.13,0.7,-42.69,0
3611,3611,54.15,-4.16,-33.79,0
3612,3612,54.16,-1.49,-3.48,0
3613,3613,54.17,8.51,48.0,0
3614,3614,54.18,14.13,73.64,0
3615,3615,54.2,6.14,26.23,0
3616,3616,54.21,0.04,-40.23,0
3617,3617,54.22,14.01,-46.22,0
3618,3618,54.24,37.65,-16.81,0
3619,3619,54.25,36.34,-39.06,0
3620,3620,54.26,5.29,-117.21,0
3621,3621,54.28,-14.85,-75.23,0
3622,3622,54.29,-10.91,129.0,0
3623,3623,54.3,-7.42,184.52,0
3624,3624,54.32,-9.89,31.02,0
3625,3625,54.33,-22.27,48.92,0
3626,3626,54.34,-55.29,281.84,0
3627,3627,54.36,-70.9,296.41,0
3628,3628,54.37,-9.59,30.67,0
3629,3629,54.38,68.74,-48.85,0
3630,3630,54.4,44.07,177.22,0
3631,3631,54.41,-24.67,325.64,0
3632,3632,54.43,-14.41,259.53,0
3633,3633,54.44,38.15,155.75,0
3634,3634,54.45,56.07,37.38,0
3635,3635,54.47,51.77,-108.15,0
3636,3636,54.48,55.93,-99.93,0
3637,3637,54.49,49.16,38.3,0
3638,3638,54.51,27.87,-36.17,0
3639,3639,54.52,22.43,-284.84,0
3640,3640,54.53,13.9,-295.71,0
3641,3641,54.54,-14.99,-97.31,0
3642,3642,54.56,-22.53,-25.01,0
3643,3643,54.57,-5.23,-93.69,0
3644,3644,54.59,-8.18,-148.17,0
3645,3645,54.6,-31.71,-165.5,0
3646,3646,54.61,-39.99,-188.91,0
3647,3647,54.63,-21.39,-232.24,0
3648,3648,54.64,-4.26,-223.62,0
3649,3649,54.65,-8.17,-121.22,0
3650,3650,54.67,-11.89,-75.78,0
3651,3651,54.68,-11.35,-177.19,0
3652,3652,54.69,-19.87,-230.63,0
3653,3653,54.71,-30.25,-91.64,0
3654,3654,54.72,-29.63,47.71,0
3655,3655,54.73,-8.04,9.93,0
3656,3656,54.75,9.77,-56.56,0
3657,3657,54.76,-9.98,-42.57,0
3658,3658,54.77,-31.42,-56.77,0
3659,3659,54.79,-20.71,-78.63,0
3660,3660,54.8,-9.29,3.66,0
3661,3661,54.81,-15.11,92.55,0
3662,3662,54.82,-22.79,52.39,0
3663,3663,54.84,-19.44,-44.22,0
3664,3664,54.85,5.4,-82.63,0
3665,3665,54.86,27.0,-62.88,0
3666,3666,54.88,11.14,-22.81,0
3667,3667,54.89,-12.13,27.79,0
3668,3668,54.9,-12.53,60.51,0
3669,3669,54.92,-5.75,16.59,0
3670,3670,54.93,4.08,-40.96,0
3671,3671,54.94,16.33,2.93,0
3672,3672,54.96,7.92,51.41,0
3673,3673,54.97,-17.46,5.37,0
3674,3674,54.98,-18.48,-9.86,0
3675,3675,55.0,7.04,55.01,0
3676,3676,55.01,13.27,93.99,0
3677,3677,55.02,-8.31,73.65,0
3678,3678,55.04,-18.22,21.76,0
3679,3679,55.05,5.27,-25.54,0
3680,3680,55.06,31.85,-19.47,0
3681,3681,55.08,25.46,24.01,0
3682,3682,55.09,2.53,41.34,0
3683,3683,55.11,-4.98,34.46,0
3684,3684,55.12,5.38,34.15,0
3685,3685,55.13,11.34,18.94,0
3686,3686,55.15,0.04,-9.93,0
3687,3687,55.16,-1.13,5.98,0
3688,3688,55.17,16.99,56.45,0
3689,3689,55.19,14.96,48.74,0
3690,3690,55.2,-6.32,-11.91,0
3691,3691,55.21,-0.87,-9.17,0
3692,3692,55.22,27.13,52.09,0
3693,3693,55.24,32.48,60.19,0
3694,3694,55.25,9.2,29.97,0
3695,3695,55.27,-6.45,34.84,0
3696,3696,55.28,-0.26,57.94,0
3697,3697,55.29,1.78,55.38,0
3698,3698,55.31,-9.95,17.22,0
3699,3699,55.32,-13.45,5.29,0
3700,3700,55.33,-5.69,72.96,0
3701,3701,55.35,-4.01,109.28,0
3702,3702,55.36,-5.18,22.38,0
3703,3703,55.37,2.28,-41.07,0
3704,3704,55.38,8.89,25.77,0
3705,3705,55.4,4.59,83.29,0
3706,3706,55.41,-2.27,46.44,0
3707,3707,55.43,-0.1,9.8,0
3708,3708,55.44,7.96,32.08,0
3709,3709,55.45,9.83,84.23,0
3710,3710,55.46,3.81,101.81,0
3711,3711,55.48,4.6,56.13,0
3712,3712,55.49,20.19,11.82,0
3713,3713,55.5,27.21,-0.85,0
3714,3714,55.52,8.1,-31.87,0
3715,3715,55.53,-11.85,-59.67,0
3716,3716,55.54,-18.52,-3.88,0
3717,3717,55.56,-24.32,64.89,0
3718,3718,55.57,-18.21,27.75,0
3719,3719,55.58,6.18,-3.68,0
3720,3720,55.6,15.18,73.12,0
3721,3721,55.61,1.76,117.09,0
3722,3722,55.62,-0.69,60.81,0
3723,3723,55.64,3.59,9.85,0
3724,3724,55.65,-10.83,1.49,0
3725,3725,55.66,-23.67,-0.55,0
3726,3726,55.68,-7.34,17.04,0
3727,3727,55.69,18.77,64.84,0
3728,3728,55.71,24.58,88.18,0
3729,3729,55.72,10.92,51.97,0
3730,3730,55.73,-4.68,-17.91,0
3731,3731,55.75,-10.58,-59.38,0
3732,3732,55.76,-7.34,-18.21,0
3733,3733,55.77,-5.56,33.89,0
3734,3734,55.79,-10.92,-11.14,0
3735,3735,55.8,-16.1,-76.53,0
3736,3736,55.81,-12.65,-49.77,0
3737,3737,55.83,-2.6,-3.65,0
3738,3738,55.84,-2.95,-8.54,0
3739,3739,55.85,-18.44,15.31,0
3740,3740,55.87,-18.17,86.52,0
3741,3741,55.88,0.28,110.92,0
3742,3742,55.89,-4.21,64.67,0
3743,3743,55.9,-21.24,6.88,0
3744,3744,55.92,-0.59,-17.78,0
3745,3745,55.93,34.55,-18.25,0
3746,3746,55.95,26.68,-8.48,0
3747,3747,55.96,-1.28,26.38,0
3748,3748,55.97,-7.5,55.82,0
3749,3749,55.99,-7.17,34.18,0
3750,3750,56.0,-5.56,2.56,0
3751,3751,56.01,8.19,0.07,0
3752,3752,56.03,16.27,-1.29,0
3753,3753,56.04,4.62,-8.24,0
3754,3754,56.05,-10.76,-17.45,0
3755,3755,56.06,-12.6,-36.07,0
3756,3756,56.08,-6.66,-43.87,0
3757,3757,56.09,-4.15,-33.6,0
3758,3758,56.1,-8.3,-9.56,0
3759,3759,56.12,-17.69,15.83,0
3760,3760,56.13,-23.26,-1.41,0
3761,3761,56.14,-11.08,-55.11,0
3762,3762,56.16,17.21,-71.73,0
3763,3763,56.17,33.67,-37.99,0
3764,3764,56.18,20.56,-22.06,0
3765,3765,56.2,-1.62,-52.24,0
3766,3766,56.21,-6.3,-95.85,0
3767,3767,56.22,8.01,-128.38,0
3768,3768,56.24,23.4,-134.47,0
3769,3769,56.25,20.63,-116.3,0
3770,3770,56.26,-0.97,-125.11,0
3771,3771,56.28,-18.13,-183.93,0
3772,3772,56.29,-13.95,-219.06,0
3773,3773,56.3,0.82,-169.7,0
3774,3774,56.32,9.57,-88.62,0
3775,3775,56.33,11.09,-42.09,0
3776,3776,56.35,14.84,-11.7,0
3777,3777,56.36,20.59,31.6,0
3778,3778,56.37,19.2,68.2,0
3779,3779,56.38,12.63,79.21,0
3780,3780,56.4,3.93,77.28,0
3781,3781,56.41,-9.02,76.28,0
3782,3782,56.43,-16.05,74.48,0
3783,3783,56.44,-8.21,72.92,0
3784,3784,56.45,7.46,77.44,0
3785,3785,56.47,18.58,81.95,0
3786,3786,56.48,14.14,77.28,0
3787,3787,56.49,-3.98,65.94,0
3788,3788,56.51,-16.18,51.26,0
3789,3789,56.52,-13.39,34.72,0
3790,3790,56.53,-8.42,26.15,0
3791,3791,56.54,-3.92,28.27,0
3792,3792,56.56,12.01,32.7,0
3793,3793,56.57,28.14,40.26,0
3794,3794,56.59,21.55,51.3,0
3795,3795,56.6,2.62,56.04,0
3796,3796,56.61,-4.24,55.74,0
3797,3797,56.63,-2.22,54.29,0
3798,3798,56.64,-5.88,45.8,0
3799,3799,56.65,-11.76,39.37,0
3800,3800,56.67,-10.54,45.2,0
3801,3801,56.68,-5.15,45.39,0
3802,3802,56.69,-3.23,29.92,0
3803,3803,56.71,-4.33,16.23,0
3804,3804,56.72,-2.98,12.52,0
3805,3805,56.73,-0.48,16.46,0
3806,3806,56.74,-3.81,27.12,0
3807,3807,56.76,-10.81,30.51,0
3808,3808,56.77,-10.48,14.0,0
3809,3809,56.78,-3.8,-7.43,0
3810,3810,56.8,-2.63,-12.68,0
3811,3811,56.81,-6.52,-7.36,0
3812,3812,56.82,-9.07,-8.57,0
3813,3813,56.84,-11.3,-10.53,0
3814,3814,56.85,-12.91,-3.8,0
3815,3815,56.86,-10.33,-2.82,0
3816,3816,56.88,-4.36,-15.97,0
3817,3817,56.89,-1.7,-25.24,0
3818,3818,56.9,-4.34,-19.84,0
3819,3819,56.92,-5.57,-12.69,0
3820,3820,56.93,-4.14,-10.1,0
3821,3821,56.94,-6.95,-4.6,0
3822,3822,56.96,-12.67,-1.28,0
3823,3823,56.97,-11.04,-13.02,0
3824,3824,56.99,-2.87,-29.29,0
3825,3825,57.0,-0.36,-30.08,0
3826,3826,57.01,-2.86,-23.16,0
3827,3827,57.03,1.94,-24.87,0
3828,3828,57.04,10.68,-30.09,0
3829,3829,57.05,9.14,-29.97,0
3830,3830,57.06,2.57,-25.15,0
3831,3831,57.08,5.31,-16.61,0
3832,3832,57.09,14.09,-13.86,0
3833,3833,57.11,14.2,-26.1,0
3834,3834,57.12,2.41,-32.16,0
3835,3835,57.13,-10.3,-16.66,0
3836,3836,57.15,-15.39,-5.54,0
3837,3837,57.16,-11.77,-14.28,0
3838,3838,57.17,-4.77,-24.43,0
3839,3839,57.19,-4.16,-25.96,0
3840,3840,57.2,-10.25,-24.08,0
3841,3841,57.21,-9.1,-20.66,0
3842,3842,57.22,5.12,-17.7,0
3843,3843,57.24,17.74,-16.99,0
3844,3844,57.25,14.62,-20.42,0
3845,3845,57.27,0.15,-29.15,0
3846,3846,57.28,-11.64,-31.13,0
3847,3847,57.29,-10.48,-19.88,0
3848,3848,57.31,-1.15,-14.24,0
3849,3849,57.32,2.14,-26.87,0
3850,3850,57.33,-1.85,-40.3,0
3851,3851,57.35,-1.04,-35.29,0
3852,3852,57.36,6.57,-22.22,0
3853,3853,57.37,11.18,-20.0,0
3854,3854,57.38,7.0,-25.11,0
3855,3855,57.4,-1.68,-21.42,0
3856,3856,57.41,-5.41,-9.22,0
3857,3857,57.42,-3.04,-4.22,0
3858,3858,57.44,-3.03,-6.49,0
3859,3859,57.45,-6.26,-5.69,0
3860,3860,57.46,-5.69,-6.16,0
3861,3861,57.48,-0.47,-9.92,0
3862,3862,57.49,7.34,-10.26,0
3863,3863,57.5,17.02,-9.31,0
3864,3864,57.52,20.31,-9.26,0
3865,3865,57.53,12.56,-6.95,0
3866,3866,57.54,7.52,-4.6,0
3867,3867,57.56,15.04,-5.92,0
3868,3868,57.57,18.92,-9.4,0
3869,3869,57.58,7.55,-10.07,0
3870,3870,57.6,-0.01,-6.54,0
3871,3871,57.61,5.51,-2.41,0
3872,3872,57.63,6.72,1.87,0
3873,3873,57.64,1.63,5.64,0
3874,3874,57.65,2.13,4.73,0
3875,3875,57.67,5.93,1.77,0
3876,3876,57.68,5.79,2.11,0
3877,3877,57.69,0.07,0.97,0
3878,3878,57.71,-4.4,-3.12,0
3879,3879,57.72,2.36,-1.0,0
3880,3880,57.73,13.61,6.44,0
3881,3881,57.75,13.23,12.12,0
3882,3882,57.76,4.9,15.27,0
3883,3883,57.77,-1.21,12.7,0
3884,3884,57.79,-10.48,9.97,0
3885,3885,57.8,-16.38,15.36,0
3886,3886,57.81,-3.38,12.93,0
3887,3887,57.83,8.63,-6.45,0
3888,3888,57.84,-4.46,-18.2,0
3889,3889,57.85,-18.08,-7.56,0
3890,3890,57.87,-6.53,6.79,0
3891,3891,57.88,7.7,9.36,0
3892,3892,57.89,3.52,8.3,0
3893,3893,57.9,-3.73,10.0,0
3894,3894,57.92,-3.34,7.02,0
3895,3895,57.93,-3.87,-1.94,0
3896,3896,57.95,-9.34,-8.99,0
3897,3897,57.96,-12.75,-24.02,0
3898,3898,57.97,-4.94,-75.55,0
3899,3899,57.99,8.79,-155.75,0
3900,3900,58.0,17.47,-202.01,0
3901,3901,58.01,24.19,-175.04,0
3902,3902,58.02,30.06,-115.91,0
3903,3903,58.04,25.27,-89.01,0
3904,3904,58.05,12.46,-96.54,0
3905,3905,58.06,7.8,-89.11,0
3906,3906,58.08,6.26,-51.39,0
3907,3907,58.09,-7.02,-19.87,0
3908,3908,58.1,-17.25,-12.05,0
3909,3909,58.12,-11.64,-2.51,0
3910,3910,58.13,-6.65,21.98,0
3911,3911,58.14,-9.14,49.81,0
3912,3912,58.16,-12.67,74.91,0
3913,3913,58.17,-16.29,96.19,0
3914,3914,58.18,-15.42,111.44,0
3915,3915,58.2,-9.93,120.72,0
3916,3916,58.21,-10.4,123.87,0
3917,3917,58.22,-10.56,123.33,0
3918,3918,58.24,-2.0,125.31,0
3919,3919,58.25,-2.08,133.0,0
3920,3920,58.26,-14.19,141.15,0
3921,3921,58.28,-20.87,142.56,0
3922,3922,58.29,-18.12,138.75,0
3923,3923,58.31,-4.33,137.21,0
3924,3924,58.32,13.17,140.07,0
3925,3925,58.33,14.9,137.4,0
3926,3926,58.35,2.92,124.61,0
3927,3927,58.36,-5.98,117.02,0
3928,3928,58.37,-4.94,118.57,0
3929,3929,58.38,2.2,112.79,0
3930,3930,58.4,2.93,96.66,0
3931,3931,58.41,-7.12,80.49,0
3932,3932,58.43,-17.41,68.08,0
3933,3933,58.44,-24.29,56.75,0
3934,3934,58.45,-24.04,43.39,0
3935,3935,58.47,-4.6,30.23,0
3936,3936,58.48,22.12,19.58,0
3937,3937,58.49,22.49,10.97,0
3938,3938,58.51,-0.13,8.0,0
3939,3939,58.52,-6.15,6.57,0
3940,3940,58.53,8.03,-0.83,0
3941,3941,58.54,12.57,-4.46,0
3942,3942,58.56,4.26,1.94,0
3943,3943,58.57,-2.93,5.89,0
3944,3944,58.59,-5.21,-2.72,0
3945,3945,58.6,-5.31,-17.65,0
3946,3946,58.61,-6.65,-25.11,0
3947,3947,58.63,-4.93,-21.82,0
3948,3948,58.64,-1.27,-20.23,0
3949,3949,58.65,-2.71,-27.56,0
3950,3950,58.66,-1.44,-38.27,0
3951,3951,58.68,1.6,-49.03,0
3952,3952,58.69,-9.33,-54.26,0
3953,3953,58.7,-22.19,-47.31,0
3954,3954,58.72,-17.4,-41.26,0
3955,3955,58.73,-5.23,-47.73,0
3956,3956,58.74,3.08,-52.33,0
3957,3957,58.76,8.26,-49.03,0
3958,3958,58.77,8.14,-47.49,0
3959,3959,58.78,7.1,-47.89,0
3960,3960,58.8,13.58,-49.75,0
3961,3961,58.81,26.9,-52.72,0
3962,3962,58.82,30.08,-50.01,0
3963,3963,58.84,14.23,-47.26,0
3964,3964,58.85,1.62,-55.54,0
3965,3965,58.86,-1.66,-67.13,0
3966,3966,58.88,-11.0,-63.45,0
3967,3967,58.89,-11.03,-46.66,0
3968,3968,58.9,3.52,-37.61,0
3969,3969,58.92,3.18,-40.51,0
3970,3970,58.93,-5.4,-45.46,0
3971,3971,58.95,-6.15,-47.27,0
3972,3972,58.96,-20.02,-45.38,0
3973,3973,58.97,-19.9,-45.25,0
3974,3974,58.99,34.22,-48.81,0
3975,3975,59.0,70.0,-48.1,0
3976,3976,59.01,24.68,-45.25,0
3977,3977,59.03,-24.98,-55.0,0
3978,3978,59.04,-3.45,-62.78,0
3979,3979,59.05,46.65,-36.67,0
3980,3980,59.06,49.66,-3.37,0
3981,3981,59.08,3.52,-8.61,0
3982,3982,59.09,-28.3,-28.52,0
3983,3983,59.11,4.78,-30.02,0
3984,3984,59.12,68.96,-25.71,0
3985,3985,59.13,77.39,-21.51,0
3986,3986,59.15,16.03,-24.48,0
3987,3987,59.16,-36.55,-43.48,0
3988,3988,59.17,-36.26,-47.19,0
3989,3989,59.19,-33.94,-26.87,0
3990,3990,59.2,-53.52,-21.7,0
3991,3991,59.21,-38.71,-32.45,0
3992,3992,59.22,5.37,-25.17,0
3993,3993,59.24,8.9,-6.08,0
3994,3994,59.25,-15.98,-6.74,0
3995,3995,59.27,-8.81,-21.42,0
3996,3996,59.28,19.4,-21.59,0
3997,3997,59.29,19.99,-10.62,0
3998,3998,59.3,-5.44,-9.86,0
3999,3999,59.32,-9.89,-13.36,0
4000,4000,59.33,16.43,-4.24,0
4001,4001,59.34,24.74,10.43,0
4002,4002,59.36,-1.63,13.31,0
4003,4003,59.37,-24.63,5.61,0
4004,4004,59.38,-26.13,-4.52,0
4005,4005,59.4,-18.94,-16.3,0
4006,4006,59.41,-8.31,-18.23,0
4007,4007,59.42,10.06,-0.01,0
4008,4008,59.44,21.92,18.81,0
4009,4009,59.45,4.88,19.84,0
4010,4010,59.46,-25.0,15.09,0
4011,4011,59.48,-29.04,17.8,0
4012,4012,59.49,-9.65,21.45,0
4013,4013,59.5,-5.09,19.16,0
4014,4014,59.52,-20.7,13.28,0
4015,4015,59.53,-22.41,7.31,0
4016,4016,59.54,-3.47,6.12,0
4017,4017,59.56,2.89,11.49,0
4018,4018,59.57,-14.82,19.9,0
4019,4019,59.59,-26.46,26.85,0
4020,4020,59.6,-13.26,23.29,0
4021,4021,59.61,5.68,11.27,0
4022,4022,59.63,7.97,8.5,0
4023,4023,59.64,-0.38,14.51,0
4024,4024,59.65,2.58,14.98,0
4025,4025,59.67,17.2,12.42,0
4026,4026,59.68,23.77,16.11,0
4027,4027,59.69,17.7,23.41,0
4028,4028,59.71,3.78,27.63,0
4029,4029,59.72,-16.65,28.04,0
4030,4030,59.73,-28.37,27.04,0
4031,4031,59.75,-16.96,28.83,0
4032,4032,59.76,-0.09,32.0,0
4033,4033,59.77,-3.36,31.57,0
4034,4034,59.79,-17.59,32.36,0
4035,4035,59.8,-17.66,33.52,0
4036,4036,59.81,-5.67,23.38,0
4037,4037,59.83,2.28,7.89,0
4038,4038,59.84,6.6,1.36,0
4039,4039,59.85,14.66,1.7,0
4040,4040,59.87,21.53,2.46,0
4041,4041,59.88,13.79,3.89,0
4042,4042,59.89,-7.75,2.7,0
4043,4043,59.9,-19.58,0.07,0
4044,4044,59.92,-6.26,7.28,0
4045,4045,59.93,14.04,22.18,0
4046,4046,59.94,17.12,24.91,0
4047,4047,59.96,8.62,10.41,0
4048,4048,59.97,4.14,-2.85,0
4049,4049,59.98,-0.96,-3.07,0
4050,4050,60.0,-7.97,3.6,0
4051,4051,60.01,-1.81,11.24,0
4052,4052,60.02,11.14,16.07,0
4053,4053,60.04,7.54,14.16,0
4054,4054,60.05,-9.4,12.78,0
4055,4055,60.06,-20.14,18.2,0
4056,4056,60.08,-19.4,21.21,0
4057,4057,60.09,-9.95,15.9,0
4058,4058,60.1,6.84,7.16,0
4059,4059,60.12,23.52,0.77,0
4060,4060,60.13,22.17,5.92,0
4061,4061,60.14,-2.11,24.28,0
4062,4062,60.16,-19.98,41.59,0
4063,4063,60.17,-6.18,62.99,0
4064,4064,60.18,16.14,124.68,0
4065,4065,60.2,13.94,213.61,0
4066,4066,60.21,-1.25,262.13,0
4067,4067,60.22,-4.0,292.7,0
4068,4068,60.24,1.53,344.32,0
4069,4069,60.25,9.64,316.25,0
4070,4070,60.27,24.48,181.06,0
4071,4071,60.28,23.76,85.95,0
4072,4072,60.29,-3.98,71.92,0
4073,4073,60.31,-18.3,23.63,0
4074,4074,60.32,-3.71,-92.23,0
4075,4075,60.33,0.81,-194.61,0
4076,4076,60.35,-12.75,-238.15,0
4077,4077,60.36,-9.05,-232.84,0
4078,4078,60.37,13.8,-203.91,0
4079,4079,60.38,23.61,-185.47,0
4080,4080,60.4,14.83,-180.97,0
4081,4081,60.41,9.01,-171.95,0
4082,4082,60.43,15.73,-159.72,0
4083,4083,60.44,23.37,-143.73,0
4084,4084,60.45,21.77,-123.18,0
