,Timestamp,Data1,Data2,Label
0,6.0,13.94,10.04,0
1,6.01,14.17,-2.87,0
2,6.03,4.52,-12.7,0
3,6.04,-10.02,-11.7,0
4,6.05,-9.86,-3.74,0
5,6.07,4.39,5.07,0
6,6.08,9.96,7.17,0
7,6.09,-2.37,2.5,0
8,6.11,-16.87,0.5,0
9,6.12,-14.85,5.47,0
10,6.13,1.55,13.22,0
11,6.15,12.82,15.64,0
12,6.16,12.15,3.87,0
13,6.17,9.46,-14.86,0
14,6.19,6.14,-21.12,0
15,6.2,-6.52,-16.27,0
16,6.21,-21.41,-35.76,0
17,6.23,-17.8,-87.41,0
18,6.24,9.85,-66.22,0
19,6.25,50.13,43.43,0
20,6.265,80.88,67.83,0
21,6.28,75.04,57.4,0
22,6.29,8.31,169.84,0
23,6.31,-77.7,301.07,0
24,6.32,-46.6,381.28,0
25,6.33,79.86,415.27,0
26,6.35,101.23,360.12,0
27,6.36,45.36,280.68,0
28,6.37,44.01,245.73,0
29,6.39,16.02,220.01,0
30,6.4,-32.57,177.25,0
31,6.41,5.73,136.07,0
32,6.43,30.03,106.78,0
33,6.44,-31.78,79.05,0
34,6.45,-47.6,48.56,0
35,6.47,8.07,21.04,0
36,6.48,-4.78,-1.88,0
37,6.49,-93.26,-23.51,0
38,6.51,-126.71,-44.56,0
39,6.52,-104.73,-63.44,0
40,6.53,-104.15,-80.32,0
41,6.55,-78.15,-95.86,0
42,6.56,-11.74,-109.72,0
43,6.57,-5.95,-122.1,0
44,6.59,-47.92,-133.34,0
45,6.6,-42.86,-143.11,0
46,6.61,-8.07,-151.29,0
47,6.63,-5.58,-158.49,0
48,6.64,-12.88,-165.13,0
49,6.65,7.6,-170.18,0
50,6.67,25.56,-172.88,0
51,6.68,34.02,-175.22,0
52,6.69,29.98,-178.09,0
53,6.71,-30.68,-180.0,0
54,6.72,-83.9,-180.15,0
55,6.73,-38.37,-179.19,0
56,6.75,13.68,-177.93,0
57,6.76,-8.55,-176.47,0
58,6.77,-3.52,-174.59,0
59,6.79,54.08,-171.92,0
60,6.8,57.26,-168.07,0
61,6.81,4.74,-163.39,0
62,6.82,-21.84,-158.57,0
63,6.84,-1.25,-154.08,0
64,6.85,37.74,-149.69,0
65,6.86,50.07,-144.48,0
66,6.88,7.77,-138.24,0
67,6.89,-30.24,-132.1,0
68,6.91,2.5,-126.3,0
69,6.92,50.29,-120.27,0
70,6.93,49.12,-113.71,0
71,6.95,37.74,-106.51,0
72,6.96,48.53,-98.86,0
73,6.97,40.52,-91.53,0
74,6.99,3.0,-84.86,0
75,7.0,-15.6,-78.14,0
76,7.01,-13.22,-71.0,0
77,7.03,-5.2,-63.7,0
78,7.04,31.08,-56.74,0
79,7.05,64.97,-50.11,0
80,7.07,50.9,-43.31,0
81,7.08,28.86,-36.21,0
82,7.09,30.38,-29.32,0
83,7.11,29.71,-22.72,0
84,7.12,27.23,-16.1,0
85,7.13,34.65,-9.21,0
86,7.15,27.26,-2.68,0
87,7.16,13.7,2.76,0
88,7.17,28.57,7.65,0
89,7.19,27.88,13.43,0
90,7.2,-25.61,19.77,0
91,7.21,-61.58,25.34,0
92,7.23,-35.78,30.49,0
93,7.24,-10.31,18.54,0
94,7.25,-21.56,-24.32,0
95,7.27,-7.37,-33.04,0
96,7.28,33.27,30.75,0
97,7.29,9.9,27.25,0
98,7.31,-42.34,-132.5,0
99,7.32,-25.67,-264.56,0
100,7.33,7.67,-201.55,0
101,7.35,-0.85,-67.12,0
102,7.36,13.82,-20.75,0
103,7.37,52.89,-61.96,0
104,7.39,32.63,-163.33,0
105,7.4,-20.46,-203.73,0
106,7.41,-24.08,-76.4,0
107,7.43,5.44,14.77,0
108,7.44,10.1,-83.7,0
109,7.45,-0.33,-157.79,0
110,7.47,14.44,-39.21,0
111,7.48,29.69,125.03,0
112,7.49,6.09,138.3,0
113,7.51,-20.5,82.7,0
114,7.52,-13.99,180.74,0
115,7.53,7.61,333.6,0
116,7.55,26.17,278.83,0
117,7.56,16.26,113.41,0
118,7.57,-23.45,86.45,0
119,7.59,-35.12,189.84,0
120,7.6,-10.59,253.09,0
121,7.61,-2.2,201.82,0
122,7.63,-13.51,147.51,0
123,7.64,-17.18,147.86,0
124,7.65,-15.61,118.17,0
125,7.67,-7.15,113.8,0
126,7.68,14.3,237.95,0
127,7.69,17.09,365.8,0
128,7.71,-9.58,359.49,0
129,7.72,-16.75,279.65,0
130,7.73,11.18,221.58,0
131,7.75,19.71,210.35,0
132,7.76,-11.7,208.06,0
133,7.77,-24.0,178.52,0
134,7.79,2.79,162.44,0
135,7.8,2.56,162.02,0
136,7.81,-39.3,157.01,0
137,7.83,-50.8,204.16,0
138,7.84,-20.43,257.66,0
139,7.85,-13.5,160.73,0
140,7.87,-36.47,-30.21,0
141,7.88,-33.49,-24.98,0
142,7.89,10.21,232.66,0
143,7.91,40.33,407.71,0
144,7.92,8.18,274.59,0
145,7.93,-39.73,25.57,0
146,7.95,-24.56,-33.04,0
147,7.96,16.52,87.1,0
148,7.97,0.19,118.79,0
149,7.99,-33.69,63.73,0
150,8.0,-20.53,110.03,0
151,8.01,-7.3,162.05,0
152,8.03,-25.15,107.56,0
153,8.04,-18.57,70.83,0
154,8.05,23.72,85.84,0
155,8.07,47.54,86.09,0
156,8.08,31.21,114.15,0
157,8.09,-5.3,138.97,0
158,8.1,-26.24,62.21,0
159,8.12,-23.28,-20.7,0
160,8.13,-31.71,-26.97,0
161,8.15,-39.71,-35.67,0
162,8.16,-15.29,-35.55,0
163,8.17,2.62,21.61,0
164,8.19,-4.96,45.02,0
165,8.2,-1.67,-37.53,0
166,8.21,11.74,-138.29,0
167,8.23,12.12,-145.22,0
168,8.24,8.06,-96.03,0
169,8.25,13.87,-105.61,0
170,8.27,19.78,-190.28,0
171,8.28,12.32,-271.05,0
172,8.29,2.07,-287.19,0
173,8.31,5.07,-250.14,0
174,8.32,13.4,-199.42,0
175,8.33,10.21,-142.21,0
176,8.35,-3.56,-67.14,0
177,8.36,-13.22,-3.4,0
178,8.37,-13.77,-14.93,0
179,8.39,-9.35,-102.49,0
180,8.4,-3.61,-174.77,0
181,8.41,-5.47,-166.5,0
182,8.43,-12.71,-106.98,0
183,8.44,-11.2,-53.12,0
184,8.45,-3.53,-33.67,0
185,8.47,2.35,-35.47,0
186,8.48,8.7,-21.13,0
187,8.49,12.65,16.4,0
188,8.51,7.43,44.14,0
189,8.52,-0.4,39.31,0
190,8.53,1.05,10.97,0
191,8.55,4.13,-12.95,0
192,8.56,-2.91,-9.48,0
193,8.57,-10.55,13.14,0
194,8.59,-6.71,26.53,0
195,8.6,3.49,23.27,0
196,8.61,8.55,22.94,0
197,8.63,7.29,32.1,0
198,8.64,6.62,33.13,0
199,8.65,6.49,23.27,0
200,8.67,4.13,15.92,0
201,8.68,4.96,10.74,0
202,8.69,12.51,1.97,0
203,8.71,16.93,-7.84,0
204,8.72,6.84,-8.13,0
205,8.73,-13.67,3.37,0
206,8.75,-28.46,4.12,0
207,8.76,-23.82,-15.29,0
208,8.77,-3.27,-31.12,0
209,8.78,11.84,-31.77,0
210,8.8,5.87,-31.71,0
211,8.81,-9.31,-34.79,0
212,8.82,-11.75,-34.68,0
213,8.84,0.47,-36.74,0
214,8.85,9.47,-42.66,0
215,8.864999999999998,3.49,-47.15,0
216,8.88,-6.38,-53.26,0
217,8.89,-3.68,-61.56,0
218,8.91,7.28,-70.79,0
219,8.92,11.77,-82.35,0
220,8.93,9.54,-85.71,0
221,8.95,8.3,-75.89,0
222,8.96,4.37,-71.05,0
223,8.97,-6.11,-75.65,0
224,8.99,-10.01,-70.47,0
225,9.0,0.04,-55.36,0
226,9.01,11.41,-50.85,0
227,9.03,16.69,-61.62,0
228,9.04,18.97,-74.29,0
229,9.05,15.9,-80.09,0
230,9.07,6.95,-80.28,0
231,9.08,0.05,-76.94,0
232,9.09,-2.24,-72.01,0
233,9.11,-2.64,-70.99,0
234,9.12,-0.27,-72.0,0
235,9.13,1.5,-65.96,0
236,9.15,-4.07,-58.77,0
237,9.16,-9.03,-60.57,0
238,9.17,-1.04,-66.15,0
239,9.19,11.83,-71.49,0
240,9.2,15.79,-74.19,0
241,9.21,13.35,-64.23,0
242,9.23,12.4,-47.11,0
243,9.24,10.11,-43.3,0
244,9.25,2.78,-52.71,0
245,9.27,-2.14,-56.34,0
246,9.28,-0.13,-45.76,0
247,9.29,2.04,-31.29,0
248,9.31,0.05,-28.35,0
249,9.32,-2.63,-35.91,0
250,9.33,-3.13,-37.32,0
251,9.35,-3.96,-25.5,0
252,9.36,-4.31,-13.04,0
253,9.37,1.79,-15.71,0
254,9.39,13.02,-27.92,0
255,9.4,18.03,-30.4,0
256,9.41,10.7,-23.49,0
257,9.43,-0.7,-19.8,0
258,9.44,-4.51,-17.01,0
259,9.45,-0.68,-8.67,0
260,9.47,4.08,-4.07,0
261,9.48,10.67,-10.09,0
262,9.49,16.19,-10.48,0
263,9.51,9.32,3.26,0
264,9.52,-5.26,12.5,0
265,9.53,-9.78,8.32,0
266,9.55,-2.87,7.28,0
267,9.56,0.58,14.22,0
268,9.57,-1.2,14.72,0
269,9.59,1.11,10.48,0
270,9.6,0.13,12.03,0
271,9.61,-7.7,13.21,0
272,9.63,-4.62,9.75,0
273,9.64,8.78,12.55,0
274,9.65,13.19,26.89,0
275,9.67,8.14,37.61,0
276,9.68,6.06,31.16,0
277,9.69,7.98,20.92,0
278,9.71,6.01,24.9,0
279,9.72,-0.87,36.63,0
280,9.73,-4.89,38.6,0
281,9.75,-5.62,29.27,0
282,9.76,-8.04,24.17,0
283,9.77,-10.65,29.72,0
284,9.79,-14.16,32.91,0
285,9.8,-18.51,32.65,0
286,9.81,-14.16,41.83,0
287,9.83,0.02,49.85,0
288,9.84,13.17,40.74,0
289,9.85,19.24,28.12,0
290,9.87,13.34,27.23,0
291,9.88,-7.6,36.89,0
292,9.89,-27.25,50.26,0
293,9.91,-22.31,54.49,0
294,9.92,0.45,46.31,0
295,9.93,12.07,42.23,0
296,9.95,4.69,50.46,0
297,9.96,-6.46,58.51,0
298,9.97,-10.21,54.77,0
299,9.99,-7.51,40.1,0
300,10.0,-5.44,29.37,0
301,10.01,-6.17,32.52,0
302,10.02,-7.34,33.67,0
303,10.04,-11.22,25.98,0
304,10.05,-13.82,30.09,0
305,10.06,-2.42,42.61,0
306,10.08,17.6,35.77,0
307,10.09,23.11,15.19,0
308,10.1,8.59,9.18,0
309,10.12,-6.34,20.4,0
310,10.13,-6.3,34.19,0
311,10.15,2.44,42.42,0
312,10.16,7.84,44.3,0
313,10.17,5.81,44.84,0
314,10.19,-2.6,45.14,0
315,10.2,-10.63,40.02,0
316,10.21,-9.51,32.25,0
317,10.23,-1.17,26.93,0
318,10.24,5.05,21.42,0
319,10.25,8.01,12.32,0
320,10.27,15.83,-1.77,0
321,10.28,28.82,-27.42,0
322,10.29,27.89,-70.79,0
323,10.31,4.29,-115.16,0
324,10.32,-13.76,-133.75,0
325,10.33,-5.94,-128.84,0
326,10.35,8.2,-124.96,0
327,10.36,7.31,-137.89,0
328,10.37,-0.44,-152.52,0
329,10.39,3.32,-136.42,0
330,10.4,7.47,-92.09,0
331,10.41,-6.16,-53.64,0
332,10.43,-25.75,-32.02,0
333,10.44,-38.58,-6.0,0
334,10.45,-38.04,35.78,0
335,10.47,-20.61,76.43,0
336,10.48,-4.68,106.31,0
337,10.49,-4.03,137.73,0
338,10.51,-6.72,175.24,0
339,10.52,-5.65,202.69,0
340,10.53,-9.76,202.84,0
341,10.55,-15.3,182.07,0
342,10.56,-2.76,164.01,0
343,10.57,21.9,157.84,0
344,10.59,23.39,156.13,0
345,10.6,-4.14,148.29,0
346,10.61,-24.82,128.29,0
347,10.63,-17.89,106.19,0
348,10.64,0.74,93.9,0
349,10.65,10.6,84.79,0
350,10.67,4.84,71.31,0
351,10.68,-4.42,59.74,0
352,10.69,-1.26,55.49,0
353,10.71,1.43,51.71,0
354,10.72,-5.9,39.8,0
355,10.73,-4.21,19.99,0
356,10.75,6.56,-2.27,0
357,10.76,5.73,-14.78,0
358,10.77,-5.49,-7.93,0
359,10.78,-10.91,1.53,0
360,10.8,-9.03,-3.03,0
361,10.81,-6.56,-11.19,0
362,10.83,-1.75,-18.01,0
363,10.84,2.92,-30.33,0
364,10.85,8.06,-43.33,0
365,10.87,19.84,-48.94,0
366,10.88,19.36,-46.22,0
367,10.89,-0.87,-40.26,0
368,10.91,-9.72,-42.92,0
369,10.92,0.34,-54.01,0
370,10.93,4.09,-54.37,0
371,10.95,-4.22,-46.02,0
372,10.96,-1.86,-47.92,0
373,10.97,16.62,-54.91,0
374,10.99,18.62,-58.0,0
375,11.0,-5.99,-57.12,0
376,11.01,-20.07,-50.57,0
377,11.03,-9.36,-49.63,0
378,11.04,0.29,-58.36,0
379,11.05,0.2,-57.76,0
380,11.07,4.36,-45.63,0
381,11.08,10.02,-41.83,0
382,11.09,4.61,-48.31,0
383,11.11,-6.55,-52.11,0
384,11.12,-8.05,-55.61,0
385,11.13,0.2,-66.53,0
386,11.15,1.83,-74.46,0
387,11.16,-10.76,-67.32,0
388,11.17,-19.06,-51.93,0
389,11.19,-4.39,-40.54,0
390,11.2,20.43,-37.84,0
391,11.21,26.18,-41.27,0
392,11.23,8.14,-41.52,0
393,11.24,-9.4,-34.29,0
394,11.25,-9.53,-30.17,0
395,11.27,-1.64,-36.96,0
396,11.28,1.44,-42.29,0
397,11.29,4.99,-34.28,0
398,11.31,10.92,-26.76,0
399,11.32,9.69,-32.97,0
400,11.33,7.78,-38.16,0
401,11.35,11.17,-30.94,0
402,11.36,12.47,-27.2,0
403,11.37,19.4,-34.42,0
404,11.39,30.45,-33.72,0
405,11.4,19.52,-18.36,0
406,11.41,-7.27,-8.27,0
407,11.43,-18.79,-12.61,0
408,11.44,-11.04,-17.66,0
409,11.45,7.17,-18.3,0
410,11.47,28.04,-20.22,0
411,11.48,29.83,-20.31,0
412,11.49,7.18,-17.47,0
413,11.51,-7.85,-18.92,0
414,11.52,3.43,-20.94,0
415,11.53,19.96,-14.78,0
416,11.55,19.88,-7.81,0
417,11.56,5.87,-10.28,0
418,11.57,-5.6,-14.11,0
419,11.59,-10.81,-11.78,0
420,11.6,-18.55,-7.53,0
421,11.61,-18.93,0.52,0
422,11.63,-0.2,10.86,0
423,11.64,16.14,8.91,0
424,11.65,10.2,-3.97,0
425,11.67,-7.36,-8.44,0
426,11.68,-17.36,0.37,0
427,11.69,-9.28,13.64,0
428,11.71,3.89,26.07,0
429,11.72,5.11,29.38,0
430,11.73,8.03,19.59,0
431,11.75,12.1,12.88,0
432,11.76,-9.5,20.13,0
433,11.77,-39.68,28.39,0
434,11.79,-35.23,26.56,0
435,11.8,2.82,20.01,0
436,11.81,36.11,13.94,0
437,11.83,31.69,9.33,0
438,11.84,0.54,10.75,0
439,11.85,-15.78,17.32,0
440,11.87,-9.01,20.89,0
441,11.88,0.16,18.66,0
442,11.89,4.68,14.38,0
443,11.91,2.23,11.63,0
444,11.92,-7.08,11.31,0
445,11.93,-12.09,12.55,0
446,11.94,-9.06,14.13,0
447,11.96,-6.16,15.67,0
448,11.97,-7.53,18.55,0
449,11.98,-13.56,19.77,0
450,12.0,-21.76,17.48,0
451,12.01,-22.79,17.47,0
452,12.02,-13.13,18.39,0
453,12.04,-3.34,15.72,0
454,12.05,-0.74,14.92,0
455,12.06,-4.82,15.84,0
456,12.08,-10.01,11.19,0
457,12.09,-5.47,3.47,0
458,12.105,1.13,3.2,0
459,12.12,-4.81,12.75,0
460,12.13,-12.54,23.52,0
461,12.15,-9.09,30.4,0
462,12.16,-1.71,28.79,0
463,12.17,-0.43,22.46,0
464,12.19,-3.71,47.73,0
465,12.2,-1.89,128.37,0
466,12.21,1.94,234.64,0
467,12.23,-8.22,324.06,0
468,12.24,-22.31,353.81,0
469,12.25,-16.65,284.95,0
470,12.27,1.81,148.25,0
471,12.28,14.07,35.92,0
472,12.29,17.06,-18.09,0
473,12.31,13.65,-59.2,0
474,12.32,6.75,-115.58,0
475,12.33,-1.29,-167.76,0
476,12.35,-8.46,-188.8,0
477,12.36,-6.73,-177.99,0
478,12.37,6.17,-159.58,0
479,12.39,14.22,-147.54,0
480,12.4,4.79,-133.62,0
481,12.41,-10.14,-113.42,0
482,12.43,-11.44,-97.94,0
483,12.44,1.28,-91.32,0
484,12.45,14.59,-82.63,0
485,12.47,18.64,-72.0,0
486,12.48,12.61,-70.21,0
487,12.49,5.48,-78.52,0
488,12.51,10.41,-85.33,0
489,12.52,19.33,-77.24,0
490,12.53,8.53,-59.65,0
491,12.55,-12.89,-46.88,0
492,12.56,-12.88,-36.83,0
493,12.57,3.25,-26.88,0
494,12.59,9.78,-24.79,0
495,12.6,8.84,-24.19,0
496,12.61,11.58,-16.47,0
497,12.63,16.96,-15.06,0
498,12.64,18.05,-24.8,0
499,12.65,4.89,-26.45,0
500,12.67,-14.63,-11.05,0
501,12.68,-17.21,5.56,0
502,12.69,-7.9,8.31,0
503,12.71,-7.95,3.91,0
504,12.72,-9.74,4.57,0
505,12.73,2.23,5.97,0
506,12.75,15.52,1.06,0
507,12.76,11.22,-2.69,0
508,12.77,-1.41,4.55,0
509,12.79,-2.5,19.61,0
510,12.8,0.58,30.73,0
511,12.81,-5.12,31.41,0
512,12.83,-5.36,27.59,0
513,12.84,7.39,28.85,0
514,12.85,12.83,33.11,0
515,12.87,8.08,30.78,0
516,12.88,5.36,26.73,0
517,12.89,-2.53,31.42,0
518,12.91,-9.39,35.61,0
519,12.92,-0.78,33.7,0
520,12.93,6.7,37.98,0
521,12.95,1.87,44.48,0
522,12.96,-2.75,41.77,0
523,12.97,1.66,36.64,0
524,12.99,9.79,33.67,0
525,13.0,2.6,32.21,0
526,13.01,-15.18,34.75,0
527,13.03,-12.84,35.99,0
528,13.04,1.9,28.31,0
529,13.05,7.31,17.04,0
530,13.07,15.35,13.09,0
531,13.08,21.74,17.9,0
532,13.09,8.64,26.95,0
533,13.11,-3.75,31.77,0
534,13.12,0.43,24.21,0
535,13.13,4.76,15.47,0
536,13.15,-1.8,19.26,0
537,13.16,-14.59,26.57,0
538,13.17,-20.46,29.44,0
539,13.19,-15.25,30.1,0
540,13.2,-12.73,23.12,0
541,13.21,-14.64,8.99,0
542,13.23,-8.77,3.31,0
543,13.24,-0.08,8.28,0
544,13.25,-1.27,14.77,0
545,13.27,-6.21,20.35,0
546,13.28,-5.51,14.92,0
547,13.29,-1.61,-2.69,0
548,13.31,1.93,-7.23,0
549,13.32,3.19,8.59,0
550,13.33,3.48,23.21,0
551,13.35,8.69,19.11,0
552,13.36,15.84,-2.14,0
553,13.37,10.38,-17.55,0
554,13.39,-4.34,-12.01,0
555,13.4,-9.42,-1.8,0
556,13.41,-6.38,-0.48,0
557,13.43,-7.24,0.67,0
558,13.44,-7.81,3.84,0
559,13.45,-1.66,-1.63,0
560,13.47,2.05,-11.08,0
561,13.48,-3.85,-7.5,0
562,13.49,-12.7,3.35,0
563,13.51,-14.03,0.2,0
564,13.52,-3.42,-13.41,0
565,13.53,8.59,-14.34,0
566,13.55,8.72,-3.03,0
567,13.56,2.3,0.25,0
568,13.57,-1.34,-0.69,0
569,13.59,-2.46,8.83,0
570,13.6,0.09,10.95,0
571,13.61,4.59,-5.45,0
572,13.63,5.66,-14.07,0
573,13.64,5.47,-4.73,0
574,13.65,2.28,2.21,0
575,13.67,-4.17,1.58,0
576,13.68,-0.59,6.24,0
577,13.69,8.47,14.01,0
578,13.71,2.33,8.08,0
579,13.72,-10.44,-9.4,0
580,13.73,-8.17,-13.44,0
581,13.75,1.04,1.57,0
582,13.76,-0.13,7.78,0
583,13.77,-2.19,-2.26,0
584,13.79,6.02,-5.59,0
585,13.8,13.04,-4.24,0
586,13.81,13.07,-9.78,0
587,13.83,11.52,-5.22,0
588,13.84,7.58,7.17,0
589,13.85,1.01,-0.69,0
590,13.86,-3.03,-19.32,0
591,13.88,2.07,-23.66,0
592,13.89,13.0,-21.72,0
593,13.9,14.21,-22.35,0
594,13.92,2.38,-18.83,0
595,13.93,-9.62,-12.65,0
596,13.94,-10.89,-7.45,0
597,13.96,-0.73,-3.28,0
598,13.97,9.21,-1.91,0
599,13.98,9.05,-2.72,0
600,14.0,4.67,-4.34,0
601,14.01,0.53,-5.58,0
602,14.02,-9.86,-6.13,0
603,14.04,-22.59,-9.04,0
604,14.05,-21.96,-15.85,0
605,14.07,-10.78,-22.78,0
606,14.08,-5.21,-21.07,0
607,14.09,-0.6,-16.34,0
608,14.11,13.2,-23.83,0
609,14.12,19.03,-28.65,0
610,14.13,2.61,-8.23,0
611,14.15,-15.81,17.52,0
612,14.16,-13.22,15.5,0
613,14.17,8.8,2.53,0
614,14.19,26.79,18.03,0
615,14.2,16.72,62.17,0
616,14.21,-1.39,106.99,0
617,14.23,7.81,94.28,0
618,14.24,24.18,1.02,0
619,14.25,7.66,-100.17,0
620,14.27,-30.14,-135.95,0
621,14.28,-48.17,-4.94,0
622,14.29,-43.1,274.65,0
623,14.31,-32.17,394.2,0
624,14.32,-6.29,277.03,0
625,14.33,25.92,225.08,0
626,14.35,25.45,270.45,0
627,14.36,-1.49,214.84,0
628,14.37,-8.7,101.29,0
629,14.39,13.95,17.9,0
630,14.4,22.92,-80.2,0
631,14.41,-4.18,-136.8,0
632,14.43,-21.16,-75.44,0
633,14.44,-3.58,-2.88,0
634,14.45,11.31,-38.86,0
635,14.47,0.35,-129.26,0
636,14.48,-17.65,-175.28,0
637,14.49,-17.63,-191.78,0
638,14.51,-8.24,-193.78,0
639,14.52,-8.15,-164.19,0
640,14.53,-7.42,-124.69,0
641,14.55,0.89,-65.94,0
642,14.56,13.38,-10.4,0
643,14.57,20.3,-29.8,0
644,14.59,2.2,-118.95,0
645,14.6,-11.69,-182.98,0
646,14.61,18.11,-115.79,0
647,14.63,42.28,21.11,0
648,14.64,20.73,62.49,0
649,14.65,8.96,2.62,0
650,14.67,21.0,-84.52,0
651,14.68,7.08,-151.61,0
652,14.69,-12.34,-108.45,0
653,14.71,-4.33,11.42,0
654,14.72,5.98,0.54,0
655,14.73,10.68,-142.17,0
656,14.75,9.37,-175.38,0
657,14.76,-2.01,-80.14,0
658,14.77,1.25,-60.87,0
659,14.79,7.37,-77.61,0
660,14.8,-13.84,15.33,0
661,14.81,-26.93,71.17,0
662,14.83,-8.98,-17.49,0
663,14.84,5.63,-80.95,0
664,14.85,7.58,-45.8,0
665,14.87,7.41,-30.11,0
666,14.88,0.03,-84.01,0
667,14.89,-10.05,-129.73,0
668,14.91,-13.43,-101.98,0
669,14.92,-9.78,-25.94,0
670,14.93,0.46,12.76,0
671,14.95,17.08,-37.91,0
672,14.96,27.41,-124.52,0
673,14.97,8.56,-155.04,0
674,14.99,-26.54,-108.36,0
675,15.0,-33.55,-31.38,0
676,15.01,-12.35,14.85,0
677,15.03,-4.99,-21.11,0
678,15.04,-14.73,-110.27,0
679,15.05,-7.49,-114.98,0
680,15.07,13.24,9.63,0
681,15.08,21.24,80.08,0
682,15.09,21.18,-5.08,0
683,15.11,20.39,-47.27,0
684,15.12,6.25,38.88,0
685,15.13,-10.84,61.39,0
686,15.15,2.8,0.57,0
687,15.16,31.17,-1.42,0
688,15.17,21.27,31.31,0
689,15.19,-15.29,45.35,0
690,15.2,-15.34,69.39,0
691,15.21,20.55,70.28,0
692,15.23,26.12,37.59,0
693,15.24,-7.88,51.4,0
694,15.25,-30.91,88.29,0
695,15.27,-28.31,71.49,0
696,15.28,-19.61,59.95,0
697,15.29,-16.49,87.25,0
698,15.31,-10.81,75.57,0
699,15.32,10.06,38.49,0
700,15.33,26.96,29.16,0
701,15.35,15.38,21.01,0
702,15.36,-2.2,23.48,0
703,15.37,-4.34,42.2,0
704,15.39,-6.47,33.28,0
705,15.4,-7.09,34.89,0
706,15.41,2.3,82.91,0
707,15.43,-4.73,99.6,0
708,15.44,-31.32,51.92,0
709,15.45,-30.39,21.79,0
710,15.47,0.64,59.27,0
711,15.48,10.15,94.63,0
712,15.49,4.69,61.13,0
713,15.51,24.21,42.85,0
714,15.52,37.96,105.7,0
715,15.53,7.9,132.41,0
716,15.55,-26.71,51.66,0
717,15.56,-28.15,-2.57,0
718,15.57,-15.0,55.07,0
719,15.59,-0.22,106.2,0
720,15.6,10.94,85.86,0
721,15.61,1.44,67.06,0
722,15.63,-14.53,51.93,0
723,15.64,-17.74,25.71,0
724,15.65,-19.37,35.66,0
725,15.67,-16.3,59.45,0
726,15.68,-0.33,35.56,0
727,15.69,9.03,-18.55,0
728,15.71,9.53,-26.89,0
729,15.72,16.84,35.39,0
730,15.73,17.01,92.64,0
731,15.75,7.91,58.91,0
732,15.76,14.5,-44.18,0
733,15.77,19.97,-65.14,0
734,15.78,-1.12,55.34,0
735,15.8,-21.8,141.15,0
736,15.81,-15.13,77.98,0
737,15.82,-2.63,-30.5,0
738,15.84,-10.83,-75.55,0
739,15.85,-16.09,-24.26,0
740,15.86,3.05,80.64,0
741,15.88,14.84,118.91,0
742,15.89,-0.31,64.71,0
743,15.9,-17.56,37.33,0
744,15.92,-18.9,74.26,0
745,15.93,-13.86,85.77,0
746,15.94,-13.42,44.06,0
747,15.96,-11.72,3.87,0
748,15.97,-2.43,-0.79,0
749,15.98,4.65,19.2,0
750,16.0,-2.97,27.88,0
751,16.01,-13.41,14.56,0
752,16.03,-10.26,6.31,0
753,16.04,-1.99,4.4,0
754,16.05,5.24,-3.68,0
755,16.07,14.2,-8.78,0
756,16.08,10.93,-15.06,0
757,16.09,-8.78,-8.9,0
758,16.11,-18.2,28.11,0
759,16.12,0.77,39.82,0
760,16.13,23.91,-18.56,0
761,16.15,19.77,-70.61,0
762,16.16,0.53,-30.7,0
763,16.17,-3.94,33.83,0
764,16.19,10.37,14.19,0
765,16.2,25.16,-40.15,0
766,16.21,21.79,-45.53,0
767,16.23,6.27,-46.36,0
768,16.24,1.9,-89.68,0
769,16.25,3.04,-136.79,0
770,16.27,-10.43,-166.9,0
771,16.28,-21.87,-199.09,0
772,16.29,-6.67,-213.65,0
773,16.31,19.98,-185.53,0
774,16.32,25.78,-143.22,0
775,16.33,7.98,-124.02,0
776,16.35,-3.54,-122.26,0
777,16.36,4.55,-103.39,0
778,16.37,10.64,-59.43,0
779,16.39,8.99,-18.74,0
780,16.4,14.19,5.57,0
781,16.41,17.92,19.32,0
782,16.42,9.5,17.8,0
783,16.44,3.99,6.92,0
784,16.45,8.38,3.02,0
785,16.46,7.78,7.2,0
786,16.48,-5.4,15.15,0
787,16.49,-17.61,19.76,0
788,16.5,-14.29,14.02,0
789,16.52,-1.52,3.51,0
790,16.53,3.83,-10.36,0
791,16.54,-0.58,-20.36,0
792,16.56,-4.66,-2.46,0
793,16.57,-7.12,32.87,0
794,16.58,-11.86,52.3,0
795,16.6,-12.46,55.7,0
796,16.61,-7.84,58.4,0
797,16.62,-7.1,68.52,0
798,16.64,-4.93,84.79,0
799,16.65,8.22,90.06,0
800,16.67,17.69,77.99,0
801,16.68,8.35,70.84,0
802,16.69,-5.16,78.21,0
803,16.71,-5.28,78.62,0
804,16.72,-1.89,63.15,0
805,16.73,-4.44,50.49,0
806,16.75,-4.81,55.85,0
807,16.76,-5.16,70.17,0
808,16.77,-13.36,70.33,0
809,16.79,-15.39,60.14,0
810,16.8,1.62,59.46,0
811,16.81,18.22,56.65,0
812,16.83,11.41,42.44,0
813,16.84,-4.22,35.1,0
814,16.85,-6.11,33.82,0
815,16.87,-5.96,23.31,0
816,16.88,-10.68,7.62,0
817,16.89,-1.45,-0.54,0
818,16.91,16.4,3.5,0
819,16.92,19.11,8.67,0
820,16.93,10.83,-1.22,0
821,16.95,9.04,-20.55,0
822,16.96,16.47,-30.18,0
823,16.97,21.8,-26.75,0
824,16.99,13.56,-19.62,0
825,17.0,-1.86,-17.03,0
826,17.01,-8.43,-25.06,0
827,17.03,-7.04,-33.21,0
828,17.04,-8.45,-25.04,0
829,17.05,-12.16,-17.98,0
830,17.06,-13.32,-33.47,0
831,17.08,-12.54,-47.98,0
832,17.09,-13.55,-35.79,0
833,17.1,-13.6,-16.5,0
834,17.12,-5.47,-16.97,0
835,17.13,5.89,-28.58,0
836,17.14,7.86,-32.1,0
837,17.16,0.45,-28.67,0
838,17.17,-7.4,-28.57,0
839,17.18,-9.05,-36.46,0
840,17.2,-3.11,-44.71,0
841,17.21,5.66,-36.92,0
842,17.22,11.18,-16.74,0
843,17.24,12.98,-14.23,0
844,17.25,13.98,-37.15,0
845,17.26,11.31,-52.08,0
846,17.28,4.47,-41.84,0
847,17.29,1.4,-31.84,0
848,17.3,0.9,-40.91,0
849,17.32,-3.54,-50.38,0
850,17.33,-7.27,-40.24,0
851,17.35,-2.9,-27.49,0
852,17.36,2.31,-33.58,0
853,17.37,-1.02,-44.72,0
854,17.39,-0.22,-40.93,0
855,17.4,13.6,-27.54,0
856,17.41,19.46,-21.4,0
857,17.43,6.45,-24.18,0
858,17.44,-3.51,-24.02,0
859,17.45,1.65,-24.24,0
860,17.47,6.37,-33.84,0
861,17.48,1.87,-38.35,0
862,17.49,-3.68,-26.02,0
863,17.51,-5.43,-13.36,0
864,17.52,-3.68,-15.79,0
865,17.53,0.9,-24.27,0
866,17.55,4.62,-25.38,0
867,17.56,6.24,-20.29,0
868,17.57,7.0,-15.36,0
869,17.59,4.44,-13.17,0
870,17.6,-0.62,-15.18,0
871,17.61,-0.49,-19.79,0
872,17.63,6.14,-18.08,0
873,17.64,7.81,-11.46,0
874,17.65,0.19,-13.89,0
875,17.67,-6.16,-17.46,0
876,17.68,-8.25,-7.47,0
877,17.69,-8.32,2.24,0
878,17.7,-1.47,-1.27,0
879,17.72,7.15,-12.23,0
880,17.73,2.77,-21.25,0
881,17.75,-9.95,-17.54,0
882,17.76,-14.61,-2.4,0
883,17.77,-13.41,2.85,0
884,17.78,-14.57,-9.81,0
885,17.8,-13.01,-16.48,0
886,17.81,-4.88,-3.55,0
887,17.82,3.88,6.6,0
888,17.84,6.18,1.06,0
889,17.85,1.03,-2.0,0
890,17.86,-6.73,3.53,0
891,17.88,-13.23,4.26,0
892,17.89,-15.32,0.82,0
893,17.9,-11.1,2.35,0
894,17.92,-2.05,7.12,0
895,17.93,8.41,10.08,0
896,17.94,11.59,11.46,0
897,17.96,3.19,10.42,0
898,17.97,-1.74,5.59,0
899,17.99,7.68,4.01,0
900,18.0,16.63,10.4,0
901,18.01,11.37,14.93,0
902,18.03,1.51,12.92,0
903,18.04,-1.93,15.8,0
904,18.05,-3.35,24.13,0
905,18.07,-7.14,24.87,0
906,18.08,-12.04,18.19,0
907,18.09,-13.77,12.29,0
908,18.11,-6.71,10.52,0
909,18.12,3.78,14.04,0
910,18.13,5.78,20.94,0
911,18.15,-2.82,28.57,0
912,18.16,-13.03,30.98,0
913,18.17,-13.97,27.05,0
914,18.19,-3.16,23.97,0
915,18.2,8.6,6.81,0
916,18.21,12.01,-34.28,0
917,18.23,12.87,-66.4,0
918,18.24,22.52,-75.62,0
919,18.25,40.77,-91.29,0
920,18.27,51.76,-120.22,0
921,18.28,40.39,-139.13,0
922,18.29,16.92,-145.14,0
923,18.31,3.58,-152.29,0
924,18.32,0.65,-154.15,0
925,18.33,-9.89,-133.5,0
926,18.34,-33.18,-89.94,0
927,18.36,-52.2,-36.58,0
928,18.37,-53.48,10.71,0
929,18.38,-43.53,42.85,0
930,18.4,-30.5,69.9,0
931,18.41,-17.47,104.78,0
932,18.42,-11.25,140.34,0
933,18.44,-11.14,166.02,0
934,18.45,-6.54,185.89,0
935,18.46,-0.61,198.12,0
936,18.48,-1.54,197.25,0
937,18.49,0.15,194.03,0
938,18.5,5.2,192.53,0
939,18.52,1.71,183.67,0
940,18.53,-4.74,170.45,0
941,18.54,-5.67,160.18,0
942,18.56,-6.22,146.51,0
943,18.57,-9.74,122.21,0
944,18.58,-11.55,100.48,0
945,18.6,-8.03,98.67,0
946,18.61,-6.6,104.76,0
947,18.63,-11.7,95.43,0
948,18.64,-13.47,75.19,0
949,18.65,-3.91,58.76,0
950,18.67,6.89,45.71,0
951,18.68,4.28,34.08,0
952,18.69,-4.19,25.26,0
953,18.71,-1.14,16.72,0
954,18.72,10.69,6.22,0
955,18.73,19.77,-4.98,0
956,18.75,21.41,-8.52,0
957,18.76,18.05,0.22,0
958,18.77,12.58,5.14,0
959,18.79,-4.0,-4.03,0
960,18.8,-31.5,-12.95,0
961,18.81,-37.38,-18.55,0
962,18.83,-5.67,-30.16,0
963,18.84,22.32,-38.26,0
964,18.85,11.86,-38.58,0
965,18.87,-11.31,-45.22,0
966,18.88,-8.96,-52.11,0
967,18.89,17.52,-43.68,0
968,18.91,34.97,-30.35,0
969,18.92,23.88,-31.07,0
970,18.93,6.97,-47.18,0
971,18.95,7.72,-60.2,0
972,18.96,12.65,-57.31,0
973,18.97,7.66,-52.56,0
974,18.98,0.37,-54.35,0
975,19.0,-2.73,-49.03,0
976,19.01,-3.88,-39.39,0
977,19.02,-3.4,-44.46,0
978,19.04,4.76,-56.8,0
979,19.05,13.29,-55.06,0
980,19.06,9.78,-45.65,0
981,19.08,5.21,-47.11,0
982,19.09,9.08,-56.4,0
983,19.1,10.88,-58.62,0
984,19.12,4.32,-53.22,0
985,19.13,-4.92,-53.13,0
986,19.14,-10.68,-58.08,0
987,19.16,-7.3,-52.9,0
988,19.17,7.42,-40.32,0
989,19.18,18.8,-39.03,0
990,19.2,12.99,-45.0,0
991,19.21,3.52,-42.7,0
992,19.22,10.74,-43.31,0
993,19.24,27.91,-55.24,0
994,19.25,26.0,-54.84,0
995,19.265,4.79,-35.58,0
996,19.28,-2.71,-24.18,0
997,19.29,4.46,-28.6,0
998,19.31,-0.57,-34.8,0
999,19.32,-16.07,-36.58,0
1000,19.33,-14.09,-33.04,0
1001,19.35,15.48,-26.69,0
1002,19.36,30.83,-26.52,0
1003,19.37,-5.51,-31.16,0
1004,19.39,-42.65,-24.52,0
1005,19.4,-19.77,-7.29,0
1006,19.41,20.13,-3.32,0
1007,19.43,15.43,-16.33,0
1008,19.44,-5.25,-26.27,0
1009,19.45,-0.62,-23.0,0
1010,19.47,8.48,-8.89,0
1011,19.48,7.73,5.92,0
1012,19.49,13.18,7.25,0
1013,19.51,17.65,-2.96,0
1014,19.52,9.02,-10.4,0
1015,19.53,1.17,-14.0,0
1016,19.55,4.09,-15.92,0
1017,19.56,7.89,-5.45,0
1018,19.57,3.55,13.42,0
1019,19.59,-5.44,20.6,0
1020,19.6,-12.06,14.09,0
1021,19.61,-10.29,3.71,0
1022,19.62,0.13,-5.58,0
1023,19.64,5.44,-9.11,0
1024,19.65,1.0,-4.81,0
1025,19.67,4.43,-0.45,0
1026,19.68,14.75,0.24,0
1027,19.69,8.45,5.39,0
1028,19.7,-10.51,13.61,0
1029,19.72,-16.19,12.76,0
1030,19.73,-7.11,2.48,0
1031,19.75,-0.85,-4.5,0
1032,19.76,-0.47,2.28,0
1033,19.77,2.52,16.32,0
1034,19.78,5.67,22.5,0
1035,19.8,-1.01,16.98,0
1036,19.81,-15.85,10.05,0
1037,19.82,-24.59,13.95,0
1038,19.84,-16.86,23.81,0
1039,19.85,0.69,24.76,0
1040,19.86,8.92,20.18,0
1041,19.88,-2.18,19.88,0
1042,19.89,-20.31,15.65,0
1043,19.9,-24.0,0.08,0
1044,19.92,-12.54,-13.04,0
1045,19.93,-7.19,-3.67,0
1046,19.95,-11.4,22.75,0
1047,19.96,-11.27,38.02,0
1048,19.97,-5.59,34.97,0
1049,19.99,-2.05,29.36,0
1050,20.0,-1.24,22.62,0
1051,20.01,1.89,11.64,0
1052,20.03,0.96,11.17,0
1053,20.04,-11.85,25.41,0
1054,20.05,-18.69,33.93,0
1055,20.07,-4.38,27.09,0
1056,20.08,10.72,16.07,0
1057,20.09,9.43,9.49,0
1058,20.11,4.16,7.2,0
1059,20.12,3.02,8.95,0
1060,20.13,0.65,13.78,0
1061,20.15,-2.64,20.79,0
1062,20.16,-5.89,29.06,0
1063,20.17,-8.62,29.44,0
1064,20.19,-7.16,15.43,0
1065,20.2,-3.42,-0.67,0
1066,20.21,-5.35,-1.81,0
1067,20.23,-9.06,8.67,0
1068,20.24,-2.61,16.06,0
1069,20.25,2.44,16.45,0
1070,20.26,-9.37,11.13,0
1071,20.28,-16.79,4.19,0
1072,20.29,-2.84,9.31,0
1073,20.3,10.73,22.82,0
1074,20.32,7.11,33.23,0
1075,20.33,-4.79,79.63,0
1076,20.34,-7.91,188.12,0
1077,20.36,-1.79,282.53,0
1078,20.37,-9.48,303.93,0
1079,20.38,-24.49,281.66,0
1080,20.4,-18.99,223.76,0
1081,20.41,-6.25,153.19,0
1082,20.42,-3.07,120.69,0
1083,20.44,2.13,79.7,0
1084,20.45,7.33,-18.83,0
1085,20.46,4.79,-115.08,0
1086,20.48,3.7,-162.21,0
1087,20.49,7.7,-182.98,0
1088,20.5,11.16,-190.83,0
1089,20.52,11.55,-178.7,0
1090,20.53,7.41,-161.35,0
1091,20.54,5.29,-156.65,0
1092,20.56,5.26,-154.04,0
1093,20.57,-4.25,-140.65,0
1094,20.59,-8.4,-125.68,0
1095,20.6,10.63,-122.16,0
1096,20.61,24.42,-121.26,0
1097,20.63,11.29,-107.17,0
1098,20.64,2.91,-86.74,0
1099,20.65,16.75,-76.15,0
1100,20.67,24.83,-78.72,0
1101,20.68,19.99,-84.61,0
1102,20.69,21.23,-80.27,0
1103,20.71,25.9,-63.26,0
1104,20.72,21.44,-46.41,0
1105,20.73,7.99,-40.19,0
1106,20.75,-4.01,-40.33,0
1107,20.76,-1.81,-38.41,0
1108,20.77,13.07,-35.91,0
1109,20.79,24.57,-37.86,0
1110,20.8,18.51,-37.5,0
1111,20.81,-1.99,-26.27,0
1112,20.83,-12.88,-14.25,0
1113,20.84,-0.2,-13.97,0
1114,20.85,12.59,-17.22,0
1115,20.87,1.78,-8.92,0
1116,20.88,-17.3,10.07,0
1117,20.89,-26.16,22.46,0
1118,20.9,-25.37,18.44,0
1119,20.92,-12.59,10.94,0
1120,20.93,7.08,11.52,0
1121,20.94,14.91,17.26,0
1122,20.96,5.38,21.98,0
1123,20.97,-8.53,23.64,0
1124,20.98,-13.62,26.4,0
1125,21.0,-9.18,29.34,0
1126,21.01,-2.33,27.35,0
1127,21.02,0.5,25.94,0
1128,21.04,-3.89,31.03,0
1129,21.05,-9.88,38.6,0
1130,21.06,-11.08,37.17,0
1131,21.08,-11.57,26.79,0
1132,21.09,-10.08,28.16,0
1133,21.1,0.01,41.55,0
1134,21.12,7.53,43.37,0
1135,21.13,-2.94,38.02,0
1136,21.14,-17.52,39.02,0
1137,21.16,-11.81,38.37,0
1138,21.17,8.09,33.06,0
1139,21.18,19.02,30.12,0
1140,21.2,12.96,30.9,0
1141,21.21,-2.82,33.79,0
1142,21.23,-14.7,33.78,0
1143,21.24,-16.87,31.75,0
1144,21.25,-17.77,35.09,0
1145,21.27,-17.85,36.47,0
1146,21.28,-8.68,29.17,0
1147,21.29,1.78,24.57,0
1148,21.31,-0.7,25.89,0
1149,21.32,-7.11,24.93,0
1150,21.33,-0.53,25.03,0
1151,21.35,6.17,28.67,0
1152,21.36,-5.01,28.08,0
1153,21.37,-14.03,26.9,0
1154,21.39,-0.02,26.84,0
1155,21.4,16.62,17.1,0
1156,21.41,12.22,8.89,0
1157,21.43,-1.38,17.75,0
1158,21.44,-4.72,26.0,0
1159,21.45,-4.51,19.7,0
1160,21.47,-7.01,11.81,0
1161,21.48,0.82,7.33,0
1162,21.49,12.6,3.16,0
1163,21.51,7.4,6.11,0
1164,21.52,-5.37,14.78,0
1165,21.53,-5.3,14.65,0
1166,21.54,2.03,10.25,0
1167,21.56,2.06,14.47,0
1168,21.57,-3.75,14.06,0
1169,21.58,-2.97,-0.01,0
1170,21.6,7.29,-4.03,0
1171,21.61,13.81,10.52,0
1172,21.62,8.71,14.73,0
1173,21.64,0.84,4.95,0
1174,21.65,-4.98,12.17,0
1175,21.67,-7.3,29.71,0
1176,21.68,1.75,25.82,0
1177,21.69,15.02,11.91,0
1178,21.7,12.54,6.44,0
1179,21.72,-2.76,-6.63,0
1180,21.73,-6.71,-23.47,0
1181,21.75,7.91,-14.82,0
1182,21.76,18.06,9.66,0
1183,21.77,6.25,17.05,0
1184,21.78,-6.92,3.0,0
1185,21.8,0.59,-14.93,0
1186,21.81,9.44,-19.48,0
1187,21.82,-4.49,-9.79,0
1188,21.84,-21.53,-2.32,0
1189,21.85,-13.97,-3.57,0
1190,21.87,4.63,-7.09,0
1191,21.88,6.15,-9.99,0
1192,21.89,-6.35,-6.91,0
1193,21.91,-8.24,0.59,0
1194,21.92,4.63,-3.77,0
1195,21.93,12.37,-14.74,0
1196,21.95,5.14,-9.35,0
1197,21.96,-2.22,-2.35,0
1198,21.97,3.15,-18.85,0
1199,21.99,9.6,-33.87,0
1200,22.0,11.77,-25.02,0
1201,22.01,18.73,-18.5,0
1202,22.03,20.0,-25.33,0
1203,22.04,5.8,-22.54,0
1204,22.05,-6.73,-12.19,0
1205,22.07,-9.24,-10.49,0
1206,22.08,-11.59,-9.1,0
1207,22.09,-13.48,-5.37,0
1208,22.11,-8.28,-11.92,0
1209,22.12,0.14,-20.47,0
1210,22.13,2.31,-19.35,0
1211,22.15,0.12,-19.55,0
1212,22.16,2.13,-29.86,0
1213,22.17,4.35,-35.08,0
1214,22.18,1.63,-5.74,0
1215,22.2,6.64,67.97,0
1216,22.21,26.36,137.82,0
1217,22.22,36.17,157.61,0
1218,22.24,18.04,153.08,0
1219,22.25,-12.7,139.54,0
1220,22.26,-41.04,52.23,0
1221,22.28,-42.6,-105.86,0
1222,22.29,-4.09,-136.89,0
1223,22.3,10.24,40.9,0
1224,22.32,-31.13,209.01,0
1225,22.33,-39.12,234.63,0
1226,22.34,17.61,197.24,0
1227,22.36,42.01,157.31,0
1228,22.37,-0.38,103.8,0
1229,22.38,-30.85,35.99,0
1230,22.4,-11.49,-29.67,0
1231,22.41,15.71,-105.61,0
1232,22.42,22.58,-149.88,0
1233,22.44,17.6,-107.09,0
1234,22.45,4.97,-79.27,0
1235,22.46,-3.13,-135.48,0
1236,22.48,10.27,-167.29,0
1237,22.49,18.96,-141.09,0
1238,22.5,3.92,-131.94,0
1239,22.52,-7.73,-125.87,0
1240,22.53,-9.7,-100.15,0
1241,22.55,-4.78,-118.91,0
1242,22.56,25.78,-154.64,0
1243,22.57,58.67,-124.79,0
1244,22.59,48.1,-64.5,0
1245,22.6,11.75,-26.11,0
1246,22.61,-8.61,-29.29,0
1247,22.63,-12.33,-45.73,0
1248,22.64,-16.53,-26.42,0
1249,22.65,-22.92,-33.14,0
1250,22.67,-21.61,-76.27,0
1251,22.68,-11.05,-64.64,0
1252,22.69,-2.86,-21.72,0
1253,22.71,-7.28,-7.29,0
1254,22.72,-11.69,-28.11,0
1255,22.73,1.25,-89.24,0
1256,22.75,14.01,-135.81,0
1257,22.76,1.48,-118.25,0
1258,22.77,-24.08,-85.27,0
1259,22.79,-37.19,-48.39,0
1260,22.8,-33.2,13.9,0
1261,22.81,-22.87,33.1,0
1262,22.82,-20.88,-37.22,0
1263,22.84,-31.33,-112.94,0
1264,22.85,-29.3,-92.3,0
1265,22.86,6.72,0.77,0
1266,22.88,43.74,48.02,0
1267,22.89,35.62,15.71,0
1268,22.9,4.77,1.33,0
1269,22.92,-5.48,45.85,0
1270,22.93,-14.66,44.71,0
1271,22.94,-37.59,-47.81,0
1272,22.96,-31.81,-103.98,0
1273,22.97,11.34,-43.27,0
1274,22.98,38.06,30.3,0
1275,23.0,23.6,19.26,0
1276,23.01,-1.19,-29.67,0
1277,23.02,-8.61,-27.17,0
1278,23.04,-1.31,27.55,0
1279,23.05,8.46,64.67,0
1280,23.06,13.28,73.06,0
1281,23.08,5.97,74.86,0
1282,23.09,-11.25,29.81,0
1283,23.1,-19.06,-50.97,0
1284,23.12,-10.4,-58.34,0
1285,23.13,5.45,9.43,0
1286,23.14,23.8,41.92,0
1287,23.16,28.05,36.74,0
1288,23.17,9.65,56.29,0
1289,23.19,-3.92,79.42,0
1290,23.2,-5.94,73.95,0
1291,23.21,-18.58,44.48,0
1292,23.23,-27.39,3.32,0
1293,23.24,-5.14,-4.6,0
1294,23.25,17.38,18.84,0
1295,23.27,-3.85,14.58,0
1296,23.28,-32.55,14.77,0
1297,23.29,-18.25,43.62,0
1298,23.31,8.96,36.16,0
1299,23.32,11.28,7.81,0
1300,23.33,3.39,15.16,0
1301,23.35,4.24,39.75,0
1302,23.36,7.92,69.21,0
1303,23.37,5.39,93.8,0
1304,23.39,2.46,62.1,0
1305,23.4,1.42,10.64,0
1306,23.41,3.66,21.33,0
1307,23.43,18.05,21.84,0
1308,23.44,35.43,-29.17,0
1309,23.45,34.84,-0.66,0
1310,23.46,9.65,98.57,0
1311,23.48,-16.22,106.18,0
1312,23.49,-11.34,27.47,0
1313,23.5,9.1,-11.76,0
1314,23.52,10.47,24.65,0
1315,23.53,-5.98,79.02,0
1316,23.54,-14.41,97.18,0
1317,23.56,-4.41,87.08,0
1318,23.57,1.49,72.83,0
1319,23.58,-9.74,50.61,0
1320,23.6,-15.26,21.82,0
1321,23.61,-5.02,25.78,0
1322,23.62,-0.9,68.77,0
1323,23.64,-9.66,91.47,0
1324,23.65,-9.78,73.31,0
1325,23.67,2.83,47.9,0
1326,23.68,11.37,59.65,0
1327,23.69,9.56,106.26,0
1328,23.7,-2.27,81.08,0
1329,23.72,-8.68,-23.64,0
1330,23.73,7.72,-38.71,0
1331,23.75,20.73,53.94,0
1332,23.76,4.37,89.99,0
1333,23.77,-8.65,28.25,0
1334,23.78,7.11,-15.98,0
1335,23.8,18.01,22.16,0
1336,23.81,1.5,63.57,0
1337,23.83,-10.84,38.76,0
1338,23.84,-3.41,-13.43,0
1339,23.85,0.98,-58.62,0
1340,23.87,2.87,-88.1,0
1341,23.88,11.34,-73.77,0
1342,23.89,6.32,-33.54,0
1343,23.91,-10.31,-29.26,0
1344,23.92,-4.75,-49.72,0
1345,23.93,21.3,-34.21,0
1346,23.95,30.51,8.63,0
1347,23.96,11.89,36.58,0
1348,23.97,-13.18,39.71,0
1349,23.99,-27.02,16.57,0
1350,24.0,-17.89,-20.64,0
1351,24.01,8.86,-27.23,0
1352,24.03,15.69,12.24,0
1353,24.04,3.78,29.39,0
1354,24.05,12.41,-15.8,0
1355,24.07,22.45,-66.31,0
1356,24.08,7.61,-78.54,0
1357,24.09,2.39,-52.35,0
1358,24.1,17.96,-17.31,0
1359,24.12,23.96,-12.16,0
1360,24.13,18.11,-14.8,0
1361,24.14,8.4,-13.87,0
1362,24.16,-12.09,-25.97,0
1363,24.17,-31.23,-18.59,0
1364,24.18,-27.8,-1.53,0
1365,24.2,-11.52,-24.99,0
1366,24.21,-5.94,-51.44,0
1367,24.22,-7.33,-28.11,0
1368,24.24,-0.04,8.83,0
1369,24.25,7.09,7.31,0
1370,24.26,-4.02,-21.14,0
1371,24.28,-20.46,-26.31,0
1372,24.29,-18.8,-1.46,0
1373,24.3,-10.19,-6.06,0
1374,24.32,-9.64,-54.32,0
1375,24.33,-3.15,-96.56,0
1376,24.34,13.27,-138.63,0
1377,24.36,20.39,-201.44,0
1378,24.37,14.21,-243.88,0
1379,24.38,2.39,-239.72,0
1380,24.4,-12.63,-203.08,0
1381,24.41,-21.2,-146.96,0
1382,24.42,-19.04,-91.5,0
1383,24.44,-16.03,-49.35,0
1384,24.45,-13.22,-5.82,0
1385,24.47,-4.27,37.64,0
1386,24.48,3.9,54.05,0
1387,24.49,0.32,46.42,0
1388,24.51,-8.06,42.66,0
1389,24.52,-9.8,57.06,0
1390,24.53,-6.9,84.99,0
1391,24.55,-1.95,98.94,0
1392,24.56,3.63,76.39,0
1393,24.57,6.88,43.71,0
1394,24.59,11.73,37.86,0
1395,24.6,16.35,51.92,0
1396,24.61,9.12,56.16,0
1397,24.63,-6.32,45.78,0
1398,24.64,-13.21,43.36,0
1399,24.65,-10.05,57.52,0
1400,24.67,-2.79,70.47,0
1401,24.68,6.64,72.85,0
1402,24.69,6.48,70.82,0
1403,24.71,-6.31,69.08,0
1404,24.72,-11.73,69.55,0
1405,24.73,-10.34,73.8,0
1406,24.75,-21.5,79.88,0
1407,24.76,-29.66,80.84,0
1408,24.77,-11.86,71.08,0
1409,24.78,7.1,54.7,0
1410,24.8,-0.5,42.38,0
1411,24.81,-11.49,45.29,0
1412,24.82,0.5,60.76,0
1413,24.84,13.97,65.98,0
1414,24.85,4.09,52.43,0
1415,24.86,-8.99,41.2,0
1416,24.88,-2.4,41.94,0
1417,24.89,10.8,41.81,0
1418,24.9,10.98,39.94,0
1419,24.92,-1.33,39.1,0
1420,24.93,-14.83,28.44,0
1421,24.94,-19.1,12.26,0
1422,24.96,-10.64,8.33,0
1423,24.97,5.63,14.82,0
1424,24.98,17.34,18.45,0
1425,25.0,17.46,17.58,0
1426,25.01,10.84,13.84,0
1427,25.02,3.18,2.84,0
1428,25.04,1.81,-11.71,0
1429,25.05,7.17,-16.6,0
1430,25.06,8.51,-13.55,0
1431,25.08,4.13,-15.15,0
1432,25.09,4.14,-18.91,0
1433,25.1,7.26,-17.32,0
1434,25.12,0.74,-16.78,0
1435,25.13,-9.87,-24.61,0
1436,25.15,-8.44,-41.79,0
1437,25.16,2.12,-54.18,0
1438,25.17,11.06,-40.55,0
1439,25.19,11.31,-18.1,0
1440,25.2,3.53,-20.16,0
1441,25.21,-1.33,-36.16,0
1442,25.23,2.65,-39.99,0
1443,25.24,9.65,-33.22,0
1444,25.25,9.06,-30.53,0
1445,25.27,1.05,-39.37,0
1446,25.28,0.98,-49.3,0
1447,25.29,7.66,-43.83,0
1448,25.31,4.31,-34.99,0
1449,25.32,-0.57,-41.32,0
1450,25.33,8.2,-45.73,0
1451,25.35,13.87,-29.94,0
1452,25.36,1.16,-10.67,0
1453,25.37,-11.11,-11.29,0
1454,25.38,-2.47,-28.51,0
1455,25.4,15.87,-40.04,0
1456,25.41,17.18,-37.77,0
1457,25.42,0.8,-34.24,0
1458,25.44,-9.52,-31.76,0
1459,25.45,-6.03,-22.87,0
1460,25.46,-0.14,-17.23,0
1461,25.48,1.31,-24.35,0
1462,25.49,0.16,-31.57,0
1463,25.5,-0.89,-34.06,0
1464,25.52,0.27,-40.55,0
1465,25.53,6.53,-43.95,0
1466,25.54,10.39,-32.88,0
1467,25.56,5.68,-13.47,0
1468,25.57,2.73,-5.15,0
1469,25.58,4.65,-17.91,0
1470,25.6,3.19,-32.21,0
1471,25.61,-1.55,-28.59,0
1472,25.62,-5.01,-20.14,0
1473,25.64,-9.45,-21.47,0
1474,25.65,-14.74,-19.49,0
1475,25.67,-10.56,-7.11,0
1476,25.68,4.2,-1.81,0
1477,25.69,15.22,-5.56,0
1478,25.7,14.18,-8.71,0
1479,25.72,8.75,-16.59,0
1480,25.73,10.0,-23.85,0
1481,25.75,10.66,-19.59,0
1482,25.76,-2.6,-14.42,0
1483,25.77,-17.5,-17.61,0
1484,25.79,-15.51,-21.66,0
1485,25.8,-5.12,-19.66,0
1486,25.81,-4.84,-15.66,0
1487,25.83,-7.2,-13.86,0
1488,25.84,3.16,-10.25,0
1489,25.85,9.94,-1.36,0
1490,25.87,-3.03,4.3,0
1491,25.88,-19.67,1.1,0
1492,25.89,-17.88,0.9,0
1493,25.91,3.07,8.16,0
1494,25.92,19.22,10.49,0
1495,25.93,10.96,6.79,0
1496,25.95,-8.6,8.81,0
1497,25.96,-14.54,12.56,0
1498,25.97,-3.39,7.84,0
1499,25.99,9.35,4.2,0
1500,26.0,13.16,9.97,0
1501,26.01,8.32,14.74,0
1502,26.02,-3.19,11.8,0
1503,26.04,-13.78,8.88,0
1504,26.05,-12.55,10.48,0
1505,26.06,-4.97,10.41,0
1506,26.08,-0.61,7.62,0
1507,26.09,5.93,7.39,0
1508,26.1,13.64,6.96,0
1509,26.12,12.96,4.56,0
1510,26.13,8.09,6.97,0
1511,26.14,3.17,9.18,0
1512,26.16,-3.01,6.24,0
1513,26.17,-3.13,12.04,0
1514,26.18,5.9,22.55,0
1515,26.2,10.29,12.83,0
1516,26.21,2.09,-16.81,0
1517,26.22,-2.3,-51.03,0
1518,26.24,10.01,-86.66,0
1519,26.25,23.08,-113.4,0
1520,26.26,24.22,-119.27,0
1521,26.28,24.83,-118.81,0
1522,26.29,28.76,-125.58,0
1523,26.3,27.15,-125.81,0
1524,26.32,24.91,-110.44,0
1525,26.33,24.07,-92.65,0
1526,26.34,11.03,-80.61,0
1527,26.36,-14.44,-67.24,0
1528,26.37,-28.99,-45.53,0
1529,26.38,-22.97,-9.63,0
1530,26.4,-17.94,34.51,0
1531,26.41,-27.88,60.72,0
1532,26.43,-45.15,66.44,0
1533,26.44,-49.31,82.14,0
1534,26.45,-23.11,115.4,0
1535,26.47,5.99,147.63,0
1536,26.48,1.06,168.44,0
1537,26.49,-15.12,173.08,0
1538,26.51,-7.88,158.91,0
1539,26.52,6.03,139.67,0
1540,26.53,5.25,135.23,0
1541,26.55,-0.66,146.7,0
1542,26.56,-6.53,159.39,0
1543,26.57,-14.2,160.21,0
1544,26.59,-23.54,149.39,0
1545,26.6,-34.06,139.21,0
1546,26.61,-37.04,136.42,0
1547,26.63,-26.93,133.93,0
1548,26.64,-10.83,116.57,0
1549,26.65,-2.86,88.11,0
1550,26.67,-9.76,77.54,0
1551,26.68,-19.55,83.63,0
1552,26.69,-16.07,74.17,0
1553,26.7,0.17,47.34,0
1554,26.72,7.2,27.48,0
1555,26.73,-6.13,23.63,0
1556,26.75,-16.66,20.69,0
1557,26.76,-9.96,6.92,0
1558,26.77,-2.8,-2.93,0
1559,26.78,-3.04,1.95,0
1560,26.8,0.43,6.36,0
1561,26.81,7.66,-2.76,0
1562,26.82,6.81,-17.97,0
1563,26.84,3.16,-26.63,0
1564,26.85,14.21,-27.07,0
1565,26.86,28.09,-23.85,0
1566,26.88,23.96,-19.3,0
1567,26.89,13.29,-19.94,0
1568,26.9,3.49,-33.16,0
1569,26.92,-10.4,-47.95,0
1570,26.93,-12.4,-45.67,0
1571,26.94,-2.29,-31.69,0
1572,26.96,-6.98,-26.87,0
1573,26.97,-18.96,-37.48,0
1574,26.98,-10.41,-51.24,0
1575,27.0,8.12,-55.68,0
1576,27.01,12.97,-54.96,0
1577,27.02,11.46,-56.8,0
1578,27.04,20.16,-59.13,0
1579,27.05,30.59,-63.03,0
1580,27.06,26.72,-68.66,0
1581,27.08,10.54,-65.42,0
1582,27.09,-2.11,-50.88,0
1583,27.11,-3.01,-41.38,0
1584,27.12,-0.88,-47.4,0
1585,27.13,-0.13,-55.22,0
1586,27.15,3.13,-53.49,0
1587,27.16,5.22,-53.56,0
1588,27.17,7.49,-60.02,0
1589,27.19,14.83,-60.18,0
1590,27.2,17.14,-51.59,0
1591,27.21,7.29,-45.56,0
1592,27.23,-2.65,-45.74,0
1593,27.24,-3.94,-47.7,0
1594,27.25,-3.11,-49.36,0
1595,27.27,-4.97,-46.79,0
1596,27.28,-3.44,-37.17,0
1597,27.29,3.36,-31.31,0
1598,27.3,5.81,-39.84,0
1599,27.32,3.65,-47.26,0
1600,27.33,9.24,-34.88,0
1601,27.34,22.55,-18.84,0
1602,27.36,27.94,-17.68,0
1603,27.37,17.52,-21.73,0
1604,27.38,2.08,-25.16,0
1605,27.4,-2.86,-33.28,0
1606,27.41,5.2,-38.18,0
1607,27.42,14.07,-31.41,0
1608,27.44,13.45,-20.82,0
1609,27.45,2.7,-12.15,0
1610,27.46,-10.59,-4.34,0
1611,27.48,-7.68,-4.41,0
1612,27.49,13.34,-12.78,0
1613,27.5,19.23,-15.95,0
1614,27.52,-1.67,-10.99,0
1615,27.53,-10.79,-10.71,0
1616,27.54,7.51,-19.33,0
1617,27.56,16.02,-23.79,0
1618,27.57,1.68,-14.67,0
1619,27.58,-6.98,1.06,0
1620,27.6,-7.92,7.14,0
1621,27.61,-19.1,-0.77,0
1622,27.62,-32.22,-6.96,0
1623,27.64,-27.75,-4.05,0
1624,27.65,-4.53,-0.06,0
1625,27.67,12.84,5.1,0
1626,27.68,6.89,13.91,0
1627,27.69,-3.07,17.18,0
1628,27.7,-1.75,11.67,0
1629,27.72,2.35,10.2,0
1630,27.73,7.37,16.09,0
1631,27.75,12.17,15.42,0
1632,27.76,2.86,10.2,0
1633,27.77,-13.91,15.08,0
1634,27.79,-11.72,20.04,0
1635,27.8,2.0,10.88,0
1636,27.81,0.41,9.22,0
1637,27.83,-10.75,30.87,0
1638,27.84,-16.61,45.23,0
1639,27.85,-16.45,31.18,0
1640,27.87,-9.55,14.19,0
1641,27.88,2.93,16.02,0
1642,27.89,13.72,23.85,0
1643,27.91,13.03,22.32,0
1644,27.92,0.24,19.3,0
1645,27.93,-6.13,23.08,0
1646,27.94,5.78,23.18,0
1647,27.96,16.83,15.28,0
1648,27.97,5.21,7.32,0
1649,27.98,-14.19,3.9,0
1650,28.0,-11.25,8.55,0
1651,28.01,6.78,18.58,0
1652,28.02,15.24,25.73,0
1653,28.04,12.91,20.04,0
1654,28.05,1.35,0.3,0
1655,28.06,-12.92,-3.21,0
1656,28.08,-8.48,20.44,0
1657,28.09,9.69,30.64,0
1658,28.1,13.99,18.53,0
1659,28.12,0.96,19.0,0
1660,28.13,-9.3,33.86,0
1661,28.14,-4.58,37.72,0
1662,28.16,4.85,43.51,0
1663,28.17,2.42,94.68,0
1664,28.18,-14.84,183.62,0
1665,28.2,-29.49,253.59,0
1666,28.21,-19.73,283.16,0
1667,28.22,-4.73,288.12,0
1668,28.24,-23.07,262.24,0
1669,28.25,-52.23,193.84,0
1670,28.26,-51.29,116.57,0
1671,28.28,-42.31,64.83,0
1672,28.29,-37.17,10.28,0
1673,28.3,0.64,-73.9,0
1674,28.32,57.66,-144.68,0
1675,28.33,71.36,-169.73,0
1676,28.34,37.67,-180.55,0
1677,28.36,15.2,-187.42,0
1678,28.37,22.61,-170.74,0
1679,28.39,20.35,-149.56,0
1680,28.4,-0.07,-143.21,0
1681,28.41,-5.67,-138.61,0
1682,28.43,6.53,-133.23,0
1683,28.44,12.38,-128.62,0
1684,28.45,7.6,-111.68,0
1685,28.47,6.5,-80.43,0
1686,28.48,9.68,-55.39,0
1687,28.49,4.06,-56.91,0
1688,28.51,-8.21,-78.29,0
1689,28.52,-11.9,-88.63,0
1690,28.53,-9.21,-75.66,0
1691,28.55,-2.2,-66.73,0
1692,28.56,17.65,-75.24,0
1693,28.57,26.86,-73.85,0
1694,28.58,2.25,-53.6,0
1695,28.6,-22.99,-40.26,0
1696,28.61,-14.05,-40.87,0
1697,28.62,10.53,-35.71,0
1698,28.64,14.21,-20.7,0
1699,28.65,-3.1,-8.81,0
1700,28.67,-14.74,-3.58,0
1701,28.68,-13.19,-6.35,0
1702,28.69,-7.16,-12.99,0
1703,28.7,-4.28,-4.93,0
1704,28.72,-5.97,13.91,0
1705,28.73,-0.76,16.75,0
1706,28.75,10.23,5.85,0
1707,28.76,7.93,0.46,0
1708,28.77,-7.06,1.55,0
1709,28.78,-15.99,8.53,0
1710,28.8,-11.59,20.95,0
1711,28.81,3.23,21.32,0
1712,28.82,18.62,9.62,0
1713,28.84,16.32,12.81,0
1714,28.85,-9.41,31.76,0
1715,28.86,-31.89,37.77,0
1716,28.88,-22.85,30.96,0
1717,28.89,0.14,35.18,0
1718,28.9,3.74,43.08,0
1719,28.92,-1.34,33.48,0
1720,28.93,6.24,21.99,0
1721,28.94,14.14,32.82,0
1722,28.96,9.61,50.63,0
1723,28.97,0.74,48.08,0
1724,28.98,-5.36,37.25,0
1725,29.0,-8.2,44.0,0
1726,29.01,-6.35,55.12,0
1727,29.03,0.49,49.43,0
1728,29.04,6.36,38.83,0
1729,29.05,3.3,32.55,0
1730,29.07,-2.68,25.96,0
1731,29.08,-0.09,25.41,0
1732,29.09,4.48,32.24,0
1733,29.11,4.69,30.33,0
1734,29.12,10.75,18.24,0
1735,29.13,16.77,17.98,0
1736,29.15,-0.15,33.15,0
1737,29.16,-25.8,38.69,0
1738,29.17,-22.77,31.09,0
1739,29.19,-1.48,30.3,0
1740,29.2,2.81,35.38,0
1741,29.21,-3.75,32.75,0
1742,29.22,1.61,26.26,0
1743,29.24,9.31,25.77,0
1744,29.25,0.85,25.76,0
1745,29.26,-12.11,16.44,0
1746,29.28,-9.83,6.39,0
1747,29.29,-1.1,9.47,0
1748,29.3,-2.43,21.44,0
1749,29.32,-4.74,28.82,0
1750,29.33,3.32,27.55,0
1751,29.34,11.58,21.27,0
1752,29.36,10.02,13.9,0
1753,29.37,4.51,13.1,0
1754,29.38,2.57,17.56,0
1755,29.4,0.84,11.22,0
1756,29.41,-2.27,0.8,0
1757,29.42,-2.16,10.08,0
1758,29.44,-2.99,24.75,0
1759,29.45,-6.79,19.27,0
1760,29.46,-4.39,7.42,0
1761,29.48,4.44,6.1,0
1762,29.49,16.93,7.04,0
1763,29.5,33.03,4.81,0
1764,29.52,39.21,-1.11,0
1765,29.53,25.54,-11.5,0
1766,29.54,-0.51,-18.87,0
1767,29.56,-28.13,-18.94,0
1768,29.57,-39.48,-16.05,0
1769,29.58,-19.29,-16.43,0
1770,29.6,14.85,-17.02,0
1771,29.61,29.35,-8.69,0
1772,29.62,19.32,4.46,0
1773,29.64,-0.09,6.02,0
1774,29.65,-16.68,-16.83,0
1775,29.67,-16.14,-43.01,0
1776,29.68,-1.38,-33.94,0
1777,29.69,4.19,-2.87,0
1778,29.71,-1.98,7.1,0
1779,29.72,-2.84,-5.37,0
1780,29.73,2.28,-17.45,0
1781,29.75,2.48,-22.98,0
1782,29.76,-2.7,-22.95,0
1783,29.77,-6.41,-17.1,0
1784,29.79,-5.37,-13.53,0
1785,29.8,-0.85,-12.92,0
1786,29.81,1.94,-6.36,0
1787,29.83,-1.92,-4.28,0
1788,29.84,-8.79,-14.5,0
1789,29.85,-10.61,-15.79,0
1790,29.86,-6.4,-6.11,0
1791,29.88,0.95,-11.78,0
1792,29.89,11.14,-28.75,0
1793,29.9,16.55,-31.74,0
1794,29.92,7.83,-20.9,0
1795,29.93,-3.26,-8.55,0
1796,29.94,-2.31,-2.93,0
1797,29.96,-0.14,-6.73,0
1798,29.97,-7.29,-10.03,0
1799,29.98,-14.24,-10.77,0
1800,30.0,-12.63,-18.65,0
1801,30.01,-5.09,-24.33,0
1802,30.02,-0.14,-18.0,0
1803,30.04,-5.53,-11.97,0
1804,30.05,-10.37,-14.25,0
1805,30.06,-1.51,-21.19,0
1806,30.08,10.45,-23.54,0
1807,30.09,14.78,-15.21,0
1808,30.1,13.91,-5.51,0
1809,30.12,11.74,-0.17,0
1810,30.13,10.99,0.85,0
1811,30.14,1.52,-9.28,0
1812,30.16,-18.5,-19.02,0
1813,30.17,-23.31,-9.37,0
1814,30.18,-12.06,5.12,0
1815,30.2,-6.82,0.35,0
1816,30.21,-1.98,-4.43,0
1817,30.22,5.77,40.01,0
1818,30.24,5.41,120.2,0
1819,30.25,2.76,153.35,0
1820,30.26,-7.87,136.24,0
1821,30.28,-29.97,114.05,0
1822,30.29,-25.81,42.65,0
1823,30.3,3.48,-61.7,0
1824,30.32,19.74,-86.93,0
1825,30.33,30.51,-26.45,0
1826,30.35,30.29,8.16,0
1827,30.36,12.47,-45.12,0
1828,30.37,9.42,-43.13,0
1829,30.39,12.23,98.1,0
1830,30.4,13.18,128.42,0
1831,30.41,24.64,-51.91,0
1832,30.43,15.4,-134.91,0
1833,30.44,-13.81,-24.56,0
1834,30.45,-13.75,9.29,0
1835,30.47,14.89,-97.6,0
1836,30.48,20.13,-161.2,0
1837,30.49,-14.3,-121.1,0
1838,30.5,-42.46,-63.86,0
1839,30.52,-37.12,-43.07,0
1840,30.53,-28.88,-26.7,0
1841,30.54,-33.15,11.92,0
1842,30.56,-17.89,58.95,0
1843,30.57,23.4,71.87,0
1844,30.58,43.48,16.74,0
1845,30.6,14.21,-39.64,0
1846,30.61,-30.0,-31.12,0
1847,30.62,-31.83,-20.5,0
1848,30.64,10.98,-32.01,0
1849,30.65,35.11,7.85,0
1850,30.67,20.35,58.54,0
1851,30.68,12.95,16.92,0
1852,30.69,15.87,-60.54,0
1853,30.7,3.37,-42.41,0
1854,30.72,-6.79,47.31,0
1855,30.73,-5.35,43.29,0
1856,30.75,-3.22,-69.15,0
1857,30.76,4.79,-116.34,0
1858,30.77,3.32,-67.94,0
1859,30.78,-12.76,-31.15,0
1860,30.8,-8.05,-9.13,0
1861,30.81,11.22,18.65,0
1862,30.82,13.82,10.28,0
1863,30.84,2.88,-24.28,0
1864,30.85,-23.55,-43.8,0
1865,30.86,-56.87,-43.21,0
1866,30.88,-57.36,-17.94,0
1867,30.89,-19.1,0.37,0
1868,30.9,20.33,-22.19,0
1869,30.92,28.89,-22.15,0
1870,30.93,13.82,16.99,0
1871,30.94,15.69,16.19,0
1872,30.96,44.48,-15.88,0
1873,30.97,60.96,-22.8,0
1874,30.99,42.64,-34.07,0
1875,31.0,17.78,-88.24,0
1876,31.01,6.72,-105.25,0
1877,31.03,-8.3,-14.72,0
1878,31.04,-21.88,67.69,0
1879,31.05,-21.79,41.08,0
1880,31.07,-26.65,-14.35,0
1881,31.08,-25.14,-3.31,0
1882,31.09,1.47,44.28,0
1883,31.11,17.41,41.05,0
1884,31.12,-1.41,9.28,0
1885,31.13,-16.97,37.16,0
1886,31.14,-0.99,76.75,0
1887,31.16,16.94,37.74,0
1888,31.17,15.69,-13.08,0
1889,31.18,8.55,3.05,0
1890,31.2,0.21,17.16,0
1891,31.21,-2.69,-31.58,0
1892,31.22,-0.96,-60.48,0
1893,31.24,-16.38,-5.08,0
1894,31.25,-36.55,41.04,0
1895,31.26,-23.57,15.18,0
1896,31.28,15.81,-21.8,0
1897,31.29,36.14,-48.2,0
1898,31.3,18.53,-64.92,0
1899,31.32,-12.57,-31.45,0
1900,31.33,-33.35,36.39,0
1901,31.34,-31.0,67.14,0
1902,31.36,-5.16,50.87,0
1903,31.37,13.26,43.82,0
1904,31.38,4.95,75.16,0
1905,31.4,-8.97,118.04,0
1906,31.41,-9.63,105.54,0
1907,31.42,2.09,17.09,0
1908,31.44,13.45,-25.92,0
1909,31.45,9.96,45.02,0
1910,31.46,-1.81,88.74,0
1911,31.48,-2.06,29.24,0
1912,31.49,8.83,-2.26,0
1913,31.5,12.74,57.27,0
1914,31.52,6.83,92.62,0
1915,31.53,1.27,55.29,0
1916,31.54,-4.78,29.23,0
1917,31.56,-6.2,30.48,0
1918,31.57,3.1,13.79,0
1919,31.58,-1.02,-13.72,0
1920,31.6,-24.33,-18.65,0
1921,31.61,-23.59,6.42,0
1922,31.63,8.75,17.5,0
1923,31.64,20.71,-10.87,0
1924,31.65,-5.54,-20.87,0
1925,31.67,-24.7,18.84,0
1926,31.68,-9.22,51.65,0
1927,31.69,6.36,34.77,0
1928,31.71,0.45,-10.69,0
1929,31.72,-2.6,-39.79,0
1930,31.73,1.83,-19.22,0
1931,31.75,5.94,22.76,0
1932,31.76,15.53,20.0,0
1933,31.77,18.71,-9.96,0
1934,31.78,3.51,10.56,0
1935,31.8,-11.61,59.01,0
1936,31.81,-8.18,32.38,0
1937,31.82,4.53,-58.12,0
1938,31.84,15.03,-69.8,0
1939,31.85,18.5,40.71,0
1940,31.86,3.36,140.27,0
1941,31.88,-15.17,128.78,0
1942,31.89,-4.16,62.82,0
1943,31.9,18.73,42.4,0
1944,31.92,14.89,65.22,0
1945,31.93,-3.98,47.63,0
1946,31.94,-5.77,-16.62,0
1947,31.96,6.64,-59.69,0
1948,31.97,8.99,-59.68,0
1949,31.98,-2.37,-22.07,0
1950,32.0,-8.0,22.87,0
1951,32.01,0.15,12.42,0
1952,32.03,5.89,-43.04,0
1953,32.04,-8.12,-60.38,0
1954,32.05,-31.05,-37.18,0
1955,32.06,-32.08,-44.07,0
1956,32.08,-6.07,-63.35,0
1957,32.09,15.51,-35.68,0
1958,32.11,14.85,-10.24,0
1959,32.12,11.72,-39.58,0
1960,32.13,11.69,-35.15,0
1961,32.15,0.58,45.08,0
1962,32.16,-12.2,64.43,0
1963,32.17,-16.09,-19.14,0
1964,32.19,-15.36,-85.18,0
1965,32.2,-4.63,-95.2,0
1966,32.21,10.47,-76.91,0
1967,32.22,4.11,-32.82,0
1968,32.24,-18.46,6.06,0
1969,32.25,-23.87,-1.97,0
1970,32.27,-11.41,-52.23,0
1971,32.28,-2.51,-104.54,0
1972,32.29,2.91,-135.03,0
1973,32.31,11.09,-159.54,0
1974,32.32,18.66,-190.3,0
1975,32.33,27.15,-210.0,0
1976,32.35,35.34,-208.23,0
1977,32.36,28.02,-188.75,0
1978,32.37,4.91,-143.84,0
1979,32.39,-10.24,-83.97,0
1980,32.4,-10.42,-45.14,0
1981,32.41,-8.57,-25.75,0
1982,32.43,-6.05,3.61,0
1983,32.44,-1.34,35.29,0
1984,32.45,-3.46,50.46,0
1985,32.47,-13.89,64.99,0
1986,32.48,-18.88,86.27,0
1987,32.49,-13.62,97.15,0
1988,32.51,-9.74,98.81,0
1989,32.52,-9.47,98.16,0
1990,32.53,-5.85,90.1,0
1991,32.54,-2.33,81.54,0
1992,32.56,-1.53,81.29,0
1993,32.57,3.74,83.12,0
1994,32.59,9.47,80.94,0
1995,32.6,2.88,80.46,0
1996,32.61,-8.02,88.8,0
1997,32.63,-8.93,96.69,0
1998,32.64,-3.06,89.08,0
1999,32.65,2.64,74.17,0
2000,32.67,1.79,72.09,0
2001,32.68,-7.86,79.79,0
2002,32.69,-13.0,79.9,0
2003,32.71,-5.53,73.04,0
2004,32.72,-1.47,70.87,0
2005,32.73,-8.68,71.29,0
2006,32.75,-7.35,67.65,0
2007,32.76,3.8,61.98,0
2008,32.77,-0.27,55.23,0
2009,32.79,-11.31,44.36,0
2010,32.8,-3.24,34.89,0
2011,32.81,13.11,36.3,0
2012,32.83,13.38,43.6,0
2013,32.84,1.75,44.37,0
2014,32.85,-0.1,37.52,0
2015,32.87,8.05,29.51,0
2016,32.88,6.74,27.48,0
2017,32.89,-1.19,31.86,0
2018,32.9,1.13,30.95,0
2019,32.92,9.4,22.71,0
2020,32.93,12.03,20.62,0
2021,32.95,10.49,20.09,0
2022,32.96,10.17,7.34,0
2023,32.97,6.75,-4.99,0
2024,32.99,-1.7,-1.44,0
2025,33.0,-3.27,8.36,0
2026,33.01,5.9,7.17,0
2027,33.03,13.44,-2.9,0
2028,33.04,15.73,-6.95,0
2029,33.05,17.82,-6.45,0
2030,33.06,12.22,-8.54,0
2031,33.08,-2.0,-9.79,0
2032,33.09,-0.76,-12.48,0
2033,33.11,16.14,-22.13,0
2034,33.12,13.52,-30.08,0
2035,33.13,-12.42,-27.8,0
2036,33.15,-24.2,-25.28,0
2037,33.16,-2.82,-29.4,0
2038,33.17,24.78,-31.0,0
2039,33.19,25.55,-27.25,0
2040,33.2,6.76,-29.08,0
2041,33.21,-5.54,-38.13,0
2042,33.22,-11.13,-40.51,0
2043,33.24,-16.07,-33.73,0
2044,33.25,-7.98,-34.6,0
2045,33.27,11.07,-45.18,0
2046,33.28,18.0,-46.15,0
2047,33.29,9.82,-36.56,0
2048,33.31,0.97,-37.41,0
2049,33.32,-5.05,-48.87,0
2050,33.33,-7.44,-47.32,0
2051,33.35,-1.21,-31.71,0
2052,33.36,10.64,-27.69,0
2053,33.37,15.99,-41.75,0
2054,33.38,9.11,-48.32,0
2055,33.4,-2.14,-33.53,0
2056,33.41,-10.85,-21.74,0
2057,33.43,-16.96,-30.12,0
2058,33.44,-16.2,-38.45,0
2059,33.45,-6.74,-36.85,0
2060,33.47,0.09,-42.11,0
2061,33.48,-0.85,-52.36,0
2062,33.49,-3.01,-43.1,0
2063,33.51,-6.29,-14.23,0
2064,33.52,-12.39,0.38,0
2065,33.53,-15.34,-14.67,0
2066,33.54,-8.99,-32.38,0
2067,33.56,4.62,-35.73,0
2068,33.57,11.64,-34.83,0
2069,33.59,2.0,-27.78,0
2070,33.6,-12.11,-11.55,0
2071,33.61,-13.89,-4.68,0
2072,33.63,-5.83,-16.47,0
2073,33.64,5.23,-31.19,0
2074,33.65,16.26,-30.82,0
2075,33.67,15.74,-19.32,0
2076,33.68,-2.42,-16.06,0
2077,33.69,-20.8,-18.74,0
2078,33.71,-19.83,-9.69,0
2079,33.72,-5.04,2.83,0
2080,33.73,4.49,1.31,0
2081,33.75,5.47,-8.66,0
2082,33.76,8.28,-14.42,0
2083,33.77,11.18,-15.25,0
2084,33.79,3.19,-11.47,0
2085,33.8,-9.71,-2.01,0
2086,33.81,-10.3,4.83,0
2087,33.83,1.97,4.45,0
2088,33.84,9.82,2.33,0
2089,33.85,3.54,0.63,0
2090,33.87,-4.09,-4.46,0
2091,33.88,-0.91,-9.14,0
2092,33.89,6.54,-1.15,0
2093,33.9,5.98,13.01,0
2094,33.92,-3.8,13.04,0
2095,33.93,-8.02,0.02,0
2096,33.95,2.41,-9.58,0
2097,33.96,13.01,-11.39,0
2098,33.97,9.95,-12.01,0
2099,33.99,-2.29,-9.89,0
2100,34.0,-11.89,-3.42,0
2101,34.01,-9.4,-2.29,0
2102,34.03,1.97,-3.77,0
2103,34.04,9.86,1.95,0
2104,34.05,10.24,6.48,0
2105,34.06,9.84,2.62,0
2106,34.08,7.29,2.14,0
2107,34.09,-7.83,12.52,0
2108,34.11,-20.72,18.29,0
2109,34.12,-7.59,7.64,0
2110,34.13,10.47,2.16,0
2111,34.15,2.27,21.09,0
2112,34.16,-11.06,33.21,0
2113,34.17,-0.24,12.73,0
2114,34.19,8.25,0.66,0
2115,34.2,-13.73,20.86,0
2116,34.21,-34.35,29.93,0
2117,34.23,-22.78,12.95,0
2118,34.24,-2.21,4.34,0
2119,34.25,4.6,12.82,0
2120,34.27,5.98,12.63,0
2121,34.28,6.44,-17.3,0
2122,34.29,6.24,-62.59,0
2123,34.31,11.51,-88.2,0
2124,34.32,14.78,-94.87,0
2125,34.33,18.8,-110.35,0
2126,34.35,37.76,-133.89,0
2127,34.36,49.88,-147.31,0
2128,34.37,34.61,-151.32,0
2129,34.38,16.0,-142.11,0
2130,34.4,12.14,-110.12,0
2131,34.41,7.42,-76.38,0
2132,34.43,-6.83,-56.16,0
2133,34.44,-18.19,-29.87,0
2134,34.45,-27.89,9.59,0
2135,34.47,-38.5,51.01,0
2136,34.48,-27.4,89.23,0
2137,34.49,-5.03,118.12,0
2138,34.51,-11.99,132.99,0
2139,34.52,-29.88,144.04,0
2140,34.53,-24.01,165.13,0
2141,34.54,-21.27,189.61,0
2142,34.56,-34.8,201.48,0
2143,34.57,-31.64,200.07,0
2144,34.59,-9.24,188.51,0
2145,34.6,2.68,168.38,0
2146,34.61,-5.74,148.91,0
2147,34.63,-14.55,138.12,0
2148,34.64,-4.03,133.02,0
2149,34.65,9.74,122.85,0
2150,34.67,1.06,105.39,0
2151,34.68,-14.72,93.99,0
2152,34.69,-9.62,90.93,0
2153,34.71,9.12,71.3,0
2154,34.72,14.77,27.51,0
2155,34.73,1.82,0.33,0
2156,34.75,-13.12,18.6,0
2157,34.76,-16.67,48.52,0
2158,34.77,-4.42,51.6,0
2159,34.79,12.65,38.8,0
2160,34.8,7.64,36.22,0
2161,34.81,-16.8,35.91,0
2162,34.83,-14.23,20.15,0
2163,34.84,30.84,2.54,0
2164,34.85,61.13,-6.43,0
2165,34.87,20.08,-10.94,0
2166,34.88,-54.28,-0.37,0
2167,34.89,-71.61,13.8,0
2168,34.91,-28.76,-1.78,0
2169,34.92,11.4,-28.49,0
2170,34.93,38.65,-28.64,0
2171,34.95,68.62,-23.87,0
2172,34.96,84.2,-41.97,0
2173,34.97,67.82,-58.89,0
2174,34.99,13.7,-53.56,0
2175,35.0,-60.41,-36.32,0
2176,35.01,-71.83,-23.28,0
2177,35.03,4.19,-31.54,0
2178,35.04,58.41,-53.07,0
2179,35.05,35.61,-56.44,0
2180,35.06,-10.05,-44.52,0
2181,35.08,-32.74,-42.12,0
2182,35.09,-18.51,-45.64,0
2183,35.11,13.72,-39.37,0
2184,35.12,26.0,-28.96,0
2185,35.13,16.55,-30.48,0
2186,35.15,4.45,-42.02,0
2187,35.16,-4.51,-52.89,0
2188,35.17,-4.34,-60.4,0
2189,35.19,7.77,-57.5,0
2190,35.2,17.16,-42.97,0
2191,35.21,2.31,-38.88,0
2192,35.22,-26.42,-54.68,0
2193,35.24,-27.07,-65.49,0
2194,35.25,-1.94,-56.89,0
2195,35.27,8.49,-49.82,0
2196,35.28,7.09,-56.78,0
2197,35.29,14.81,-57.51,0
2198,35.31,14.24,-44.4,0
2199,35.32,-7.03,-38.38,0
2200,35.33,-20.1,-45.96,0
2201,35.35,-4.21,-51.63,0
2202,35.36,15.95,-49.28,0
2203,35.37,13.6,-46.04,0
2204,35.38,4.1,-44.05,0
2205,35.4,5.92,-39.42,0
2206,35.41,5.49,-32.47,0
2207,35.43,-6.38,-27.88,0
2208,35.44,-15.91,-26.55,0
2209,35.45,-14.17,-26.25,0
2210,35.47,-6.62,-27.96,0
2211,35.48,2.14,-28.09,0
2212,35.49,9.89,-21.24,0
2213,35.51,6.94,-16.12,0
2214,35.52,-11.59,-21.55,0
2215,35.53,-24.03,-26.35,0
2216,35.55,-8.17,-21.48,0
2217,35.56,15.22,-14.47,0
2218,35.57,12.43,-8.98,0
2219,35.59,-7.58,-3.66,0
2220,35.6,-12.09,-3.39,0
2221,35.61,0.62,-9.01,0
2222,35.63,7.19,-10.27,0
2223,35.64,4.15,-3.21,0
2224,35.65,0.62,1.44,0
2225,35.67,1.73,1.38,0
2226,35.68,12.28,3.1,0
2227,35.69,15.42,2.67,0
2228,35.71,-1.88,-0.81,0
2229,35.72,-10.46,-0.56,0
2230,35.73,3.28,3.26,0
2231,35.75,9.15,10.6,0
2232,35.76,-2.14,17.78,0
2233,35.77,-8.36,14.44,0
2234,35.79,-2.6,6.49,0
2235,35.8,4.86,7.98,0
2236,35.81,9.31,14.83,0
2237,35.83,7.54,15.03,0
2238,35.84,-0.25,7.46,0
2239,35.85,-1.67,1.1,0
2240,35.87,2.63,3.05,0
2241,35.88,-1.32,8.29,0
2242,35.89,-1.93,12.47,0
2243,35.9,15.29,20.98,0
2244,35.92,27.53,29.81,0
2245,35.93,13.43,26.69,0
2246,35.95,-7.54,18.28,0
2247,35.96,-10.79,16.36,0
2248,35.97,-6.33,16.42,0
2249,35.99,-12.16,19.06,0
2250,36.0,-18.31,27.26,0
2251,36.01,-11.83,26.24,0
2252,36.03,-4.26,12.38,0
2253,36.04,-5.0,6.28,0
2254,36.05,-6.55,18.07,0
2255,36.06,-7.39,33.83,0
2256,36.08,-8.56,34.92,0
2257,36.09,-3.75,22.04,0
2258,36.11,1.42,13.98,0
2259,36.12,-3.97,16.57,0
2260,36.13,-11.57,17.96,0
2261,36.15,-8.95,17.01,0
2262,36.16,1.58,20.84,0
2263,36.17,10.35,25.19,0
2264,36.19,8.95,23.29,0
2265,36.2,-0.1,19.2,0
2266,36.21,-2.76,19.62,0
2267,36.23,8.96,23.07,0
2268,36.24,21.67,24.63,0
2269,36.25,16.08,35.83,0
2270,36.27,-1.61,82.61,0
2271,36.28,-9.39,168.5,0
2272,36.29,-6.85,252.41,0
2273,36.31,-12.72,280.2,0
2274,36.32,-29.94,245.42,0
2275,36.33,-37.59,192.32,0
2276,36.35,-28.13,146.29,0
2277,36.36,-16.4,92.17,0
2278,36.37,-4.73,25.05,0
2279,36.38,6.29,-36.5,0
2280,36.4,5.54,-88.25,0
2281,36.41,2.5,-139.14,0
2282,36.43,12.8,-172.34,0
2283,36.44,23.54,-167.39,0
2284,36.45,20.0,-146.85,0
2285,36.47,10.82,-138.38,0
2286,36.48,5.09,-136.7,0
2287,36.49,3.96,-134.37,0
2288,36.51,8.74,-126.94,0
2289,36.52,13.66,-108.95,0
2290,36.53,10.38,-92.92,0
2291,36.54,1.87,-88.09,0
2292,36.56,-4.13,-84.45,0
2293,36.57,-4.88,-81.73,0
2294,36.59,-1.07,-83.62,0
2295,36.6,2.91,-77.7,0
2296,36.61,4.61,-62.21,0
2297,36.63,5.09,-51.68,0
2298,36.64,2.92,-46.6,0
2299,36.65,1.85,-39.03,0
2300,36.67,6.08,-31.31,0
2301,36.68,6.46,-23.9,0
2302,36.69,0.41,-18.95,0
2303,36.71,0.76,-25.0,0
2304,36.72,6.22,-34.54,0
2305,36.73,3.01,-27.88,0
2306,36.75,-5.18,-9.85,0
2307,36.76,-4.13,-4.2,0
2308,36.77,5.98,-7.58,0
2309,36.79,11.49,1.99,0
2310,36.8,4.63,13.89,0
2311,36.81,-8.56,8.44,0
2312,36.83,-16.49,0.98,0
2313,36.84,-13.18,6.18,0
2314,36.85,-3.83,13.62,0
2315,36.87,1.38,15.69,0
2316,36.88,0.67,16.1,0
2317,36.89,-1.27,18.12,0
2318,36.9,-3.31,24.09,0
2319,36.92,-4.34,31.42,0
2320,36.93,-6.33,35.38,0
2321,36.95,-10.87,37.15,0
2322,36.96,-7.97,35.06,0
2323,36.97,2.6,27.28,0
2324,36.99,6.19,26.47,0
2325,37.0,1.19,37.05,0
2326,37.01,-2.41,40.15,0
2327,37.03,0.48,32.58,0
2328,37.04,2.93,31.59,0
2329,37.05,-2.79,34.2,0
2330,37.06,-5.11,31.93,0
2331,37.08,4.28,33.23,0
2332,37.09,6.43,39.02,0
2333,37.11,-9.18,39.98,0
2334,37.12,-21.95,34.43,0
2335,37.13,-16.52,30.3,0
2336,37.15,-5.28,36.12,0
2337,37.16,-2.57,42.54,0
2338,37.17,-2.87,33.85,0
2339,37.19,4.1,20.52,0
2340,37.2,13.27,22.94,0
2341,37.21,12.99,36.12,0
2342,37.22,3.89,37.06,0
2343,37.24,-1.92,22.83,0
2344,37.25,2.46,12.44,0
2345,37.27,5.91,12.73,0
2346,37.28,-4.87,16.23,0
2347,37.29,-21.0,18.15,0
2348,37.31,-20.1,18.62,0
2349,37.32,0.24,17.97,0
2350,37.33,14.18,17.44,0
2351,37.35,8.17,20.48,0
2352,37.36,-1.37,21.49,0
2353,37.37,-2.73,12.37,0
2354,37.38,-2.51,8.57,0
2355,37.4,-7.76,17.94,0
2356,37.41,-12.97,19.11,0
2357,37.43,-7.31,7.9,0
2358,37.44,3.95,5.2,0
2359,37.45,6.88,14.08,0
2360,37.47,1.93,14.17,0
2361,37.48,-2.56,0.41,0
2362,37.49,-4.22,-6.68,0
2363,37.51,-2.85,0.28,0
2364,37.52,2.82,6.18,0
2365,37.53,9.01,-0.11,0
2366,37.54,9.55,-12.25,0
2367,37.56,7.15,-14.11,0
2368,37.57,9.0,-3.3,0
2369,37.59,13.15,4.88,0
2370,37.6,8.27,2.64,0
2371,37.61,-3.93,-3.23,0
2372,37.63,-3.07,-3.75,0
2373,37.64,11.27,5.37,0
2374,37.65,13.9,15.02,0
2375,37.67,2.83,9.47,0
2376,37.68,-3.68,-6.3,0
2377,37.69,-6.3,-15.39,0
2378,37.71,-10.58,-16.48,0
2379,37.72,-8.9,-17.51,0
2380,37.73,-0.72,-18.42,0
2381,37.75,4.08,-17.21,0
2382,37.76,1.79,-17.75,0
2383,37.77,-3.55,-19.25,0
2384,37.79,-5.48,-15.41,0
2385,37.8,-4.65,-8.67,0
2386,37.81,-7.9,-9.12,0
2387,37.83,-6.04,-16.78,0
2388,37.84,9.78,-18.94,0
2389,37.85,20.81,-11.81,0
2390,37.87,14.1,-7.12,0
2391,37.88,2.87,-11.13,0
2392,37.89,-2.54,-17.18,0
2393,37.9,-3.25,-18.96,0
2394,37.92,-2.31,-18.31,0
2395,37.93,-2.52,-17.61,0
2396,37.95,-3.82,-12.06,0
2397,37.96,-0.53,-1.97,0
2398,37.97,6.4,-1.96,0
2399,37.99,5.36,-13.36,0
2400,38.0,0.29,-17.73,0
2401,38.01,5.96,-17.69,0
2402,38.03,15.32,-27.77,0
2403,38.04,13.99,-31.34,0
2404,38.05,7.96,-15.65,0
2405,38.06,6.41,-7.33,0
2406,38.08,1.96,-19.52,0
2407,38.09,-7.73,-26.21,0
2408,38.11,-8.26,-15.62,0
2409,38.12,-3.39,-4.43,0
2410,38.13,-9.48,-2.63,0
2411,38.15,-15.18,-8.38,0
2412,38.16,-8.67,-12.19,0
2413,38.17,-7.41,-6.86,0
2414,38.19,-14.49,-4.56,0
2415,38.2,-9.58,-7.63,0
2416,38.21,2.95,6.9,0
2417,38.22,-1.09,41.48,0
2418,38.24,-12.27,64.67,0
2419,38.25,0.55,92.11,0
2420,38.27,31.54,162.79,0
2421,38.28,44.71,194.92,0
2422,38.29,24.36,127.29,0
2423,38.31,-9.72,21.17,0
2424,38.32,-26.48,-140.57,0
2425,38.33,-16.93,-265.02,0
2426,38.35,-0.96,-86.82,0
2427,38.36,7.96,244.79,0
2428,38.37,11.71,295.59,0
2429,38.38,5.9,102.69,0
2430,38.4,-1.09,-4.95,0
2431,38.41,-0.34,20.79,0
2432,38.43,-10.29,51.01,0
2433,38.44,-26.3,30.0,0
2434,38.45,-18.52,-15.39,0
2435,38.47,-4.03,-9.42,0
2436,38.48,-11.93,13.13,0
2437,38.49,-17.87,-62.9,0
2438,38.51,-3.35,-145.06,0
2439,38.52,9.7,-105.63,0
2440,38.53,12.27,-55.01,0
2441,38.54,12.36,-87.32,0
2442,38.56,6.81,-117.36,0
2443,38.57,-9.12,-89.61,0
2444,38.59,-24.26,-64.53,0
2445,38.6,-15.08,-83.44,0
2446,38.61,20.96,-107.57,0
2447,38.63,41.78,-101.37,0
2448,38.64,19.84,-77.55,0
2449,38.65,-8.14,-51.55,0
2450,38.67,-2.43,-31.28,0
2451,38.68,15.91,-44.55,0
2452,38.69,7.92,-100.84,0
2453,38.71,-11.03,-138.79,0
2454,38.72,-4.57,-92.73,0
2455,38.73,9.55,8.23,0
2456,38.75,0.46,52.29,0
2457,38.76,-8.78,7.54,0
2458,38.77,5.46,-13.13,0
2459,38.79,11.45,7.76,0
2460,38.8,-9.58,-36.69,0
2461,38.81,-16.39,-98.34,0
2462,38.83,2.35,-66.67,0
2463,38.84,10.04,0.13,0
2464,38.85,3.17,16.86,0
2465,38.87,-0.31,2.08,0
2466,38.88,0.35,-6.47,0
2467,38.89,3.02,-12.81,0
2468,38.9,7.83,-23.75,0
2469,38.92,17.4,-10.09,0
2470,38.93,25.19,34.3,0
2471,38.95,8.32,69.98,0
2472,38.96,-23.71,69.63,0
2473,38.97,-30.4,30.54,0
2474,38.99,-14.42,-20.49,0
2475,39.0,-9.54,-31.04,0
2476,39.01,-12.29,18.59,0
2477,39.03,2.1,70.73,0
2478,39.04,19.26,51.65,0
2479,39.05,9.68,-10.75,0
2480,39.06,-10.91,-32.21,0
2481,39.08,-10.25,1.25,0
2482,39.09,8.49,49.82,0
2483,39.11,13.96,59.15,0
2484,39.12,-9.95,6.62,0
2485,39.13,-27.26,-22.52,0
2486,39.15,-6.12,27.48,0
2487,39.16,13.63,53.22,0
2488,39.17,0.53,-5.21,0
2489,39.19,-11.48,-41.02,0
2490,39.2,-6.35,4.46,0
2491,39.21,-2.25,40.19,0
2492,39.22,2.74,28.04,0
2493,39.24,8.29,21.4,0
2494,39.25,0.12,6.81,0
2495,39.27,-5.18,-20.42,0
2496,39.28,13.26,1.14,0
2497,39.29,24.49,42.27,0
2498,39.31,3.74,35.8,0
2499,39.32,-12.23,21.52,0
2500,39.33,0.72,27.2,0
2501,39.35,15.39,12.35,0
2502,39.36,19.65,2.31,0
2503,39.37,21.59,27.73,0
2504,39.38,19.4,43.17,0
2505,39.4,18.16,22.12,0
2506,39.41,14.88,-24.23,0
2507,39.43,2.12,-49.9,0
2508,39.44,-3.5,3.96,0
2509,39.45,1.49,84.73,0
2510,39.47,-3.83,82.87,0
2511,39.48,-19.23,25.26,0
2512,39.49,-27.06,17.35,0
2513,39.51,-20.67,47.43,0
2514,39.52,-6.72,31.23,0
2515,39.53,6.13,-8.09,0
2516,39.54,9.45,12.89,0
2517,39.56,-2.57,61.47,0
2518,39.57,-16.34,53.04,0
2519,39.59,-16.28,4.62,0
2520,39.6,-16.14,-21.89,0
2521,39.61,-25.6,-24.08,0
2522,39.63,-25.09,-8.56,0
2523,39.64,-5.31,21.31,0
2524,39.65,8.19,15.07,0
2525,39.67,1.07,-23.32,0
2526,39.68,-4.59,-19.93,0
2527,39.69,-0.56,17.71,0
2528,39.71,1.66,29.28,0
2529,39.72,1.65,5.14,0
2530,39.73,-0.92,-31.09,0
2531,39.75,-3.79,-49.74,0
2532,39.76,3.31,-29.95,0
2533,39.77,16.13,23.81,0
2534,39.79,11.71,73.48,0
2535,39.8,-12.5,56.28,0
2536,39.81,-26.44,-5.44,0
2537,39.83,-22.07,-12.5,0
2538,39.84,-13.8,13.53,0
2539,39.85,-0.97,5.2,0
2540,39.87,5.84,16.52,0
2541,39.88,-12.38,56.25,0
2542,39.89,-30.42,36.16,0
2543,39.9,-10.8,-17.1,0
2544,39.92,23.05,-17.1,0
2545,39.93,25.7,1.31,0
2546,39.95,10.1,-3.69,0
2547,39.96,7.18,6.78,0
2548,39.97,10.9,30.57,0
2549,39.99,14.98,24.67,0
2550,40.0,14.98,-11.15,0
2551,40.01,0.04,-37.7,0
2552,40.03,-7.44,2.01,0
2553,40.04,9.58,72.46,0
2554,40.05,16.39,43.57,0
2555,40.065,0.1,-51.14,0
2556,40.08,-7.69,-51.36,0
2557,40.09,-4.61,7.9,0
2558,40.11,-11.43,-14.3,0
2559,40.12,-20.05,-71.27,0
2560,40.13,-13.74,-39.08,0
2561,40.15,6.27,39.19,0
2562,40.16,17.75,57.62,0
2563,40.17,0.82,28.16,0
2564,40.19,-11.53,3.43,0
2565,40.2,12.14,-37.48,0
2566,40.21,28.75,-111.92,0
2567,40.22,7.74,-166.19,0
2568,40.24,-5.96,-168.35,0
2569,40.25,13.91,-146.81,0
2570,40.27,28.17,-136.2,0
2571,40.28,16.94,-149.84,0
2572,40.29,11.34,-155.45,0
2573,40.31,19.74,-113.9,0
2574,40.32,22.91,-45.02,0
2575,40.33,24.63,11.17,0
2576,40.35,22.43,45.08,0
2577,40.36,0.24,60.23,0
2578,40.37,-20.46,65.55,0
2579,40.38,-17.68,80.65,0
2580,40.4,-11.95,98.85,0
2581,40.41,-10.5,83.15,0
2582,40.43,-0.96,40.01,0
2583,40.44,3.92,15.4,0
2584,40.45,-2.91,12.99,0
2585,40.47,-2.47,4.07,0
2586,40.48,6.08,-3.77,0
2587,40.49,5.33,16.85,0
2588,40.51,-1.72,54.93,0
2589,40.52,0.55,75.32,0
2590,40.53,3.9,72.54,0
2591,40.54,-8.05,68.19,0
2592,40.56,-22.12,69.95,0
2593,40.57,-16.31,69.46,0
2594,40.59,0.79,67.52,0
2595,40.6,0.77,72.48,0
2596,40.61,-19.88,77.53,0
2597,40.63,-32.29,68.01,0
2598,40.64,-24.3,52.57,0
2599,40.65,-14.49,51.72,0
2600,40.67,-8.01,60.34,0
2601,40.68,2.91,57.81,0
2602,40.69,1.71,42.8,0
2603,40.71,-18.05,30.25,0
2604,40.72,-22.49,30.07,0
2605,40.73,0.32,40.55,0
2606,40.75,17.1,49.74,0
2607,40.76,11.94,49.38,0
2608,40.77,0.23,43.14,0
2609,40.79,-6.31,38.21,0
2610,40.8,-4.11,38.47,0
2611,40.81,3.75,39.33,0
2612,40.83,8.87,34.56,0
2613,40.84,10.43,25.58,0
2614,40.85,11.37,19.94,0
2615,40.87,10.35,24.11,0
2616,40.88,7.53,28.58,0
2617,40.89,3.54,20.49,0
2618,40.9,-2.18,7.53,0
2619,40.92,-7.5,0.54,0
2620,40.93,-8.12,-2.58,0
2621,40.95,-0.14,-9.54,0
2622,40.96,8.0,-20.18,0
2623,40.97,0.69,-21.53,0
2624,40.99,-11.21,-13.23,0
2625,41.0,-7.1,-13.68,0
2626,41.01,-0.04,-22.18,0
2627,41.03,-4.66,-21.67,0
2628,41.04,-3.7,-15.58,0
2629,41.05,6.55,-14.27,0
2630,41.06,6.16,-19.18,0
2631,41.08,-2.69,-31.99,0
2632,41.09,-7.68,-44.09,0
2633,41.11,-12.5,-39.91,0
2634,41.12,-15.02,-26.0,0
2635,41.13,-6.13,-26.66,0
2636,41.15,4.94,-40.16,0
2637,41.16,5.88,-42.07,0
2638,41.17,3.37,-37.41,0
2639,41.19,6.06,-41.24,0
2640,41.2,9.4,-37.55,0
2641,41.21,6.16,-27.28,0
2642,41.22,-2.18,-33.27,0
2643,41.24,-5.95,-42.67,0
2644,41.25,-1.21,-39.44,0
2645,41.27,0.44,-38.67,0
2646,41.28,-5.99,-42.65,0
2647,41.29,-9.84,-40.82,0
2648,41.31,-9.18,-37.83,0
2649,41.32,-10.21,-36.39,0
2650,41.33,-5.63,-36.7,0
2651,41.35,7.89,-42.29,0
2652,41.36,13.22,-43.05,0
2653,41.37,4.5,-36.58,0
2654,41.38,-2.28,-37.5,0
2655,41.4,0.31,-41.38,0
2656,41.41,6.51,-33.64,0
2657,41.43,8.0,-22.7,0
2658,41.44,4.16,-21.33,0
2659,41.45,3.98,-26.74,0
2660,41.47,7.43,-34.34,0
2661,41.48,5.89,-37.67,0
2662,41.49,3.23,-28.14,0
2663,41.51,6.42,-14.02,0
2664,41.52,9.01,-13.03,0
2665,41.53,7.03,-21.9,0
2666,41.54,4.76,-22.63,0
2667,41.56,-0.89,-18.11,0
2668,41.57,-6.99,-23.92,0
2669,41.59,-1.73,-29.66,0
2670,41.6,8.12,-19.35,0
2671,41.61,7.99,-11.48,0
2672,41.63,3.11,-23.2,0
2673,41.64,2.83,-28.74,0
2674,41.65,2.6,-9.08,0
2675,41.67,-0.42,4.92,0
2676,41.68,3.6,-10.65,0
2677,41.69,15.58,-27.21,0
2678,41.71,20.44,-17.35,0
2679,41.72,14.56,0.27,0
2680,41.73,9.34,1.31,0
2681,41.75,5.53,-8.87,0
2682,41.76,1.62,-11.85,0
2683,41.77,6.08,-3.01,0
2684,41.79,12.76,2.08,0
2685,41.8,6.87,-1.73,0
2686,41.81,-3.98,4.06,0
2687,41.83,-3.92,15.8,0
2688,41.84,1.39,8.17,0
2689,41.85,-2.84,-8.49,0
2690,41.87,-11.12,-8.09,0
2691,41.88,-9.75,0.05,0
2692,41.89,-3.28,-2.93,0
2693,41.9,0.18,-10.49,0
2694,41.92,1.5,-6.77,0
2695,41.93,-0.53,9.21,0
2696,41.95,-3.31,21.62,0
2697,41.96,-6.06,17.82,0
2698,41.97,-14.44,4.43,0
2699,41.99,-16.03,-4.3,0
2700,42.0,0.55,-4.66,0
2701,42.01,13.18,-2.44,0
2702,42.03,4.61,-1.0,0
2703,42.04,-5.32,-0.66,0
2704,42.05,0.16,-0.42,0
2705,42.06,3.22,6.45,0
2706,42.08,-4.92,19.8,0
2707,42.09,-7.17,23.09,0
2708,42.11,-6.84,10.52,0
2709,42.12,-15.64,3.4,0
2710,42.13,-19.2,19.06,0
2711,42.15,-9.27,38.9,0
2712,42.16,1.8,35.08,0
2713,42.17,7.35,16.67,0
2714,42.19,10.09,9.17,0
2715,42.2,8.41,9.37,0
2716,42.21,-0.85,-7.98,0
2717,42.22,-7.96,-52.34,0
2718,42.24,-2.39,-96.44,0
2719,42.25,8.44,-106.62,0
2720,42.27,13.31,-97.82,0
2721,42.28,14.19,-113.88,0
2722,42.29,19.77,-150.57,0
2723,42.31,30.17,-162.84,0
2724,42.32,30.23,-144.84,0
2725,42.33,9.99,-126.09,0
2726,42.35,-17.21,-103.89,0
2727,42.36,-28.8,-59.53,0
2728,42.37,-17.82,-5.28,0
2729,42.38,-4.03,32.32,0
2730,42.4,-7.87,48.5,0
2731,42.41,-17.52,66.02,0
2732,42.43,-17.37,97.32,0
2733,42.44,-18.63,127.0,0
2734,42.45,-25.48,149.82,0
2735,42.47,-20.79,170.67,0
2736,42.48,-3.4,180.34,0
2737,42.49,0.69,177.81,0
2738,42.51,-20.54,182.36,0
2739,42.52,-42.3,195.55,0
2740,42.53,-38.45,192.63,0
2741,42.54,-13.52,164.91,0
2742,42.56,13.54,128.9,0
2743,42.57,33.19,110.05,0
2744,42.59,36.27,123.37,0
2745,42.6,17.25,139.64,0
2746,42.61,-5.93,124.78,0
2747,42.63,-20.17,99.56,0
2748,42.64,-27.94,84.01,0
2749,42.65,-11.86,56.77,0
2750,42.66,30.22,12.98,0
2751,42.68,44.27,-18.83,0
2752,42.69,5.99,-18.54,0
2753,42.71,-23.49,13.92,0
2754,42.72,-7.91,56.6,0
2755,42.73,17.43,69.16,0
2756,42.75,24.84,41.91,0
2757,42.76,8.19,15.06,0
2758,42.77,-17.77,15.58,0
2759,42.79,-8.84,21.7,0
2760,42.8,37.14,13.61,0
2761,42.81,51.02,1.24,0
2762,42.83,3.26,-6.02,0
2763,42.84,-34.1,-7.34,0
2764,42.85,-13.38,-6.36,0
2765,42.87,17.48,-10.23,0
2766,42.88,19.11,-16.66,0
2767,42.89,2.75,-22.68,0
2768,42.9,-18.37,-31.28,0
2769,42.92,-30.86,-37.35,0
2770,42.93,-29.17,-36.37,0
2771,42.95,-22.63,-35.77,0
2772,42.96,-7.92,-41.15,0
2773,42.97,14.74,-48.78,0
2774,42.99,23.3,-50.73,0
2775,43.0,12.55,-44.65,0
2776,43.01,4.02,-41.63,0
2777,43.03,5.72,-49.41,0
2778,43.04,5.22,-56.19,0
2779,43.05,2.17,-51.1,0
2780,43.06,1.09,-46.34,0
2781,43.08,-4.5,-53.07,0
2782,43.09,-11.41,-58.31,0
2783,43.11,-9.83,-52.53,0
2784,43.12,-3.44,-49.12,0
2785,43.13,2.07,-57.63,0
2786,43.15,9.34,-62.41,0
2787,43.16,13.19,-49.98,0
2788,43.17,4.56,-38.49,0
2789,43.19,-5.29,-46.09,0
2790,43.2,-2.89,-59.58,0
2791,43.21,-2.12,-60.39,0
2792,43.22,-15.87,-53.21,0
2793,43.24,-21.45,-50.4,0
2794,43.25,0.61,-47.78,0
2795,43.27,22.28,-39.41,0
2796,43.28,13.74,-36.99,0
2797,43.29,-8.99,-44.1,0
2798,43.3,-17.33,-45.02,0
2799,43.32,-5.81,-37.52,0
2800,43.33,7.11,-33.55,0
2801,43.35,6.99,-39.29,0
2802,43.36,5.56,-50.42,0
2803,43.37,8.25,-51.74,0
2804,43.38,-1.37,-37.41,0
2805,43.4,-14.98,-22.29,0
2806,43.41,-1.36,-19.34,0
2807,43.43,28.03,-24.74,0
2808,43.44,30.82,-26.66,0
2809,43.45,9.12,-19.92,0
2810,43.47,-4.34,-9.73,0
2811,43.48,-5.15,-2.51,0
2812,43.49,-2.68,-0.13,0
2813,43.51,5.49,-1.71,0
2814,43.52,14.16,-2.64,0
2815,43.53,9.32,-3.52,0
2816,43.54,-2.8,-6.58,0
2817,43.56,-2.69,-5.65,0
2818,43.57,6.26,-6.28,0
2819,43.59,3.55,-18.94,0
2820,43.6,-3.93,-25.59,0
2821,43.61,5.27,-9.86,0
2822,43.63,15.45,5.22,0
2823,43.64,2.86,-2.69,0
2824,43.65,-13.6,-16.01,0
2825,43.67,-9.34,-10.38,0
2826,43.68,1.86,5.8,0
2827,43.69,-0.53,12.08,0
2828,43.71,-5.25,9.64,0
2829,43.72,0.05,13.97,0
2830,43.73,1.57,24.1,0
2831,43.75,-4.93,21.7,0
2832,43.76,-5.94,10.01,0
2833,43.77,-2.66,11.32,0
2834,43.79,-2.67,20.0,0
2835,43.8,-5.04,17.34,0
2836,43.81,-7.52,12.99,0
2837,43.83,-4.85,20.82,0
2838,43.84,2.81,26.24,0
2839,43.85,4.76,17.46,0
2840,43.87,-0.92,11.54,0
2841,43.88,-7.26,17.09,0
2842,43.89,-13.46,19.95,0
2843,43.9,-16.98,19.31,0
2844,43.92,-8.33,23.13,0
2845,43.93,9.03,24.44,0
2846,43.94,17.73,19.32,0
2847,43.96,8.59,17.95,0
2848,43.97,-3.56,22.57,0
2849,43.99,-0.39,25.28,0
2850,44.0,6.12,22.42,0
2851,44.01,2.91,16.26,0
2852,44.03,5.05,13.36,0
2853,44.04,10.18,17.79,0
2854,44.05,-4.37,22.65,0
2855,44.06,-20.9,18.62,0
2856,44.08,-11.17,9.27,0
2857,44.09,4.35,6.59,0
2858,44.11,5.91,12.37,0
2859,44.12,6.35,19.69,0
2860,44.13,8.27,25.42,0
2861,44.15,2.11,29.28,0
2862,44.16,-6.29,27.16,0
2863,44.17,0.0,15.56,0
2864,44.19,17.17,11.54,0
2865,44.2,15.69,49.59,0
2866,44.21,-3.31,136.31,0
2867,44.22,-8.53,234.44,0
2868,44.24,-3.29,302.19,0
2869,44.25,-5.99,323.89,0
2870,44.27,-5.63,294.02,0
2871,44.28,3.73,203.55,0
2872,44.29,4.11,78.22,0
2873,44.31,-11.75,-20.34,0
2874,44.32,-26.82,-64.41,0
2875,44.33,-26.0,-83.63,0
2876,44.35,-14.42,-114.03,0
2877,44.36,-0.13,-153.18,0
2878,44.37,14.71,-177.79,0
2879,44.38,17.83,-179.71,0
2880,44.4,2.82,-165.51,0
2881,44.41,-11.64,-147.98,0
2882,44.43,-11.89,-132.27,0
2883,44.44,-5.86,-111.25,0
2884,44.45,-1.9,-92.45,0
2885,44.47,-3.29,-89.86,0
2886,44.48,-5.57,-94.37,0
2887,44.49,-3.39,-92.83,0
2888,44.51,-1.24,-87.14,0
2889,44.52,2.03,-83.54,0
2890,44.53,13.27,-77.75,0
2891,44.54,24.72,-59.28,0
2892,44.56,20.44,-36.33,0
2893,44.57,1.54,-30.75,0
2894,44.58,-13.35,-43.28,0
2895,44.6,-12.6,-51.1,0
2896,44.61,-3.39,-39.41,0
2897,44.625,0.46,-22.63,0
2898,44.64,-2.75,-23.6,0
2899,44.65,-6.17,-29.54,0
2900,44.67,-4.48,-18.37,0
2901,44.68,7.05,-4.01,0
2902,44.69,21.46,-1.3,0
2903,44.71,21.14,0.46,0
2904,44.72,3.48,3.44,0
2905,44.73,-11.77,-1.12,0
2906,44.75,-6.34,-3.34,0
2907,44.76,9.49,8.1,0
2908,44.77,13.7,15.96,0
2909,44.79,10.56,11.14,0
2910,44.8,13.1,15.61,0
2911,44.81,13.91,33.38,0
2912,44.83,4.68,41.3,0
2913,44.84,-5.72,31.72,0
2914,44.85,-6.04,17.87,0
2915,44.87,3.53,14.79,0
2916,44.88,15.24,24.97,0
2917,44.89,16.38,32.08,0
2918,44.9,1.55,26.79,0
2919,44.92,-13.11,23.33,0
2920,44.93,-13.98,30.81,0
2921,44.95,-3.02,37.22,0
2922,44.96,12.01,32.53,0
2923,44.97,15.72,26.09,0
2924,44.99,5.88,29.54,0
2925,45.0,1.77,37.81,0
2926,45.01,4.9,41.42,0
2927,45.03,1.37,35.81,0
2928,45.04,-7.08,24.12,0
2929,45.05,-10.67,23.59,0
2930,45.06,-4.41,38.13,0
2931,45.08,3.72,40.32,0
2932,45.09,-2.59,22.05,0
2933,45.11,-16.13,11.56,0
2934,45.12,-17.8,16.55,0
2935,45.13,-13.82,22.05,0
2936,45.15,-15.5,27.16,0
2937,45.16,-9.54,31.75,0
2938,45.17,10.0,29.64,0
2939,45.19,19.58,25.74,0
2940,45.2,5.9,25.22,0
2941,45.21,-12.81,20.42,0
2942,45.22,-18.02,11.11,0
2943,45.24,-13.88,9.84,0
2944,45.25,-9.03,18.04,0
2945,45.26,-2.76,25.24,0
2946,45.28,3.3,27.35,0
2947,45.29,0.95,24.51,0
2948,45.31,-6.33,15.5,0
2949,45.32,-2.75,2.51,0
2950,45.33,10.29,-3.64,0
2951,45.35,8.81,5.19,0
2952,45.36,-10.48,16.2,0
2953,45.37,-20.22,12.35,0
2954,45.38,-9.94,2.72,0
2955,45.4,2.1,3.16,0
2956,45.41,5.09,9.08,0
2957,45.43,0.44,11.37,0
2958,45.44,-9.63,7.66,0
2959,45.45,-18.09,4.36,0
2960,45.47,-17.42,9.53,0
2961,45.48,-9.02,12.15,0
2962,45.49,-1.48,-0.98,0
2963,45.51,-0.77,-13.34,0
2964,45.52,-2.08,-6.45,0
2965,45.53,0.69,2.8,0
2966,45.54,1.68,-6.05,0
2967,45.56,-2.58,-17.86,0
2968,45.57,-1.89,-15.94,0
2969,45.59,4.0,-10.99,0
2970,45.6,6.46,-8.3,0
2971,45.61,10.67,-2.05,0
2972,45.63,17.04,4.39,0
2973,45.64,14.19,9.09,0
2974,45.65,8.15,13.04,0
2975,45.67,10.53,7.22,0
2976,45.68,12.67,-11.06,0
2977,45.69,6.0,-25.11,0
2978,45.71,-3.36,-24.83,0
2979,45.72,-8.13,-15.84,0
2980,45.73,-5.22,-4.93,0
2981,45.75,3.83,-0.2,0
2982,45.76,10.88,-3.67,0
2983,45.77,9.35,-6.37,0
2984,45.79,2.98,-9.58,0
2985,45.8,0.6,-22.88,0
2986,45.81,-0.35,-32.62,0
2987,45.83,-5.34,-22.34,0
2988,45.84,-7.1,-8.84,0
2989,45.85,-0.49,-7.36,0
2990,45.86,10.71,-5.41,0
2991,45.88,19.66,0.61,0
2992,45.89,18.25,-1.84,0
2993,45.9,7.16,-8.46,0
2994,45.92,-4.35,-9.8,0
2995,45.93,-8.94,-8.83,0
2996,45.95,-2.75,-6.9,0
2997,45.96,8.38,-7.9,0
2998,45.97,8.59,-15.67,0
2999,45.99,-2.28,-20.79,0
3000,46.0,-5.81,-18.63,0
3001,46.01,-1.41,-12.41,0
3002,46.03,-4.05,-5.85,0
3003,46.04,-8.76,-10.24,0
3004,46.05,-7.25,-21.57,0
3005,46.06,-7.68,-19.54,0
3006,46.08,-8.58,-7.05,0
3007,46.09,-2.78,4.27,0
3008,46.11,0.41,10.79,0
3009,46.12,-1.75,2.15,0
3010,46.13,-0.09,-16.69,0
3011,46.15,-0.11,-22.14,0
3012,46.16,-5.38,-14.33,0
3013,46.17,-2.88,-14.11,0
3014,46.19,7.42,-26.9,0
3015,46.2,11.52,-34.65,0
3016,46.21,5.41,-9.08,0
3017,46.22,-3.8,48.1,0
3018,46.24,-10.29,92.04,0
3019,46.25,-12.65,126.75,0
3020,46.27,0.02,187.14,0
3021,46.28,31.51,204.36,0
3022,46.29,47.43,124.81,0
3023,46.31,23.74,29.83,0
3024,46.32,-8.13,-32.98,0
3025,46.33,-15.77,-82.74,0
3026,46.35,-2.33,-108.61,0
3027,46.36,8.39,-110.82,0
3028,46.37,-5.68,-91.57,0
3029,46.38,-24.11,-36.41,0
3030,46.4,-15.81,-4.88,0
3031,46.41,-2.11,-76.8,0
3032,46.43,-6.99,-149.73,0
3033,46.44,-11.27,-79.63,0
3034,46.45,-3.17,17.02,0
3035,46.47,0.55,-0.79,0
3036,46.48,-5.56,-33.68,0
3037,46.49,-12.38,2.81,0
3038,46.5,-18.03,36.61,0
3039,46.52,-17.22,11.79,0
3040,46.53,-0.72,-23.96,0
3041,46.54,15.61,-6.06,0
3042,46.56,9.89,36.92,0
3043,46.57,-1.67,27.02,0
3044,46.59,3.18,-30.94,0
3045,46.6,7.85,-66.75,0
3046,46.61,-1.13,-57.75,0
3047,46.63,-5.06,-43.68,0
3048,46.64,-1.27,-45.06,0
3049,46.65,-4.18,-34.44,0
3050,46.67,-7.0,-16.56,0
3051,46.68,-0.25,-37.51,0
3052,46.69,6.67,-79.59,0
3053,46.71,4.78,-67.87,0
3054,46.72,-0.32,-8.36,0
3055,46.73,-2.39,10.75,0
3056,46.75,-1.7,-19.82,0
3057,46.76,6.13,-17.31,0
3058,46.77,22.7,24.05,0
3059,46.79,31.79,21.42,0
3060,46.8,19.52,-19.29,0
3061,46.81,0.65,-25.2,0
3062,46.83,-4.77,-26.62,0
3063,46.84,1.74,-58.3,0
3064,46.85,10.92,-42.04,0
3065,46.87,12.48,26.65,0
3066,46.88,0.79,46.68,0
3067,46.89,-11.45,23.58,0
3068,46.9,-10.42,25.84,0
3069,46.92,-3.71,34.42,0
3070,46.93,-2.21,17.77,0
3071,46.95,-2.09,-8.25,0
3072,46.96,2.43,-25.23,0
3073,46.97,1.5,-10.53,0
3074,46.99,-15.21,27.93,0
3075,47.0,-25.73,34.7,0
3076,47.01,-10.92,6.82,0
3077,47.03,2.77,4.72,0
3078,47.04,-1.46,30.77,0
3079,47.05,-6.65,26.31,0
3080,47.06,-9.36,2.54,0
3081,47.08,-9.16,21.05,0
3082,47.09,2.02,38.8,0
3083,47.11,9.79,-10.99,0
3084,47.12,3.74,-45.93,0
3085,47.13,4.91,11.78,0
3086,47.14,13.12,72.55,0
3087,47.16,0.24,62.58,0
3088,47.17,-17.99,46.96,0
3089,47.18,-8.41,58.29,0
3090,47.2,7.71,31.31,0
3091,47.21,5.06,-24.59,0
3092,47.22,-1.45,-28.14,0
3093,47.24,1.74,8.97,0
3094,47.25,5.96,27.33,0
3095,47.27,1.66,30.8,0
3096,47.28,-5.95,33.33,0
3097,47.29,-10.03,17.06,0
3098,47.31,-10.03,-16.73,0
3099,47.32,-4.27,-40.24,0
3100,47.33,-0.67,-27.9,0
3101,47.35,-8.65,12.27,0
3102,47.36,-14.75,36.03,0
3103,47.37,-5.19,25.03,0
3104,47.38,5.64,3.01,0
3105,47.4,0.69,-3.78,0
3106,47.41,-10.36,5.43,0
3107,47.43,-9.2,1.88,0
3108,47.44,2.49,-13.41,0
3109,47.45,10.58,1.39,0
3110,47.47,9.96,41.98,0
3111,47.48,7.31,43.53,0
3112,47.49,9.35,-11.69,0
3113,47.51,10.94,-40.21,0
3114,47.52,0.87,5.32,0
3115,47.53,-9.33,46.63,0
3116,47.54,-0.3,21.31,0
3117,47.56,10.15,-22.68,0
3118,47.57,4.28,-15.88,0
3119,47.59,2.44,24.22,0
3120,47.6,12.11,25.2,0
3121,47.61,11.03,-1.24,0
3122,47.63,-2.79,13.32,0
3123,47.64,-2.58,33.85,0
3124,47.65,15.44,-2.69,0
3125,47.67,21.87,-35.97,0
3126,47.68,8.7,-11.14,0
3127,47.69,2.2,18.51,0
3128,47.71,8.64,23.88,0
3129,47.72,6.99,23.54,0
3130,47.73,-1.74,3.98,0
3131,47.75,-2.14,-21.33,0
3132,47.76,2.48,-11.05,0
3133,47.77,12.07,9.16,0
3134,47.78,22.26,2.98,0
3135,47.8,11.47,-3.17,0
3136,47.81,-8.82,10.94,0
3137,47.82,-8.35,26.97,0
3138,47.84,0.65,28.15,0
3139,47.85,-3.9,9.71,0
3140,47.86,-11.94,-16.56,0
3141,47.88,-12.8,-19.24,0
3142,47.89,-11.17,12.07,0
3143,47.9,-9.86,34.09,0
3144,47.92,-12.28,5.75,0
3145,47.93,-18.12,-29.42,0
3146,47.95,-13.67,-3.9,0
3147,47.96,1.03,48.15,0
3148,47.97,7.84,44.81,0
3149,47.99,2.03,-9.69,0
3150,48.0,-10.24,-36.73,0
3151,48.01,-20.58,-7.31,0
3152,48.03,-20.47,24.57,0
3153,48.04,-10.4,21.49,0
3154,48.05,2.08,3.62,0
3155,48.06,4.51,-5.34,0
3156,48.08,-2.71,-12.94,0
3157,48.09,-3.13,-34.61,0
3158,48.11,2.71,-47.33,0
3159,48.12,6.09,-15.29,0
3160,48.13,12.38,30.94,0
3161,48.15,18.4,32.33,0
3162,48.16,9.64,-0.29,0
3163,48.17,-9.28,-22.37,0
3164,48.19,-13.31,-29.33,0
3165,48.2,4.14,-35.72,0
3166,48.21,18.89,-26.41,0
3167,48.22,15.72,6.16,0
3168,48.24,6.97,12.07,0
3169,48.25,5.87,-31.45,0
3170,48.27,7.65,-73.3,0
3171,48.28,4.57,-92.26,0
3172,48.29,0.02,-118.2,0
3173,48.31,-7.58,-154.11,0
3174,48.32,-16.43,-173.49,0
3175,48.33,-9.73,-160.63,0
3176,48.35,8.59,-119.11,0
3177,48.36,13.89,-72.99,0
3178,48.37,6.01,-49.56,0
3179,48.38,2.99,-37.15,0
3180,48.4,4.9,-8.14,0
3181,48.41,1.61,20.12,0
3182,48.42,0.43,31.51,0
3183,48.44,4.49,53.36,0
3184,48.45,-0.2,86.18,0
3185,48.46,-8.55,95.65,0
3186,48.48,-4.89,84.41,0
3187,48.49,-0.61,83.65,0
3188,48.5,-5.15,99.3,0
3189,48.52,-3.73,111.23,0
3190,48.53,2.09,103.35,0
3191,48.54,0.92,86.82,0
3192,48.56,1.65,79.34,0
3193,48.57,1.52,70.46,0
3194,48.59,-13.33,52.77,0
3195,48.6,-28.39,47.08,0
3196,48.61,-23.03,56.93,0
3197,48.63,-5.58,59.51,0
3198,48.64,3.91,50.73,0
3199,48.65,4.95,47.94,0
3200,48.67,9.1,53.86,0
3201,48.68,13.86,54.27,0
3202,48.69,8.1,47.97,0
3203,48.71,-2.96,40.02,0
3204,48.72,-3.33,29.07,0
3205,48.73,2.25,20.04,0
3206,48.75,-2.53,11.64,0
3207,48.76,-11.23,5.42,0
3208,48.77,-9.54,20.47,0
3209,48.79,-3.45,42.65,0
3210,48.8,-2.73,36.91,0
3211,48.81,-4.96,17.02,0
3212,48.83,-4.62,11.35,0
3213,48.84,1.57,14.33,0
3214,48.85,5.75,16.28,0
3215,48.87,-2.18,14.12,0
3216,48.88,-10.11,4.7,0
3217,48.89,-5.0,-4.42,0
3218,48.9,5.65,-7.7,0
3219,48.92,13.0,-10.87,0
3220,48.93,10.85,-11.92,0
3221,48.95,-3.85,-10.44,0
3222,48.96,-12.59,-13.78,0
3223,48.97,0.21,-11.21,0
3224,48.99,12.36,1.38,0
3225,49.0,0.91,-0.45,0
3226,49.01,-15.54,-17.94,0
3227,49.03,-9.03,-24.12,0
3228,49.04,8.0,-20.33,0
3229,49.05,6.04,-25.87,0
3230,49.06,-7.33,-35.56,0
3231,49.08,-6.53,-33.99,0
3232,49.09,1.2,-23.07,0
3233,49.1,1.19,-17.74,0
3234,49.12,1.61,-23.83,0
3235,49.13,3.08,-27.61,0
3236,49.14,0.06,-21.17,0
3237,49.16,0.42,-22.67,0
3238,49.17,3.2,-37.95,0
3239,49.19,1.57,-41.28,0
3240,49.2,1.25,-31.15,0
3241,49.21,1.53,-34.56,0
3242,49.22,-6.58,-44.66,0
3243,49.24,-13.25,-37.25,0
3244,49.25,-2.18,-24.83,0
3245,49.27,18.74,-31.27,0
3246,49.28,27.7,-44.43,0
3247,49.29,20.71,-36.85,0
3248,49.31,13.03,-17.52,0
3249,49.32,10.56,-13.84,0
3250,49.33,3.49,-22.7,0
3251,49.35,-11.0,-27.82,0
3252,49.36,-19.3,-25.76,0
3253,49.37,-10.81,-22.62,0
3254,49.38,1.68,-27.81,0
3255,49.4,2.98,-33.62,0
3256,49.41,-0.17,-25.17,0
3257,49.43,1.46,-13.41,0
3258,49.44,4.35,-10.38,0
3259,49.45,3.27,-10.2,0
3260,49.47,2.96,-15.16,0
3261,49.48,10.88,-23.12,0
3262,49.49,18.6,-15.1,0
3263,49.51,10.99,-0.77,0
3264,49.52,-3.53,-9.9,0
3265,49.53,-2.73,-27.78,0
3266,49.54,9.87,-23.91,0
3267,49.56,12.75,-9.58,0
3268,49.57,1.74,-3.72,0
3269,49.59,-11.35,-0.01,0
3270,49.6,-12.51,3.31,0
3271,49.61,-1.18,-2.75,0
3272,49.63,0.72,-7.99,0
3273,49.64,-11.76,0.62,0
3274,49.65,-13.15,6.23,0
3275,49.67,3.97,-5.7,0
3276,49.68,14.64,-18.15,0
3277,49.69,3.03,-17.29,0
3278,49.7,-11.11,-10.94,0
3279,49.72,-8.98,-7.8,0
3280,49.73,-3.12,-5.39,0
3281,49.74,-5.87,2.84,0
3282,49.76,-7.21,9.88,0
3283,49.77,4.43,4.5,0
3284,49.78,17.46,-2.96,0
3285,49.8,12.82,-2.73,0
3286,49.81,1.16,-9.86,0
3287,49.825,3.68,-21.59,0
3288,49.84,11.17,-10.55,0
3289,49.85,7.04,11.62,0
3290,49.87,-2.69,9.81,0
3291,49.88,-7.81,-3.98,0
3292,49.89,-6.11,-0.73,0
3293,49.9,0.25,8.58,0
3294,49.92,4.0,3.88,0
3295,49.93,-0.31,-2.54,0
3296,49.95,-9.14,7.48,0
3297,49.96,-15.12,22.46,0
3298,49.97,-17.08,23.49,0
3299,49.99,-16.01,13.64,0
3300,50.0,-7.45,5.97,0
3301,50.01,2.86,7.44,0
3302,50.03,1.67,15.41,0
3303,50.04,-4.9,20.1,0
3304,50.05,-5.51,16.47,0
3305,50.06,-6.46,5.7,0
3306,50.08,-12.0,-6.89,0
3307,50.09,-17.69,-8.84,0
3308,50.11,-21.43,4.72,0
3309,50.12,-17.02,20.43,0
3310,50.13,-2.89,24.69,0
3311,50.15,3.8,17.92,0
3312,50.16,-2.15,8.84,0
3313,50.17,-4.39,7.6,0
3314,50.19,-1.05,12.6,0
3315,50.2,-0.94,11.73,0
3316,50.21,1.23,3.02,0
3317,50.22,10.65,-5.27,0
3318,50.24,18.26,-13.85,0
3319,50.25,15.14,-43.7,0
3320,50.27,7.46,-96.19,0
3321,50.28,5.22,-127.8,0
3322,50.29,11.54,-124.89,0
3323,50.31,26.96,-125.26,0
3324,50.32,42.27,-138.36,0
3325,50.33,42.59,-142.53,0
3326,50.34,30.27,-129.16,0
3327,50.36,19.59,-98.12,0
3328,50.37,14.35,-54.93,0
3329,50.38,6.19,-17.24,0
3330,50.4,-10.04,4.65,0
3331,50.41,-27.42,23.14,0
3332,50.42,-31.65,48.23,0
3333,50.44,-14.76,66.79,0
3334,50.45,4.45,77.43,0
3335,50.46,2.25,97.39,0
3336,50.48,-16.26,121.91,0
3337,50.49,-31.17,142.73,0
3338,50.51,-30.2,166.33,0
3339,50.52,-19.95,181.44,0
3340,50.53,-14.93,174.06,0
3341,50.54,-6.84,159.51,0
3342,50.56,11.33,152.67,0
3343,50.57,17.85,147.45,0
3344,50.59,4.99,139.61,0
3345,50.6,-5.24,129.69,0
3346,50.61,2.14,116.12,0
3347,50.63,15.79,104.85,0
3348,50.64,13.18,96.64,0
3349,50.65,-2.06,73.22,0
3350,50.67,-3.24,31.25,0
3351,50.68,9.09,2.26,0
3352,50.69,9.09,9.13,0
3353,50.71,-6.98,33.87,0
3354,50.72,-17.62,47.1,0
3355,50.73,-14.49,40.71,0
3356,50.75,-11.58,27.04,0
3357,50.76,-13.25,19.97,0
3358,50.77,-8.44,19.57,0
3359,50.79,2.43,17.23,0
3360,50.8,4.46,7.37,0
3361,50.81,-3.01,-3.65,0
3362,50.83,-3.53,-6.39,0
3363,50.84,1.59,-9.01,0
3364,50.85,-3.7,-20.82,0
3365,50.87,-13.63,-30.6,0
3366,50.88,-13.23,-27.73,0
3367,50.89,-2.47,-21.58,0
3368,50.9,6.95,-27.76,0
3369,50.92,1.77,-41.2,0
3370,50.93,-8.7,-39.67,0
3371,50.95,-2.3,-25.85,0
3372,50.96,9.22,-23.24,0
3373,50.97,5.75,-30.68,0
3374,50.98,1.93,-36.78,0
3375,51.0,10.98,-45.8,0
3376,51.01,17.54,-54.81,0
3377,51.02,10.63,-49.45,0
3378,51.04,-0.07,-32.85,0
3379,51.05,-2.87,-28.18,0
3380,51.06,-0.14,-43.88,0
3381,51.08,0.78,-59.29,0
3382,51.09,-0.95,-56.77,0
3383,51.1,-4.25,-45.64,0
3384,51.12,-3.51,-41.8,0
3385,51.13,3.5,-43.23,0
3386,51.15,4.76,-42.15,0
3387,51.16,-2.68,-42.98,0
3388,51.17,-5.33,-47.63,0
3389,51.19,0.11,-47.26,0
3390,51.2,4.88,-40.58,0
3391,51.21,7.56,-34.75,0
3392,51.22,10.15,-33.81,0
3393,51.24,9.57,-38.61,0
3394,51.25,6.56,-45.26,0
3395,51.27,5.79,-49.48,0
3396,51.28,6.59,-46.92,0
3397,51.29,2.67,-32.57,0
3398,51.31,-1.89,-17.22,0
3399,51.32,2.67,-18.9,0
3400,51.33,9.08,-31.93,0
3401,51.35,8.78,-36.11,0
3402,51.36,6.69,-28.51,0
3403,51.37,0.28,-20.77,0
3404,51.38,-13.12,-23.43,0
3405,51.4,-17.34,-36.21,0
3406,51.41,-3.49,-37.46,0
3407,51.43,9.32,-14.29,0
3408,51.44,4.4,6.55,0
3409,51.45,-5.13,2.23,0
3410,51.47,-2.16,-12.82,0
3411,51.48,3.68,-20.79,0
3412,51.49,1.22,-21.79,0
3413,51.51,-1.23,-20.51,0
3414,51.52,-0.39,-17.48,0
3415,51.53,-2.89,-9.41,0
3416,51.54,-8.11,-1.66,0
3417,51.56,-9.85,-8.36,0
3418,51.57,-4.18,-22.62,0
3419,51.59,4.02,-20.28,0
3420,51.6,9.58,-9.22,0
3421,51.61,11.39,-15.57,0
3422,51.62,4.44,-24.69,0
3423,51.64,-9.11,-12.17,0
3424,51.65,-15.27,4.45,0
3425,51.66,-10.4,4.96,0
3426,51.68,-4.07,2.06,0
3427,51.69,-3.98,8.1,0
3428,51.7,-5.74,13.82,0
3429,51.72,1.29,11.4,0
3430,51.73,3.51,9.92,0
3431,51.74,-14.32,13.56,0
3432,51.76,-20.92,8.33,0
3433,51.77,1.81,-9.25,0
3434,51.79,17.16,-17.27,0
3435,51.8,11.03,-3.53,0
3436,51.81,6.23,13.33,0
3437,51.83,3.07,13.64,0
3438,51.84,-6.12,3.57,0
3439,51.85,-8.53,-1.16,0
3440,51.87,-1.65,-0.85,0
3441,51.88,2.04,0.37,0
3442,51.89,2.12,10.02,0
3443,51.9,5.76,22.6,0
3444,51.92,11.77,21.14,0
3445,51.93,10.74,12.87,0
3446,51.95,1.03,16.39,0
3447,51.96,-6.51,25.9,0
3448,51.97,-9.43,26.14,0
3449,51.99,-12.68,22.04,0
3450,52.0,-7.63,27.22,0
3451,52.01,10.85,38.88,0
3452,52.03,22.93,41.8,0
3453,52.04,15.54,32.05,0
3454,52.05,6.97,21.87,0
3455,52.06,8.46,22.58,0
3456,52.08,8.09,29.01,0
3457,52.09,0.77,23.57,0
3458,52.11,-6.11,3.07,0
3459,52.12,-1.64,-7.12,0
3460,52.13,11.7,8.86,0
3461,52.15,11.35,27.45,0
3462,52.16,-7.75,30.06,0
3463,52.17,-19.32,30.72,0
3464,52.19,-10.87,33.27,0
3465,52.2,0.59,23.31,0
3466,52.21,6.1,8.93,0
3467,52.22,13.77,10.85,0
3468,52.24,18.25,19.98,0
3469,52.25,5.81,15.25,0
3470,52.26,-11.26,12.49,0
3471,52.28,-9.57,53.98,0
3472,52.29,5.96,151.51,0
3473,52.3,7.89,255.29,0
3474,52.32,-12.89,310.46,0
3475,52.33,-25.67,315.84,0
3476,52.34,-5.75,278.6,0
3477,52.36,19.09,196.42,0
3478,52.37,18.23,104.67,0
3479,52.38,4.59,36.54,0
3480,52.4,-2.08,-22.33,0
3481,52.41,-0.02,-86.02,0
3482,52.43,2.89,-138.67,0
3483,52.44,-3.54,-166.65,0
3484,52.45,-15.74,-177.2,0
3485,52.47,-18.35,-179.65,0
3486,52.48,-8.0,-174.21,0
3487,52.49,1.85,-161.95,0
3488,52.51,-0.69,-150.53,0
3489,52.52,-10.03,-146.06,0
3490,52.53,-10.98,-144.61,0
3491,52.54,-2.0,-135.42,0
3492,52.56,0.43,-109.8,0
3493,52.57,-7.5,-67.44,0
3494,52.59,-5.48,-29.88,0
3495,52.6,7.89,-30.67,0
3496,52.61,15.58,-67.01,0
3497,52.63,21.73,-92.96,0
3498,52.64,25.22,-85.67,0
3499,52.65,12.9,-69.17,0
3500,52.67,-0.5,-65.62,0
3501,52.68,-3.49,-65.35,0
3502,52.69,-5.61,-52.78,0
3503,52.71,-4.33,-36.2,0
3504,52.72,-1.93,-28.18,0
3505,52.73,-8.1,-23.05,0
3506,52.75,-6.66,-18.88,0
3507,52.76,12.43,-17.24,0
3508,52.77,20.42,-10.59,0
3509,52.79,2.59,1.0,0
3510,52.8,-12.44,7.95,0
3511,52.81,-3.58,7.08,0
3512,52.83,8.51,2.97,0
3513,52.84,-2.07,1.08,0
3514,52.85,-21.81,1.96,0
3515,52.87,-18.42,5.16,0
3516,52.88,3.22,8.72,0
3517,52.89,11.06,12.37,0
3518,52.9,-1.11,21.89,0
3519,52.92,-8.84,29.86,0
3520,52.93,-1.75,22.75,0
3521,52.94,1.8,10.17,0
3522,52.96,-6.69,9.29,0
3523,52.97,-7.38,16.9,0
3524,52.98,3.75,19.12,0
3525,53.0,4.66,17.92,0
3526,53.01,-3.6,26.36,0
3527,53.02,-1.16,41.83,0
3528,53.04,6.74,50.73,0
3529,53.05,0.7,43.13,0
3530,53.06,-13.79,19.67,0
3531,53.08,-12.12,2.73,0
3532,53.09,6.71,12.69,0
3533,53.11,18.02,33.47,0
3534,53.12,12.07,38.3,0
3535,53.13,2.34,33.08,0
3536,53.15,-3.84,37.31,0
3537,53.16,-11.73,43.3,0
3538,53.17,-13.96,31.95,0
3539,53.19,-5.68,15.01,0
3540,53.2,-2.53,17.38,0
3541,53.21,-4.68,33.77,0
3542,53.22,-0.42,39.03,0
3543,53.24,2.97,34.94,0
3544,53.25,3.74,35.98,0
3545,53.27,9.7,32.11,0
3546,53.28,10.97,24.9,0
3547,53.29,-0.02,33.33,0
3548,53.31,-9.66,42.51,0
3549,53.32,-7.59,34.46,0
3550,53.33,-2.41,27.72,0
3551,53.35,-2.51,28.2,0
3552,53.36,-0.85,19.49,0
3553,53.37,4.32,8.83,0
3554,53.38,2.04,9.85,0
3555,53.4,-4.51,11.36,0
3556,53.41,-6.23,6.92,0
3557,53.43,-8.83,10.36,0
3558,53.44,-12.26,25.21,0
3559,53.45,-6.39,37.65,0
3560,53.47,3.73,37.8,0
3561,53.48,4.21,29.2,0
3562,53.49,-5.76,17.58,0
3563,53.51,-13.29,8.04,0
3564,53.52,-10.1,5.88,0
3565,53.53,-4.75,8.83,0
3566,53.54,-2.04,6.99,0
3567,53.56,6.52,-3.74,0
3568,53.57,16.18,-9.83,0
3569,53.58,11.43,-1.59,0
3570,53.6,-1.77,4.53,0
3571,53.61,-4.3,-0.86,0
3572,53.62,4.34,-5.33,0
3573,53.64,11.43,-5.69,0
3574,53.65,11.35,-4.9,0
3575,53.66,2.56,2.68,0
3576,53.68,-9.18,11.69,0
3577,53.69,-7.49,6.55,0
3578,53.7,5.67,-7.44,0
3579,53.72,8.1,-10.61,0
3580,53.73,-2.0,-1.76,0
3581,53.75,-7.03,6.54,0
3582,53.76,-2.14,5.88,0
3583,53.77,4.59,-7.39,0
3584,53.79,4.24,-24.17,0
3585,53.8,-3.98,-25.94,0
3586,53.81,-8.13,-14.04,0
3587,53.83,-6.27,-6.73,0
3588,53.84,-8.95,-8.44,0
3589,53.85,-11.34,-9.03,0
3590,53.87,-7.46,-9.76,0
3591,53.88,-7.12,-18.09,0
3592,53.89,-10.52,-25.75,0
3593,53.9,-6.84,-23.91,0
3594,53.92,2.31,-19.78,0
3595,53.93,7.11,-16.68,0
3596,53.95,2.4,-6.26,0
3597,53.96,-9.0,5.31,0
3598,53.97,-14.11,-0.1,0
3599,53.99,-4.06,-16.29,0
3600,54.0,8.37,-18.33,0
3601,54.01,8.84,-6.77,0
3602,54.03,4.35,-3.55,0
3603,54.04,5.02,-10.24,0
3604,54.05,9.53,-14.33,0
3605,54.06,10.54,-19.78,0
3606,54.08,-1.3,-28.39,0
3607,54.09,-17.29,-28.57,0
3608,54.11,-7.9,-22.53,0
3609,54.12,25.67,-19.02,0
3610,54.13,40.11,-11.27,0
3611,54.15,16.66,-2.2,0
3612,54.16,-8.0,-12.13,0
3613,54.17,-3.14,-32.26,0
3614,54.18,11.19,-28.66,0
3615,54.2,10.82,-3.21,0
3616,54.21,7.35,11.03,0
3617,54.22,8.35,10.72,0
3618,54.24,0.8,31.08,0
3619,54.25,-6.02,77.46,0
3620,54.26,11.07,103.09,0
3621,54.28,36.36,98.69,0
3622,54.29,32.32,66.1,0
3623,54.3,2.84,-17.36,0
3624,54.32,-14.68,-60.54,0
3625,54.33,-13.88,3.52,0
3626,54.34,-18.46,38.76,0
3627,54.36,-25.71,-18.7,0
3628,54.37,-15.75,-67.0,0
3629,54.38,1.93,-50.57,0
3630,54.4,1.62,11.1,0
3631,54.41,-10.4,53.3,0
3632,54.43,-6.34,25.23,0
3633,54.44,4.76,-25.49,0
3634,54.45,-4.3,-48.76,0
3635,54.47,-15.95,-66.39,0
3636,54.48,-7.0,-88.12,0
3637,54.49,1.16,-88.12,0
3638,54.51,-0.99,-63.52,0
3639,54.52,8.67,-39.73,0
3640,54.53,19.42,-33.54,0
3641,54.54,4.13,-31.35,0
3642,54.56,-18.01,-7.08,0
3643,54.57,-13.95,17.27,0
3644,54.59,5.52,-26.15,0
3645,54.6,11.84,-93.51,0
3646,54.61,4.86,-58.18,0
3647,54.63,3.34,13.8,0
3648,54.64,12.04,-2.95,0
3649,54.65,16.68,-21.74,0
3650,54.67,7.98,32.89,0
3651,54.68,-1.49,68.38,0
3652,54.69,-2.51,22.48,0
3653,54.71,-13.44,-44.18,0
3654,54.72,-35.38,-51.29,0
3655,54.73,-30.74,-14.64,0
3656,54.75,-0.85,-2.81,0
3657,54.76,12.91,-10.28,0
3658,54.77,14.91,-2.38,0
3659,54.79,24.42,1.07,0
3660,54.8,24.28,-15.31,0
3661,54.81,12.35,-35.25,0
3662,54.82,8.18,-41.81,0
3663,54.84,8.74,-25.96,0
3664,54.85,4.27,-11.93,0
3665,54.86,2.09,-22.59,0
3666,54.88,7.31,-23.63,0
3667,54.89,8.2,8.08,0
3668,54.9,-4.98,31.07,0
3669,54.92,-18.74,23.41,0
3670,54.93,-12.87,19.05,0
3671,54.94,8.91,33.69,0
3672,54.96,19.23,49.7,0
3673,54.97,6.29,43.5,0
3674,54.98,-2.45,4.23,0
3675,55.0,10.14,-26.06,0
3676,55.01,18.52,-8.97,0
3677,55.025000000000006,8.51,21.05,0
3678,55.04,-5.14,36.09,0
3679,55.05,-16.37,47.81,0
3680,55.06,-24.53,47.13,0
3681,55.08,-23.15,24.63,0
3682,55.09,-13.15,17.37,0
3683,55.11,-2.87,52.28,0
3684,55.12,0.41,70.52,0
3685,55.13,-7.84,19.52,0
3686,55.15,-18.08,-32.89,0
3687,55.16,-13.72,-15.39,0
3688,55.17,4.4,23.98,0
3689,55.19,20.43,24.67,0
3690,55.2,18.43,6.85,0
3691,55.21,-0.32,4.88,0
3692,55.22,-11.63,16.52,0
3693,55.24,-1.18,23.09,0
3694,55.25,11.5,15.92,0
3695,55.27,2.5,8.06,0
3696,55.28,-16.05,22.09,0
3697,55.29,-14.16,53.24,0
3698,55.31,2.36,51.94,0
3699,55.32,5.06,-5.0,0
3700,55.33,-1.06,-43.51,0
3701,55.35,5.39,-1.82,0
3702,55.36,13.41,41.5,0
3703,55.37,-3.46,-0.7,0
3704,55.38,-27.56,-72.05,0
3705,55.4,-12.75,-86.24,0
3706,55.41,22.23,-51.93,0
3707,55.43,15.34,-11.93,0
3708,55.44,-20.58,4.42,0
3709,55.45,-24.05,-20.86,0
3710,55.46,3.13,-44.42,0
3711,55.48,13.47,-13.24,0
3712,55.49,-1.44,36.66,0
3713,55.5,-14.39,46.68,0
3714,55.52,-8.82,14.06,0
3715,55.53,6.91,-27.61,0
3716,55.54,13.48,-41.11,0
3717,55.56,5.18,-18.56,0
3718,55.57,-8.6,10.05,0
3719,55.58,-16.57,14.67,0
3720,55.6,-10.58,-5.79,0
3721,55.61,4.41,-21.64,0
3722,55.62,13.99,-10.52,0
3723,55.64,10.03,4.7,0
3724,55.65,-4.45,-2.51,0
3725,55.66,-14.6,-19.22,0
3726,55.68,-8.2,-9.42,0
3727,55.69,6.18,33.95,0
3728,55.71,8.76,56.99,0
3729,55.72,-5.09,37.31,0
3730,55.73,-16.2,31.4,0
3731,55.75,-11.97,42.79,0
3732,55.76,-1.98,6.58,0
3733,55.77,4.87,-54.6,0
3734,55.79,2.03,-49.53,0
3735,55.8,-9.82,-1.27,0
3736,55.81,-9.7,3.1,0
3737,55.83,5.38,3.24,0
3738,55.84,13.89,50.87,0
3739,55.85,13.8,64.17,0
3740,55.87,12.19,11.98,0
3741,55.88,6.74,-15.23,0
3742,55.89,5.12,7.15,0
3743,55.9,9.11,11.17,0
3744,55.92,6.09,-24.93,0
3745,55.93,4.09,-33.15,0
3746,55.95,7.7,26.0,0
3747,55.96,-2.59,67.42,0
3748,55.97,-19.82,33.73,0
3749,55.99,-17.16,11.6,0
3750,56.0,-2.69,42.79,0
3751,56.01,-0.06,33.86,0
3752,56.03,-7.04,-36.73,0
3753,56.04,-3.82,-68.03,0
3754,56.05,10.36,-25.88,0
3755,56.06,11.09,24.49,0
3756,56.08,-5.75,26.21,0
3757,56.09,-17.16,-14.19,0
3758,56.1,-18.81,-30.12,0
3759,56.12,-13.72,-2.75,0
3760,56.13,1.45,3.78,0
3761,56.14,11.59,-15.61,0
3762,56.16,8.03,-21.57,0
3763,56.17,-0.75,-48.94,0
3764,56.18,-12.64,-108.22,0
3765,56.2,-15.32,-118.68,0
3766,56.21,2.79,-50.52,0
3767,56.22,20.43,27.41,0
3768,56.24,15.31,49.35,0
3769,56.25,-3.56,16.59,0
3770,56.26,-11.9,-28.88,0
3771,56.28,4.03,-58.34,0
3772,56.29,20.5,-67.93,0
3773,56.3,6.56,-59.47,0
3774,56.32,-10.72,-40.11,0
3775,56.33,2.26,-22.08,0
3776,56.35,16.91,-19.64,0
3777,56.36,8.96,-38.79,0
3778,56.37,2.91,-52.13,0
3779,56.38,8.65,-21.29,0
3780,56.4,5.0,33.77,0
3781,56.41,-5.44,56.27,0
3782,56.43,-1.81,46.48,0
3783,56.44,12.71,43.64,0
3784,56.45,17.95,48.8,0
3785,56.47,6.85,48.9,0
3786,56.48,-5.55,52.89,0
3787,56.49,-4.66,62.56,0
3788,56.51,4.97,64.34,0
3789,56.52,12.82,58.38,0
3790,56.53,13.16,58.56,0
3791,56.54,6.75,59.83,0
3792,56.56,0.15,55.73,0
3793,56.57,-7.54,62.76,0
3794,56.59,-16.28,76.22,0
3795,56.6,-12.17,63.38,0
3796,56.61,3.15,19.95,0
3797,56.63,4.47,-16.08,0
3798,56.64,-6.14,-12.79,0
3799,56.65,2.9,13.45,0
3800,56.67,28.03,27.85,0
3801,56.68,27.88,24.63,0
3802,56.69,-2.26,21.05,0
3803,56.71,-15.59,28.38,0
3804,56.72,12.48,34.94,0
3805,56.73,45.35,30.44,0
3806,56.74,40.05,24.67,0
3807,56.76,7.55,24.21,0
3808,56.77,-16.14,28.07,0
3809,56.78,-25.84,34.86,0
3810,56.8,-34.47,32.91,0
3811,56.81,-36.46,17.12,0
3812,56.82,-30.68,11.25,0
3813,56.84,-34.45,25.89,0
3814,56.85,-20.36,29.42,0
3815,56.86,42.17,12.52,0
3816,56.88,78.84,2.64,0
3817,56.89,16.31,7.87,0
3818,56.9,-72.08,16.2,0
3819,56.92,-76.38,17.8,0
3820,56.93,-17.95,11.2,0
3821,56.94,14.56,7.09,0
3822,56.96,1.55,3.83,0
3823,56.97,-21.53,-10.04,0
3824,56.99,-28.46,-25.16,0
3825,57.0,-22.79,-32.84,0
3826,57.01,-18.18,-40.22,0
3827,57.03,-10.78,-38.71,0
3828,57.04,2.6,-21.53,0
3829,57.05,7.84,-13.0,0
3830,57.06,0.6,-23.37,0
3831,57.08,-9.73,-31.71,0
3832,57.09,-16.35,-30.45,0
3833,57.11,-13.4,-28.55,0
3834,57.12,-0.39,-27.1,0
3835,57.13,14.47,-23.68,0
3836,57.15,23.13,-24.97,0
3837,57.16,25.11,-37.67,0
3838,57.17,23.99,-49.46,0
3839,57.19,14.98,-44.81,0
3840,57.2,-0.71,-31.25,0
3841,57.21,-6.55,-25.78,0
3842,57.22,-2.72,-29.98,0
3843,57.24,-3.2,-31.47,0
3844,57.25,-3.25,-26.46,0
3845,57.27,1.99,-26.36,0
3846,57.28,3.19,-35.64,0
3847,57.29,3.15,-46.05,0
3848,57.31,10.93,-50.72,0
3849,57.32,16.48,-46.67,0
3850,57.33,10.62,-35.14,0
3851,57.35,5.0,-21.91,0
3852,57.36,8.37,-12.95,0
3853,57.37,14.33,-13.2,0
3854,57.38,16.06,-21.32,0
3855,57.4,14.48,-26.76,0
3856,57.41,12.25,-19.29,0
3857,57.42,3.96,-7.28,0
3858,57.44,-8.45,-11.65,0
3859,57.45,-3.47,-29.2,0
3860,57.46,19.27,-29.56,0
3861,57.48,29.13,-5.27,0
3862,57.49,23.03,6.18,0
3863,57.5,21.03,-14.36,0
3864,57.52,13.57,-29.5,0
3865,57.53,-10.52,-16.88,0
3866,57.54,-26.04,-4.95,0
3867,57.56,-11.88,-9.35,0
3868,57.57,9.92,-12.29,0
3869,57.58,8.11,-10.13,0
3870,57.6,-5.79,-11.91,0
3871,57.61,-4.54,-11.57,0
3872,57.63,-3.75,-5.78,0
3873,57.64,-19.8,-1.9,0
3874,57.65,-24.32,2.76,0
3875,57.67,-4.0,9.06,0
3876,57.68,13.02,7.25,0
3877,57.69,10.27,0.73,0
3878,57.71,3.06,2.14,0
3879,57.72,2.78,6.97,0
3880,57.73,0.57,1.6,0
3881,57.75,-3.86,-9.96,0
3882,57.76,2.05,-10.69,0
3883,57.77,10.3,3.98,0
3884,57.79,0.78,20.51,0
3885,57.8,-20.64,24.5,0
3886,57.81,-22.8,18.52,0
3887,57.83,3.8,14.35,0
3888,57.84,23.86,6.47,0
3889,57.85,11.86,-11.26,0
3890,57.87,-6.02,-16.19,0
3891,57.88,-2.9,-0.48,0
3892,57.89,3.85,7.85,0
3893,57.9,-6.36,0.99,0
3894,57.92,-19.5,-1.01,0
3895,57.93,-17.21,3.28,0
3896,57.95,-4.48,3.0,0
3897,57.96,2.2,7.8,0
3898,57.97,-2.29,21.33,0
3899,57.99,-1.39,21.4,0
3900,58.0,10.58,5.31,0
3901,58.01,12.67,1.4,0
3902,58.02,-1.55,16.01,0
3903,58.04,-17.09,21.4,0
3904,58.05,-21.43,4.51,0
3905,58.06,-13.66,-13.1,0
3906,58.08,-10.07,-8.74,0
3907,58.09,-19.7,9.7,0
3908,58.1,-23.19,16.09,0
3909,58.12,-11.59,8.05,0
3910,58.13,-2.8,4.35,0
3911,58.14,-3.15,5.09,0
3912,58.16,-1.42,0.57,0
3913,58.17,8.76,-0.8,0
3914,58.18,20.55,11.69,0
3915,58.2,9.91,25.74,0
3916,58.21,-17.2,15.66,0
3917,58.22,-11.23,-18.08,0
3918,58.24,17.7,-47.16,0
3919,58.25,9.0,-65.63,0
3920,58.26,-12.43,-91.98,0
3921,58.28,5.92,-118.52,0
3922,58.29,23.39,-118.15,0
3923,58.31,14.87,-100.0,0
3924,58.32,33.65,-95.6,0
3925,58.33,69.04,-99.17,0
3926,58.35,50.82,-87.66,0
3927,58.36,3.73,-67.87,0
3928,58.37,-3.71,-51.46,0
3929,58.38,10.37,-28.72,0
3930,58.4,3.04,2.08,0
3931,58.41,-18.9,21.84,0
3932,58.43,-34.03,31.9,0
3933,58.44,-31.73,53.42,0
3934,58.45,-20.85,78.05,0
3935,58.47,-13.84,86.99,0
3936,58.48,-5.82,95.15,0
3937,58.49,-7.55,117.46,0
3938,58.51,-34.55,137.94,0
3939,58.52,-54.85,139.87,0
3940,58.53,-35.68,130.99,0
3941,58.54,-8.38,131.7,0
3942,58.56,-8.9,144.8,0
3943,58.57,-16.39,151.78,0
3944,58.59,-10.0,146.84,0
3945,58.6,-7.57,140.21,0
3946,58.61,-12.95,129.14,0
3947,58.63,-5.14,108.63,0
3948,58.64,12.0,90.96,0
3949,58.65,14.91,83.46,0
3950,58.66,3.51,75.41,0
3951,58.68,-3.2,63.46,0
3952,58.69,-3.29,56.39,0
3953,58.7,-7.06,52.71,0
3954,58.72,-6.79,43.68,0
3955,58.73,3.75,29.06,0
3956,58.74,9.07,19.78,0
3957,58.76,6.2,23.76,0
3958,58.77,6.79,28.31,0
3959,58.78,7.47,17.16,0
3960,58.8,2.33,-2.48,0
3961,58.81,-0.83,-15.01,0
3962,58.82,1.31,-14.79,0
3963,58.84,2.27,-8.4,0
3964,58.85,1.91,-12.42,0
3965,58.86,4.56,-25.63,0
3966,58.88,8.84,-25.51,0
3967,58.89,14.66,-13.72,0
3968,58.9,25.84,-16.17,0
3969,58.92,31.31,-33.01,0
3970,58.93,14.66,-38.78,0
3971,58.95,-8.32,-29.22,0
3972,58.96,-7.58,-28.13,0
3973,58.97,11.22,-44.3,0
3974,58.99,17.48,-57.25,0
3975,59.0,6.14,-55.22,0
3976,59.01,1.92,-50.71,0
3977,59.03,11.17,-53.23,0
3978,59.04,13.05,-59.24,0
3979,59.05,5.3,-63.69,0
3980,59.06,8.3,-59.67,0
3981,59.08,19.75,-46.58,0
3982,59.09,14.95,-41.85,0
3983,59.11,-6.36,-52.31,0
3984,59.12,-16.75,-57.31,0
3985,59.13,-7.17,-44.86,0
3986,59.15,2.51,-32.69,0
3987,59.16,1.75,-36.75,0
3988,59.17,-0.13,-48.54,0
3989,59.19,4.82,-53.26,0
3990,59.2,15.42,-49.63,0
3991,59.21,19.27,-43.57,0
3992,59.22,7.99,-38.84,0
3993,59.24,-5.39,-41.08,0
3994,59.25,-8.66,-48.67,0
3995,59.27,-5.17,-42.72,0
3996,59.28,-0.36,-20.37,0
3997,59.29,3.86,-14.56,0
3998,59.3,5.23,-34.36,0
3999,59.32,0.11,-42.46,0
4000,59.33,-8.11,-26.82,0
4001,59.34,-8.74,-16.91,0
4002,59.36,-2.6,-25.91,0
4003,59.37,1.87,-35.29,0
4004,59.38,4.79,-30.42,0
4005,59.4,5.73,-24.14,0
4006,59.41,-2.86,-31.67,0
4007,59.42,-17.37,-40.19,0
4008,59.44,-21.6,-33.55,0
4009,59.45,-6.84,-22.16,0
4010,59.46,17.0,-24.45,0
4011,59.48,23.46,-34.62,0
4012,59.49,1.24,-31.45,0
4013,59.5,-18.17,-18.48,0
4014,59.52,-14.45,-13.97,0
4015,59.53,-10.58,-10.15,0
4016,59.54,-7.99,-0.87,0
4017,59.56,13.63,-5.2,0
4018,59.57,29.34,-17.84,0
4019,59.59,8.23,-7.36,0
4020,59.6,-21.55,22.12,0
4021,59.61,-18.91,31.21,0
4022,59.63,8.02,8.93,0
4023,59.64,19.42,-8.44,0
4024,59.65,1.07,-0.02,0
4025,59.67,-14.1,9.23,0
4026,59.68,-2.9,3.21,0
4027,59.69,3.27,-0.66,0
4028,59.71,-18.07,6.79,0
4029,59.72,-31.5,12.47,0
4030,59.73,-14.15,8.24,0
4031,59.75,6.38,2.9,0
4032,59.76,11.33,5.72,0
4033,59.77,6.7,12.59,0
4034,59.79,-2.67,16.45,0
4035,59.8,-7.28,14.22,0
4036,59.81,0.32,4.27,0
4037,59.83,10.16,-1.25,0
4038,59.84,13.49,8.77,0
4039,59.85,13.51,21.13,0
4040,59.87,9.1,22.45,0
4041,59.88,-10.41,17.94,0
4042,59.89,-35.4,15.91,0
4043,59.9,-29.68,15.35,0
4044,59.92,3.88,11.84,0
4045,59.93,14.59,8.92,0
4046,59.94,-0.24,11.23,0
4047,59.96,0.54,14.67,0
4048,59.97,8.52,16.73,0
4049,59.98,-3.2,22.07,0
4050,60.0,-12.71,31.24,0
4051,60.01,-1.19,33.3,0
4052,60.02,9.6,20.82,0
4053,60.04,5.74,12.38,0
4054,60.05,-5.02,21.18,0
4055,60.06,-15.0,26.7,0
4056,60.08,-18.68,21.6,0
4057,60.09,-15.65,22.77,0
4058,60.1,-6.82,24.65,0
4059,60.12,6.23,12.12,0
4060,60.13,11.43,1.38,0
4061,60.14,4.26,13.51,0
4062,60.16,1.62,32.96,0
4063,60.17,9.39,38.53,0
4064,60.18,6.82,34.34,0
4065,60.2,-8.74,24.9,0
4066,60.21,-11.07,11.58,0
4067,60.22,3.64,6.34,0
4068,60.24,12.61,7.97,0
4069,60.25,7.15,2.75,0
4070,60.27,-3.15,8.63,0
4071,60.28,-10.35,55.75,0
4072,60.29,-8.31,136.63,0
4073,60.31,7.93,222.52,0
4074,60.32,23.73,283.82,0
4075,60.33,12.21,302.81,0
4076,60.35,-18.91,287.13,0
4077,60.36,-30.41,229.17,0
4078,60.37,-15.83,121.56,0
4079,60.38,-6.1,19.67,0
4080,60.4,-10.78,-27.58,0
4081,60.41,-14.27,-52.85,0
4082,60.43,-14.66,-99.77,0
4083,60.44,-14.98,-149.19,0
4084,60.45,-7.7,-167.65,0
4085,60.47,3.08,-166.97,0
4086,60.48,11.69,-170.27,0
4087,60.49,27.23,-176.92,0
4088,60.51,36.59,-174.36,0
4089,60.52,18.88,-155.9,0
4090,60.53,-5.0,-134.14,0
4091,60.54,-6.68,-124.4,0
4092,60.56,10.21,-120.62,0
4093,60.57,28.56,-114.31,0
4094,60.58,33.55,-108.21,0
4095,60.6,20.76,-103.64,0
4096,60.61,6.71,-100.96,0
4097,60.62,5.51,-103.44,0
4098,60.64,3.4,-110.82,0
4099,60.65,-8.8,-115.85,0
4100,60.66,-11.71,-108.23,0
4101,60.68,2.99,-86.07,0
4102,60.69,17.36,-58.0,0
4103,60.7,18.0,-35.66,0
4104,60.72,13.48,-23.41,0
4105,60.73,23.03,-14.05,0
4106,60.74,36.13,-3.24,0
4107,60.76,21.14,2.78,0
4108,60.77,-9.93,-1.71,0
4109,60.78,-20.25,-7.71,0
4110,60.8,-11.97,6.83,0
4111,60.81,-7.73,35.69,0
4112,60.82,-10.8,41.14,0
4113,60.84,-15.4,21.97,0
4114,60.85,-17.53,16.6,0
4115,60.865,-8.85,28.62,0
4116,60.88,7.96,32.91,0
4117,60.89,10.81,31.51,0
4118,60.9,-6.36,39.47,0
4119,60.92,-16.65,53.8,0
4120,60.93,-7.06,61.2,0
4121,60.95,0.96,54.95,0
4122,60.96,-1.6,45.73,0
4123,60.97,-4.34,46.94,0
4124,60.99,-8.17,49.68,0
4125,61.0,-12.27,40.9,0
4126,61.01,-5.8,35.08,0
4127,61.03,7.06,49.21,0
4128,61.04,11.82,63.27,0
4129,61.05,11.6,47.69,0
4130,61.06,9.99,18.97,0
4131,61.08,-5.59,16.38,0
4132,61.09,-28.71,40.12,0
4133,61.11,-29.57,59.5,0
4134,61.12,-6.1,55.22,0
4135,61.13,9.34,33.28,0
4136,61.15,7.86,19.52,0
4137,61.16,2.91,28.34,0
4138,61.17,-13.61,38.99,0
4139,61.19,-32.91,36.62,0
4140,61.2,-17.88,37.64,0
4141,61.21,18.38,42.93,0
4142,61.22,28.74,36.17,0
4143,61.24,14.18,24.81,0
4144,61.25,3.47,22.44,0
4145,61.26,2.37,21.17,0
4146,61.28,1.51,15.49,0
4147,61.29,-4.47,14.59,0
4148,61.3,-11.64,17.31,0
4149,61.32,-11.14,16.17,0
4150,61.33,-5.94,19.16,0
4151,61.34,-8.2,29.11,0
4152,61.36,-15.6,30.25,0
4153,61.37,-14.49,17.23,0
4154,61.38,-4.39,3.71,0
4155,61.4,5.37,0.31,0
4156,61.41,7.79,7.86,0
4157,61.42,-0.68,19.04,0
4158,61.44,-8.02,21.91,0
4159,61.45,-0.93,13.56,0
4160,61.46,8.06,5.25,0
4161,61.48,4.74,4.72,0
4162,61.49,-1.68,6.51,0
4163,61.5,-2.09,2.71,0
4164,61.52,-2.51,-3.74,0
4165,61.53,-10.7,-4.14,0
4166,61.54,-20.61,0.42,0
4167,61.56,-11.88,3.28,0
4168,61.57,14.42,3.42,0
4169,61.59,22.3,4.98,0
4170,61.6,3.96,7.99,0
4171,61.61,-7.61,5.77,0
4172,61.63,-4.4,1.35,0
4173,61.64,-8.07,0.32,0
4174,61.65,-14.29,-5.46,0
4175,61.67,-0.58,-15.49,0
4176,61.68,16.08,-15.44,0
4177,61.69,5.95,-6.52,0
4178,61.71,-10.21,-4.2,0
4179,61.72,-4.09,-12.08,0
4180,61.73,9.51,-16.12,0
4181,61.75,14.06,-9.65,0
4182,61.76,10.28,-8.66,0
4183,61.77,0.63,-17.91,0
4184,61.79,-1.0,-17.09,0
4185,61.8,15.13,-7.09,0
4186,61.81,28.25,-11.68,0
4187,61.83,15.41,-25.46,0
4188,61.84,-13.09,-24.78,0
4189,61.85,-26.22,-16.13,0
4190,61.86,-10.22,-18.47,0
4191,61.88,10.8,-25.15,0
4192,61.89,9.73,-21.95,0
4193,61.9,0.21,-10.97,0
4194,61.92,4.35,-5.24,0
4195,61.93,11.95,-11.93,0
4196,61.94,8.7,-21.3,0
4197,61.96,-3.5,-23.53,0
4198,61.97,-16.31,-23.21,0
4199,61.98,-18.17,-26.59,0
4200,62.0,-8.79,-28.03,0
4201,62.01,1.13,-22.5,0
4202,62.02,6.87,-18.92,0
4203,62.04,7.71,-20.51,0
4204,62.05,9.16,-16.63,0
4205,62.06,17.68,-6.41,0
4206,62.08,16.03,-0.06,0
4207,62.09,-8.51,0.38,0
4208,62.1,-22.3,-6.16,0
4209,62.12,-4.83,-22.99,0
4210,62.13,6.72,-35.7,0
4211,62.14,-4.39,-28.8,0
4212,62.16,-7.3,-11.97,0
4213,62.17,3.39,11.9,0
4214,62.19,5.18,63.89,0
4215,62.2,0.94,134.23,0
4216,62.21,8.15,170.28,0
4217,62.22,17.27,163.49,0
4218,62.24,9.93,148.05,0
4219,62.25,-0.02,90.46,0
4220,62.27,3.87,-50.9,0
4221,62.28,6.22,-148.24,0
4222,62.29,-4.75,-66.43,0
4223,62.31,-14.64,50.7,0
4224,62.32,-10.6,42.15,0
4225,62.33,-0.6,-8.24,0
4226,62.35,7.47,-23.85,0
4227,62.36,12.43,4.22,0
4228,62.37,1.53,83.2,0
4229,62.38,-15.53,110.7,0
4230,62.4,-9.24,37.39,0
4231,62.41,0.79,5.82,0
4232,62.43,-14.03,55.71,0
4233,62.44,-25.15,17.82,0
4234,62.45,-16.13,-142.88,0
4235,62.47,-14.55,-204.59,0
4236,62.48,-17.24,-66.05,0
4237,62.49,2.84,40.89,0
4238,62.5,28.67,-37.33,0
4239,62.52,22.57,-127.25,0
4240,62.53,-7.98,-112.72,0
4241,62.54,-18.9,-86.44,0
4242,62.56,1.5,-94.84,0
4243,62.57,20.61,-102.48,0
4244,62.58,19.66,-92.14,0
4245,62.6,11.39,-72.08,0
4246,62.61,15.04,-55.92,0
4247,62.62,30.37,-27.16,0
4248,62.64,29.49,15.21,0
4249,62.65,9.64,-1.5,0
4250,62.66,5.7,-60.54,0
4251,62.68,11.43,-45.72,0
4252,62.69,-5.06,1.35,0
4253,62.7,-18.36,-10.13,0
4254,62.72,-0.21,-23.54,0
4255,62.73,11.38,-18.6,0
4256,62.74,-8.12,-42.71,0
4257,62.76,-25.45,-63.29,0
4258,62.77,-20.11,-42.82,0
4259,62.78,-2.02,-21.15,0
4260,62.8,8.39,-38.14,0
4261,62.81,-4.03,-58.66,0
4262,62.825,-20.35,-30.11,0
4263,62.84,-17.0,9.24,0
4264,62.85,-3.29,2.12,0
4265,62.87,3.41,-16.48,0
4266,62.88,3.03,-17.22,0
4267,62.89,1.46,-23.76,0
4268,62.9,-0.34,-16.18,0
4269,62.92,5.69,24.89,0
4270,62.93,19.47,54.9,0
4271,62.95,12.1,47.05,0
4272,62.96,-19.03,27.24,0
4273,62.97,-24.04,20.48,0
4274,62.99,2.1,12.21,0
4275,63.0,6.76,-12.67,0
4276,63.01,-4.34,-31.21,0
4277,63.03,11.26,-41.09,0
4278,63.04,32.2,-52.56,0
4279,63.05,20.89,-27.81,0
4280,63.06,-5.21,28.64,0
4281,63.08,-10.1,31.33,0
4282,63.09,8.12,-32.39,0
4283,63.11,17.17,-60.85,0
4284,63.12,1.83,-3.12,0
4285,63.13,-5.52,65.51,0
4286,63.14,9.86,81.26,0
4287,63.16,13.04,73.74,0
4288,63.17,-4.12,53.87,0
4289,63.18,-18.12,-11.48,0
4290,63.2,-26.26,-70.37,0
4291,63.21,-23.1,-37.57,0
4292,63.22,-0.62,47.28,0
4293,63.24,14.54,78.91,0
4294,63.25,2.12,31.22,0
4295,63.26,-10.48,-24.06,0
4296,63.28,-5.02,-6.42,0
4297,63.29,-5.63,51.97,0
4298,63.3,-17.43,57.39,0
4299,63.32,-17.15,34.51,0
4300,63.33,-1.88,46.42,0
4301,63.34,12.24,51.43,0
4302,63.36,12.22,27.41,0
4303,63.37,-1.98,18.2,0
4304,63.38,-13.93,13.46,0
4305,63.4,-10.08,-2.13,0
4306,63.41,-2.83,9.3,0
4307,63.42,-8.33,27.3,0
4308,63.44,-17.34,8.26,0
4309,63.45,-13.13,-2.46,0
4310,63.46,1.38,29.09,0
4311,63.48,6.75,45.94,0
4312,63.49,-2.8,15.31,0
4313,63.51,-0.75,12.88,0
4314,63.52,22.37,74.03,0
4315,63.53,29.0,99.7,0
4316,63.54,11.12,71.54,0
4317,63.56,4.07,70.91,0
4318,63.57,8.99,67.19,0
4319,63.59,6.87,27.13,0
4320,63.6,2.99,11.44,0
4321,63.61,3.35,17.96,0
4322,63.63,1.93,4.66,0
4323,63.64,-4.19,-2.5,0
4324,63.65,-8.67,20.16,0
4325,63.67,-6.51,34.5,0
4326,63.68,-3.34,22.31,0
4327,63.69,-3.32,18.76,0
4328,63.71,-3.95,16.42,0
4329,63.72,-7.93,-17.41,0
4330,63.73,-16.9,-34.15,0
4331,63.75,-18.63,12.16,0
4332,63.76,-3.24,52.9,0
4333,63.77,14.31,27.74,0
4334,63.78,11.98,-9.92,0
4335,63.8,-3.43,-7.53,0
4336,63.81,-10.91,6.68,0
4337,63.82,-9.21,-0.1,0
4338,63.84,-5.33,-25.7,0
4339,63.85,-1.59,-49.68,0
4340,63.86,-4.9,-29.66,0
4341,63.88,-11.1,28.83,0
4342,63.89,-2.05,52.7,0
4343,63.9,14.74,35.09,0
4344,63.92,12.19,23.11,0
4345,63.93,-9.77,3.21,0
4346,63.94,-24.02,-30.71,0
4347,63.96,-14.03,-25.23,0
4348,63.97,7.48,19.91,0
4349,63.98,18.11,31.7,0
4350,64.0,16.16,-13.15,0
4351,64.01,14.49,-41.32,0
4352,64.02,10.72,-3.68,0
4353,64.04,-5.42,41.97,0
4354,64.05,-18.62,38.92,0
4355,64.06,-6.82,7.19,0
4356,64.08,12.03,-11.37,0
4357,64.09,6.45,7.04,0
4358,64.1,-11.6,33.4,0
4359,64.12,-11.96,16.46,0
4360,64.13,-0.62,-22.65,0
4361,64.14,-2.38,-21.27,0
4362,64.16,-3.55,22.1,0
4363,64.17,25.32,47.7,0
4364,64.18,41.76,22.97,0
4365,64.2,3.62,-17.71,0
4366,64.21,-24.32,-46.48,0
4367,64.22,-4.48,-65.19,0
4368,64.24,10.06,-52.16,0
4369,64.25,2.55,-13.84,0
4370,64.26,-4.05,-18.41,0
4371,64.28,-4.44,-93.82,0
4372,64.29,-0.37,-183.85,0
4373,64.3,1.32,-227.04,0
4374,64.32,-1.6,-217.51,0
4375,64.33,-2.62,-186.68,0
4376,64.34,-4.23,-163.71,0
4377,64.36,-5.25,-150.14,0
4378,64.37,6.08,-118.02,0
4379,64.38,17.69,-64.54,0
4380,64.4,6.8,-32.51,0
4381,64.41,-5.82,-40.41,0
4382,64.42,7.87,-48.13,0
4383,64.44,21.05,-22.68,0
4384,64.45,3.39,14.13,0
4385,64.46,-14.98,35.68,0
4386,64.48,-2.8,49.36,0
4387,64.49,10.95,65.25,0
4388,64.5,5.95,80.04,0
4389,64.52,7.97,90.49,0
4390,64.53,19.41,97.08,0
4391,64.54,15.65,98.17,0
4392,64.56,2.8,93.63,0
4393,64.57,1.64,94.15,0
4394,64.58,10.77,104.43,0
4395,64.6,15.04,109.24,0
4396,64.61,4.65,100.67,0
4397,64.62,-14.87,92.01,0
4398,64.64,-24.13,94.87,0
4399,64.65,-13.95,100.84,0
4400,64.66,-2.3,94.17,0
4401,64.68,-6.7,80.04,0
4402,64.69,-16.89,73.27,0
4403,64.7,-12.48,71.26,0
4404,64.72,3.38,69.75,0
4405,64.73,11.96,68.12,0
4406,64.74,6.85,59.33,0
4407,64.76,-7.11,50.47,0
4408,64.77,-15.89,54.91,0
4409,64.79,-9.14,60.79,0
4410,64.8,-0.06,50.23,0
4411,64.81,0.99,32.38,0
4412,64.82,3.83,27.97,0
4413,64.84,3.13,33.78,0
4414,64.85,-11.65,30.88,0
4415,64.86,-20.2,16.48,0
4416,64.88,-9.14,2.75,0
4417,64.89,-0.19,0.3,0
4418,64.9,-3.92,10.96,0
4419,64.92,-5.83,22.16,0
4420,64.93,-5.12,20.79,0
4421,64.94,-12.64,8.64,0
4422,64.96,-14.59,-3.52,0
4423,64.97,3.72,-5.39,0
4424,64.98,19.66,-4.34,0
4425,65.0,12.39,-15.41,0
4426,65.01,-4.27,-28.34,0
4427,65.02,-16.17,-26.53,0
4428,65.04,-19.33,-18.08,0
4429,65.05,-9.98,-16.27,0
4430,65.06,2.94,-17.66,0
4431,65.08,8.65,-17.97,0
4432,65.09,9.66,-21.02,0
4433,65.1,9.76,-23.18,0
4434,65.12,9.33,-22.02,0
4435,65.13,9.53,-25.41,0
4436,65.14,10.98,-29.41,0
4437,65.16,9.18,-28.35,0
4438,65.17,-1.45,-29.03,0
4439,65.18,-12.44,-28.91,0
4440,65.2,-4.51,-24.08,0
4441,65.21,17.22,-24.25,0
4442,65.22,17.96,-30.13,0
4443,65.24,-7.81,-34.26,0
4444,65.25,-19.13,-36.94,0
4445,65.26,-1.4,-36.54,0
4446,65.28,11.31,-33.91,0
4447,65.29,4.64,-34.38,0
4448,65.3,-0.55,-36.41,0
4449,65.32,1.86,-37.4,0
4450,65.33,2.38,-35.79,0
4451,65.34,4.5,-34.77,0
4452,65.36,7.65,-44.23,0
4453,65.37,2.31,-55.63,0
4454,65.38,-2.24,-50.2,0
4455,65.4,-0.38,-35.97,0
4456,65.41,-5.41,-29.48,0
4457,65.42500000000001,-8.59,-29.19,0
4458,65.44,3.97,-32.9,0
4459,65.45,14.92,-39.2,0
4460,65.46,11.07,-37.9,0
4461,65.48,3.38,-33.29,0
4462,65.49,0.67,-40.04,0
4463,65.5,1.79,-48.56,0
4464,65.52,3.62,-43.3,0
4465,65.53,3.42,-33.63,0
4466,65.54,-0.65,-31.32,0
4467,65.56,-2.22,-28.44,0
4468,65.57,6.01,-17.77,0
4469,65.58,13.51,-15.02,0
4470,65.6,9.94,-30.59,0
4471,65.61,3.19,-41.08,0
4472,65.62,-3.74,-30.4,0
4473,65.64,-8.92,-18.83,0
4474,65.65,-2.18,-20.33,0
4475,65.66,6.33,-18.97,0
4476,65.68,-1.59,-7.96,0
4477,65.69,-13.26,-3.72,0
4478,65.7,-5.99,-10.71,0
4479,65.72,10.79,-19.49,0
4480,65.73,9.88,-28.6,0
4481,65.74,-4.93,-31.01,0
4482,65.76,-5.27,-16.61,0
4483,65.77,7.28,-1.06,0
4484,65.78,5.9,-3.27,0
4485,65.8,-7.82,-9.52,0
4486,65.81,-11.02,-4.43,0
4487,65.82,-4.87,0.5,0
4488,65.84,-2.51,-3.62,0
4489,65.85,-3.49,-5.56,0
4490,65.86,-3.9,1.25,0
4491,65.88,2.08,10.41,0
4492,65.89,12.44,16.31,0
4493,65.9,6.86,12.24,0
4494,65.92,-15.49,-3.08,0
4495,65.93,-25.01,-10.65,0
4496,65.94,-13.63,0.7,0
4497,65.96,-4.57,11.94,0
4498,65.97,-3.63,9.37,0
4499,65.98,2.13,2.67,0
4500,66.0,9.4,-0.26,0
4501,66.01,6.93,4.92,0
4502,66.02,0.56,19.21,0
4503,66.04,3.72,23.83,0
4504,66.05,9.28,6.84,0
4505,66.06,1.66,-6.61,0
4506,66.08,-10.18,3.67,0
4507,66.09,-9.53,17.6,0
4508,66.11,-5.83,15.02,0
4509,66.12,-15.24,8.49,0
4510,66.13,-25.1,16.77,0
4511,66.14,-14.06,32.7,0
4512,66.16,8.97,35.42,0
4513,66.17,19.67,23.99,0
4514,66.18,11.46,14.14,0
4515,66.2,-1.79,10.64,0
4516,66.21,-4.03,10.54,0
4517,66.22,1.92,6.66,0
4518,66.24,2.72,-21.19,0
4519,66.25,0.55,-67.94,0
4520,66.26,-0.74,-94.32,0
4521,66.28,-3.24,-97.47,0
4522,66.29,2.81,-113.0,0
4523,66.3,16.98,-141.22,0
4524,66.32,25.03,-150.06,0
4525,66.33,32.55,-134.12,0
4526,66.34,40.46,-111.24,0
4527,66.36,28.46,-83.96,0
4528,66.37,2.29,-50.26,0
4529,66.38,-14.53,-17.97,0
4530,66.4,-15.3,11.62,0
4531,66.41,-2.37,47.88,0
4532,66.42,2.73,94.54,0
4533,66.44,-17.14,134.97,0
4534,66.45,-31.31,140.54,0
4535,66.46,-14.64,109.54,0
4536,66.48,-0.84,84.22,0
4537,66.49,-20.15,94.56,0
4538,66.5,-43.98,120.37,0
4539,66.52,-40.79,138.18,0
4540,66.53,-34.13,152.8,0
4541,66.54,-41.51,171.71,0
4542,66.56,-23.88,178.58,0
4543,66.57,19.75,156.73,0
4544,66.58,25.07,131.22,0
4545,66.6,-15.09,133.28,0
4546,66.61,-30.37,147.03,0
4547,66.62,0.86,139.75,0
4548,66.64,26.74,112.68,0
4549,66.65,28.52,95.14,0
4550,66.66,19.04,91.91,0
4551,66.68,-0.62,69.7,0
4552,66.69,-9.7,33.23,0
4553,66.7,-2.43,37.66,0
4554,66.72,-3.72,72.91,0
4555,66.73,1.45,72.23,0
4556,66.75,30.29,32.81,0
4557,66.76,32.95,1.89,0
4558,66.77,-11.91,8.06,0
4559,66.79,-34.02,30.49,0
4560,66.8,-4.06,17.67,0
4561,66.81,20.03,-22.43,0
4562,66.82,14.65,-33.14,0
4563,66.84,8.29,-14.92,0
4564,66.85,16.73,-9.51,0
4565,66.86,29.05,-14.67,0
4566,66.88,23.93,-10.55,0
4567,66.89,7.46,-10.31,0
4568,66.9,-0.89,-18.6,0
4569,66.92,-0.71,-20.69,0
4570,66.93,5.66,-25.24,0
4571,66.94,8.95,-40.0,0
4572,66.96,-1.82,-44.46,0
4573,66.97,-11.62,-35.74,0
4574,66.98,-3.64,-36.98,0
4575,67.0,7.95,-48.83,0
4576,67.01,4.95,-53.63,0
4577,67.02,2.41,-51.41,0
4578,67.04,12.1,-53.29,0
4579,67.05,12.97,-58.87,0
4580,67.06,4.51,-58.49,0
4581,67.08,10.2,-53.59,0
4582,67.09,21.33,-54.86,0
4583,67.1,16.24,-59.98,0
4584,67.12,-2.04,-60.23,0
4585,67.13,-16.81,-59.78,0
4586,67.14,-12.6,-64.72,0
4587,67.16,6.21,-67.83,0
4588,67.17,14.63,-66.21,0
4589,67.18,6.05,-67.38,0
4590,67.2,-3.53,-68.08,0
4591,67.21,-8.38,-63.03,0
4592,67.22,-13.4,-60.68,0
4593,67.24,-19.37,-62.95,0
4594,67.25,-21.32,-61.66,0
4595,67.26,-13.04,-55.67,0
4596,67.28,3.32,-46.17,0
4597,67.29,14.86,-37.67,0
4598,67.3,12.37,-40.35,0
4599,67.32,-0.6,-48.83,0
4600,67.33,-12.77,-47.53,0
4601,67.34,-12.07,-41.97,0
4602,67.36,-2.31,-45.64,0
4603,67.37,2.68,-46.0,0
4604,67.38,6.24,-32.54,0
4605,67.4,9.74,-27.85,0
4606,67.41,3.46,-36.95,0
4607,67.43,-5.51,-30.02,0
4608,67.44,-8.04,-8.74,0
4609,67.45,-7.64,-7.02,0
4610,67.46,-4.6,-21.4,0
4611,67.48,-0.88,-18.53,0
4612,67.49,-3.26,-0.47,0
4613,67.5,-6.63,1.39,0
4614,67.52,-0.94,-13.48,0
4615,67.53,5.47,-17.24,0
4616,67.54,3.25,-6.55,0
4617,67.56,1.52,-1.28,0
4618,67.57,1.0,-3.5,0
4619,67.58,-8.75,-1.45,0
4620,67.6,-17.22,1.18,0
4621,67.61,-9.69,-5.18,0
4622,67.62,0.42,-12.92,0
4623,67.64,1.33,-9.6,0
4624,67.65,2.82,3.83,0
4625,67.66,5.93,16.55,0
4626,67.68,2.23,19.47,0
4627,67.69,-3.59,14.35,0
4628,67.7,-2.97,9.49,0
4629,67.72,-1.61,12.65,0
4630,67.73,-8.39,23.36,0
4631,67.74,-12.72,28.66,0
4632,67.76,-2.28,22.52,0
4633,67.77,10.79,14.11,0
4634,67.78,11.53,14.86,0
4635,67.8,5.41,25.62,0
4636,67.81,-0.46,32.36,0
4637,67.82,-9.06,29.23,0
4638,67.84,-11.57,25.73,0
4639,67.85,4.45,23.6,0
4640,67.86,18.67,19.29,0
4641,67.88,5.98,13.41,0
4642,67.89,-14.12,8.96,0
4643,67.9,-12.01,6.09,0
4644,67.92,-0.82,0.47,0
4645,67.93,-1.93,-4.54,0
4646,67.94,-1.92,5.09,0
4647,67.96,9.47,27.94,0
4648,67.97,13.49,40.75,0
4649,67.98,7.12,35.37,0
4650,68.0,9.15,28.89,0
4651,68.01,13.91,30.37,0
4652,68.02,5.94,31.43,0
4653,68.04,-4.92,27.71,0
4654,68.05,-7.0,24.41,0
4655,68.06,-5.19,21.28,0
4656,68.08,-5.09,16.8,0
4657,68.09,-7.07,16.46,0
4658,68.11,-8.2,19.09,0
4659,68.12,-5.85,19.85,0
4660,68.13,-6.21,23.16,0
4661,68.14,-12.26,29.08,0
4662,68.16,-14.4,30.95,0
4663,68.17,-7.19,30.07,0
4664,68.18,3.25,28.45,0
4665,68.2,8.24,22.96,0
4666,68.21,8.4,18.72,0
4667,68.22,9.45,27.09,0
4668,68.24,5.64,58.36,0
4669,68.25,-2.5,123.98,0
4670,68.26,-3.24,213.24,0
4671,68.28,-1.56,277.43,0
4672,68.29,-3.19,284.04,0
4673,68.3,1.24,247.27,0
4674,68.32,11.03,183.44,0
4675,68.33,15.97,109.08,0
4676,68.34,14.01,49.35,0
4677,68.36,7.27,0.71,0
4678,68.37,-2.52,-49.69,0
4679,68.38,-12.75,-93.93,0
4680,68.4,-21.22,-132.96,0
4681,68.41,-27.57,-167.81,0
4682,68.42,-28.99,-182.18,0
4683,68.44,-23.32,-177.44,0
4684,68.45,-17.19,-168.16,0
4685,68.46,-16.47,-154.69,0
4686,68.48,-13.93,-139.01,0
4687,68.49,-0.44,-129.54,0
4688,68.5,16.64,-121.86,0
4689,68.52,24.97,-107.07,0
4690,68.53,24.51,-94.52,0
4691,68.54,16.46,-93.09,0
4692,68.56,3.62,-87.71,0
4693,68.57,-3.02,-68.05,0
4694,68.58,2.43,-55.63,0
4695,68.6,16.05,-64.39,0
4696,68.61,27.72,-70.87,0
4697,68.62,35.3,-56.59,0
4698,68.64,43.34,-41.43,0
4699,68.65,40.02,-46.16,0
4700,68.66,18.83,-55.73,0
4701,68.68,-2.96,-46.0,0
4702,68.69,-13.14,-25.93,0
4703,68.7,-14.8,-18.33,0
4704,68.72,-8.73,-18.59,0
4705,68.73,3.39,-13.47,0
4706,68.75,9.45,-8.95,0
4707,68.76,2.74,-6.92,0
4708,68.77,-4.99,-1.05,0
4709,68.79,-1.53,1.34,0
4710,68.8,6.54,-3.88,0
4711,68.81,3.35,-2.68,0
4712,68.82,-8.18,9.46,0
4713,68.84,-11.72,15.61,0
4714,68.85,-10.13,9.64,0
4715,68.86,-13.1,9.46,0
4716,68.88,-11.06,21.9,0
4717,68.89,-0.74,32.1,0
4718,68.9,2.04,31.34,0
4719,68.92,-3.92,21.68,0
4720,68.93,-4.76,14.02,0
4721,68.94,-2.0,21.85,0
4722,68.96,-4.94,37.54,0
4723,68.97,-5.1,42.64,0
4724,68.98,6.51,34.39,0
4725,69.0,14.59,24.33,0
4726,69.01,6.86,21.88,0
4727,69.02,-4.82,26.0,0
4728,69.04,-4.89,29.22,0
4729,69.05,7.77,27.43,0
4730,69.06,15.68,25.11,0
4731,69.08,4.52,30.5,0
4732,69.09,-11.25,41.24,0
4733,69.1,-9.9,46.1,0
4734,69.12,-0.37,39.05,0
4735,69.13,-2.83,21.5,0
4736,69.14,-5.55,10.03,0
4737,69.16,1.66,23.65,0
4738,69.17,-7.35,40.38,0
4739,69.18,-30.0,33.46,0
4740,69.2,-24.45,25.88,0
4741,69.21,2.77,29.73,0
4742,69.22,5.95,26.01,0
4743,69.24,-10.53,20.67,0
4744,69.25,-7.53,28.09,0
4745,69.26,10.43,36.98,0
4746,69.28,11.83,31.4,0
4747,69.29,-2.1,15.66,0
4748,69.3,-11.43,11.72,0
4749,69.32,-10.06,26.48,0
4750,69.33,-4.61,42.23,0
4751,69.34,-2.45,42.62,0
4752,69.36,-1.88,32.88,0
4753,69.37,-1.51,24.99,0
4754,69.38,-2.69,18.29,0
4755,69.4,1.18,14.86,0
4756,69.41,7.59,19.19,0
4757,69.43,3.53,23.36,0
4758,69.44,-8.41,21.18,0
4759,69.45,-16.4,18.39,0
4760,69.46,-16.28,17.1,0
4761,69.48,-10.26,9.66,0
4762,69.49,-7.5,-2.63,0
4763,69.5,-8.43,-7.63,0
4764,69.52,-1.29,-7.71,0
4765,69.53,7.45,-11.19,0
4766,69.54,3.56,-7.35,0
4767,69.56,-0.03,7.54,0
4768,69.57,11.68,14.99,0
4769,69.58,24.76,10.1,0
4770,69.6,19.99,5.77,0
4771,69.61,3.7,5.57,0
4772,69.62,-2.71,4.42,0
4773,69.64,1.2,-0.82,0
4774,69.65,0.73,-8.4,0
4775,69.66,-2.06,-9.3,0
4776,69.68,-1.92,-0.81,0
4777,69.69,-3.97,3.21,0
4778,69.7,-5.16,-6.6,0
4779,69.72,-1.07,-18.27,0
4780,69.73,1.75,-18.19,0
4781,69.74,-0.21,-10.54,0
4782,69.76,-3.42,-5.7,0
4783,69.77,-5.24,-8.32,0
4784,69.78,-5.63,-18.62,0
4785,69.8,-1.3,-23.94,0
4786,69.81,9.02,-16.16,0
4787,69.82,14.13,-11.65,0
4788,69.84,9.06,-17.09,0
4789,69.85,9.44,-13.35,0
4790,69.86,16.64,1.56,0
4791,69.88,10.46,3.22,0
4792,69.89,-3.89,-14.08,0
4793,69.9,-4.51,-26.04,0
4794,69.92,2.93,-18.28,0
4795,69.93,5.07,-6.63,0
4796,69.94,3.92,-6.07,0
4797,69.96,-0.49,-8.27,0
4798,69.97,-4.82,-9.77,0
4799,69.98,-0.01,-20.48,0
4800,70.0,5.84,-28.89,0
4801,70.01,0.13,-16.06,0
4802,70.02,-9.85,0.72,0
4803,70.04,-11.94,-5.79,0
4804,70.05,-5.54,-20.88,0
4805,70.06,1.23,-17.0,0
4806,70.08,-1.08,-2.86,0
4807,70.09,-10.34,4.47,0
4808,70.11,-15.81,4.5,0
4809,70.12,-10.86,-5.12,0
4810,70.13,0.83,-20.42,0
4811,70.14,8.75,-22.58,0
4812,70.16,8.08,-8.89,0
4813,70.17,1.06,0.59,0
4814,70.18,-6.46,-3.2,0
4815,70.2,-4.68,12.05,0
4816,70.21,4.62,71.36,0
4817,70.22,8.38,108.61,0
4818,70.24,8.82,72.87,0
4819,70.25,11.54,45.44,0
4820,70.26,8.04,72.37,0
4821,70.28,5.1,92.6,0
4822,70.29,21.83,70.11,0
4823,70.3,35.32,15.02,0
4824,70.32,6.84,-10.83,0
4825,70.33,-29.31,28.21,0
4826,70.34,-19.65,37.64,0
4827,70.36,4.63,-22.44,0
4828,70.37,-3.16,-46.3,0
4829,70.38,-15.27,-12.44,0
4830,70.4,0.62,-6.54,0
4831,70.41,16.3,-27.8,0
4832,70.42,6.68,-35.24,0
4833,70.44,-8.46,-54.01,0
4834,70.45,-11.62,-100.8,0
4835,70.46,-6.88,-139.82,0
4836,70.48,-2.62,-125.97,0
4837,70.49,-3.24,-69.64,0
4838,70.5,-6.93,-41.71,0
4839,70.52,-8.93,-66.36,0
4840,70.53,-2.72,-83.95,0
4841,70.54,5.73,-62.04,0
4842,70.56,1.83,-43.19,0
