,Unnamed: 0,Timestamp,Data1,Data2,Label
0,0,6.0,15.08,-1.25,0
1,1,6.01,19.0,7.09,0
2,2,6.03,-7.88,14.62,0
3,3,6.04,-31.99,10.44,0
4,4,6.05,-21.39,-4.24,0
5,5,6.07,-0.4,-8.2,0
6,6,6.08,3.55,0.78,0
7,7,6.09,2.61,-1.23,0
8,8,6.11,7.58,-11.3,0
9,9,6.12,3.88,-5.36,0
10,10,6.13,-13.49,6.44,0
11,11,6.15,-18.31,1.56,0
12,12,6.16,-2.6,-8.8,0
13,13,6.17,5.41,-7.64,0
14,14,6.19,1.76,-4.48,0
15,15,6.2,-0.22,-9.02,0
16,16,6.21,-5.08,11.56,0
17,17,6.23,0.57,81.54,0
18,18,6.24,22.16,82.68,0
19,19,6.25,17.31,-60.86,0
20,20,6.27,-18.43,-83.96,0
21,21,6.28,-27.16,200.9,0
22,22,6.29,6.24,437.51,0
23,23,6.31,38.28,329.94,0
24,24,6.32,44.5,191.69,0
25,25,6.33,32.14,286.69,0
26,26,6.35,12.91,366.74,0
27,27,6.36,-0.5,268.92,0
28,28,6.37,-10.91,171.78,0
29,29,6.39,-25.23,164.58,0
30,30,6.4,-26.69,154.3,0
31,31,6.41,-12.49,106.54,0
32,32,6.43,-5.71,66.72,0
33,33,6.44,-2.5,46.44,0
34,34,6.45,8.36,23.88,0
35,35,6.47,6.5,-29.93,0
36,36,6.48,-6.81,-152.6,0
37,37,6.49,1.92,-308.34,0
38,38,6.51,28.04,-377.67,0
39,39,6.52,25.34,-341.68,0
40,40,6.53,-13.48,-338.22,0
41,41,6.55,-36.06,-401.86,0
42,42,6.56,-21.78,-372.98,0
43,43,6.57,-8.13,-246.63,0
44,44,6.59,-11.65,-227.75,0
45,45,6.6,-16.4,-310.93,0
46,46,6.61,-14.09,-287.42,0
47,47,6.63,-6.71,-162.97,0
48,48,6.64,-2.98,-142.52,0
49,49,6.65,-13.67,-248.93,0
50,50,6.67,-23.38,-294.38,0
51,51,6.68,-6.82,-212.3,0
52,52,6.69,22.62,-123.33,0
53,53,6.71,35.4,-92.57,0
54,54,6.72,22.38,-73.59,0
55,55,6.73,-1.4,-61.4,0
56,56,6.75,-9.76,-90.86,0
57,57,6.76,1.31,-106.06,0
58,58,6.77,9.69,-53.43,0
59,59,6.79,0.3,-9.66,0
60,60,6.8,-13.78,-35.19,0
61,61,6.81,-13.02,-82.62,0
62,62,6.82,-3.58,-90.08,0
63,63,6.84,0.46,-47.87,0
64,64,6.85,0.96,-3.78,0
65,65,6.86,5.89,8.53,0
66,66,6.88,14.84,11.67,0
67,67,6.89,8.37,15.81,0
68,68,6.91,-19.48,-3.95,0
69,69,6.92,-33.89,-38.75,0
70,70,6.93,-12.16,-11.73,0
71,71,6.95,18.32,80.45,0
72,72,6.96,21.65,109.41,0
73,73,6.97,8.59,64.73,0
74,74,6.99,12.76,63.09,0
75,75,7.0,20.82,98.36,0
76,76,7.01,2.4,111.93,0
77,77,7.03,-19.15,113.93,0
78,78,7.04,-10.28,95.45,0
79,79,7.05,5.08,45.9,0
80,80,7.07,-1.38,13.07,0
81,81,7.08,-3.96,39.41,0
82,82,7.09,10.18,96.37,0
83,83,7.11,13.43,97.33,0
84,84,7.12,7.59,21.87,0
85,85,7.13,6.47,1.7,0
86,86,7.15,7.6,113.04,0
87,87,7.16,21.49,211.2,0
88,88,7.17,28.36,190.96,0
89,89,7.19,-0.0,139.37,0
90,90,7.2,-25.09,123.37,0
91,91,7.21,-21.24,115.9,0
92,92,7.23,-10.28,93.86,0
93,93,7.24,0.67,81.95,0
94,94,7.25,8.44,100.46,0
95,95,7.27,4.46,100.47,0
96,96,7.28,-2.85,66.62,0
97,97,7.29,-5.55,66.51,0
98,98,7.31,-9.06,103.47,0
99,99,7.32,-2.64,116.95,0
100,100,7.33,24.59,96.48,0
101,101,7.35,33.47,72.18,0
102,102,7.36,1.87,75.73,0
103,103,7.37,-20.65,84.59,0
104,104,7.39,-8.25,65.82,0
105,105,7.4,4.16,72.82,0
106,106,7.41,1.28,97.32,0
107,107,7.43,7.82,70.74,0
108,108,7.44,22.4,30.67,0
109,109,7.45,9.12,11.65,0
110,110,7.47,-13.7,23.97,0
111,111,7.48,3.1,87.41,0
112,112,7.49,22.45,123.78,0
113,113,7.51,-5.56,69.4,0
114,114,7.52,-35.51,3.48,0
115,115,7.53,-22.29,5.24,0
116,116,7.55,-2.75,30.12,0
117,117,7.56,-14.5,12.18,0
118,118,7.57,-23.88,6.39,0
119,119,7.59,6.09,58.31,0
120,120,7.6,32.82,72.65,0
121,121,7.61,10.7,16.87,0
122,122,7.63,-19.82,-7.04,0
123,123,7.64,-14.39,23.54,0
124,124,7.65,0.82,29.45,0
125,125,7.67,-0.02,-9.21,0
126,126,7.68,5.25,-48.8,0
127,127,7.69,22.45,-69.24,0
128,128,7.71,18.61,-57.72,0
129,129,7.72,-11.36,-19.61,0
130,130,7.73,-32.48,-5.25,0
131,131,7.75,-17.41,-0.8,0
132,132,7.76,21.18,47.74,0
133,133,7.77,37.92,84.74,0
134,134,7.79,13.11,40.11,0
135,135,7.8,-21.68,-29.15,0
136,136,7.81,-29.96,-35.18,0
137,137,7.83,-15.5,18.63,0
138,138,7.84,-7.07,54.04,0
139,139,7.85,-7.15,13.2,0
140,140,7.87,-3.64,-47.65,0
141,141,7.88,2.95,-41.4,0
142,142,7.89,13.08,-6.27,0
143,143,7.91,13.26,-16.92,0
144,144,7.92,-5.79,-53.35,0
145,145,7.93,-10.33,-63.06,0
146,146,7.95,10.57,-48.92,0
147,147,7.96,12.25,-61.08,0
148,148,7.97,-10.78,-87.25,0
149,149,7.99,-11.23,-64.25,0
150,150,8.0,9.6,-34.59,0
151,151,8.01,2.96,-66.16,0
152,152,8.03,-32.48,-96.26,0
153,153,8.04,-46.4,-74.84,0
154,154,8.05,-21.84,-55.26,0
155,155,8.07,6.28,-46.18,0
156,156,8.08,12.97,-20.74,0
157,157,8.09,-2.86,-12.88,0
158,158,8.1,-24.31,-22.31,0
159,159,8.12,-13.38,-2.19,0
160,160,8.13,27.8,6.07,0
161,161,8.15,39.45,-29.72,0
162,162,8.16,7.05,-27.61,0
163,163,8.17,-11.06,24.87,0
164,164,8.19,5.6,44.25,0
165,165,8.2,12.83,13.67,0
166,166,8.21,3.62,-31.05,0
167,167,8.23,16.6,-59.13,0
168,168,8.24,37.78,-71.68,0
169,169,8.25,26.71,-108.65,0
170,170,8.27,6.25,-177.62,0
171,171,8.28,-0.23,-239.6,0
172,172,8.29,-13.91,-266.41,0
173,173,8.31,-28.45,-255.63,0
174,174,8.32,-16.13,-221.7,0
175,175,8.33,10.03,-180.23,0
176,176,8.35,15.15,-122.29,0
177,177,8.36,-0.57,-38.87,0
178,178,8.37,-9.24,38.39,0
179,179,8.39,-6.26,74.6,0
180,180,8.4,-3.32,82.6,0
181,181,8.41,0.72,96.39,0
182,182,8.43,4.57,117.05,0
183,183,8.44,1.14,118.21,0
184,184,8.45,-3.79,101.49,0
185,185,8.47,2.76,86.75,0
186,186,8.48,15.07,70.76,0
187,187,8.49,11.45,54.65,0
188,188,8.51,-4.96,49.6,0
189,189,8.52,-9.67,51.42,0
190,190,8.53,-1.93,58.21,0
191,191,8.55,-1.06,66.12,0
192,192,8.56,-8.18,60.94,0
193,193,8.57,-9.19,48.87,0
194,194,8.59,-6.24,43.83,0
195,195,8.6,-6.07,40.93,0
196,196,8.61,-0.61,33.33,0
197,197,8.63,12.85,23.62,0
198,198,8.64,21.58,19.72,0
199,199,8.65,10.32,24.26,0
200,200,8.67,-12.89,25.48,0
201,201,8.68,-18.68,17.32,0
202,202,8.69,-7.01,12.93,0
203,203,8.71,-3.37,13.35,0
204,204,8.72,-10.06,6.16,0
205,205,8.73,-12.9,-3.4,0
206,206,8.75,-9.22,-9.65,0
207,207,8.76,-6.83,-15.81,0
208,208,8.77,-8.12,-13.32,0
209,209,8.78,-4.33,-1.32,0
210,210,8.8,5.88,5.07,0
211,211,8.81,9.9,3.02,0
212,212,8.82,8.99,-2.39,0
213,213,8.84,12.78,-9.35,0
214,214,8.85,9.0,-11.56,0
215,215,8.87,-7.21,-10.13,0
216,216,8.88,-10.42,-7.43,0
217,217,8.89,3.53,3.12,0
218,218,8.91,8.1,8.89,0
219,219,8.92,0.83,-4.81,0
220,220,8.93,-0.53,-15.63,0
221,221,8.95,2.52,-8.28,0
222,222,8.96,1.73,-4.8,0
223,223,8.97,2.18,-11.29,0
224,224,8.99,8.43,-9.85,0
225,225,9.0,14.34,-5.24,0
226,226,9.01,11.67,-9.33,0
227,227,9.03,-0.53,-11.62,0
228,228,9.04,-13.2,-8.78,0
229,229,9.05,-14.77,-12.49,0
230,230,9.07,-3.08,-17.05,0
231,231,9.08,10.29,-10.59,0
232,232,9.09,10.07,-1.55,0
233,233,9.11,-1.94,-5.42,0
234,234,9.12,-7.07,-17.5,0
235,235,9.13,3.87,-19.7,0
236,236,9.15,17.0,-11.71,0
237,237,9.16,16.1,-6.52,0
238,238,9.17,3.77,-7.04,0
239,239,9.19,-10.6,-7.73,0
240,240,9.2,-18.39,-2.02,0
241,241,9.21,-15.53,8.07,0
242,242,9.23,-9.85,9.02,0
243,243,9.24,-5.12,-0.57,0
244,244,9.25,0.42,-7.65,0
245,245,9.27,1.6,-11.12,0
246,246,9.28,1.4,-14.04,0
247,247,9.29,6.23,-9.85,0
248,248,9.31,10.81,0.49,0
249,249,9.32,12.29,9.38,0
250,250,9.33,8.68,12.19,0
251,251,9.35,-4.47,6.74,0
252,252,9.36,-15.86,-0.68,0
253,253,9.37,-11.5,-0.47,0
254,254,9.39,1.56,5.85,0
255,255,9.4,9.03,8.21,0
256,256,9.41,3.95,4.57,0
257,257,9.43,-5.24,1.31,0
258,258,9.44,2.17,2.78,0
259,259,9.45,16.89,9.82,0
260,260,9.47,6.81,12.14,0
261,261,9.48,-14.22,0.2,0
262,262,9.49,-8.33,-10.26,0
263,263,9.51,8.86,-5.38,0
264,264,9.52,5.26,-1.32,0
265,265,9.53,-4.49,-5.27,0
266,266,9.55,0.63,-0.01,0
267,267,9.56,11.65,11.38,0
268,268,9.57,10.44,6.79,0
269,269,9.59,-4.0,-13.16,0
270,270,9.6,-10.3,-26.74,0
271,271,9.61,-1.14,-19.66,0
272,272,9.63,5.77,-4.87,0
273,273,9.64,8.92,0.9,0
274,274,9.65,14.72,4.55,0
275,275,9.67,9.0,8.84,0
276,276,9.68,-8.06,5.57,0
277,277,9.69,-10.68,1.27,0
278,278,9.71,1.7,2.23,0
279,279,9.72,2.33,4.67,0
280,280,9.73,-8.78,8.39,0
281,281,9.75,-9.91,7.49,0
282,282,9.76,-3.4,-0.9,0
283,283,9.77,-2.89,0.79,0
284,284,9.79,-3.2,15.86,0
285,285,9.8,2.81,18.99,0
286,286,9.81,7.44,5.71,0
287,287,9.83,3.39,-3.71,0
288,288,9.84,-2.51,-3.69,0
289,289,9.85,-2.72,-0.96,0
290,290,9.87,-2.08,1.22,0
291,291,9.88,-5.12,3.84,0
292,292,9.89,-5.08,7.41,0
293,293,9.91,-1.85,7.45,0
294,294,9.92,-2.43,6.69,0
295,295,9.93,-1.05,10.66,0
296,296,9.95,6.85,6.3,0
297,297,9.96,9.06,-11.04,0
298,298,9.97,-1.94,-12.6,0
299,299,9.99,-13.66,8.1,0
300,300,10.0,-11.06,15.46,0
301,301,10.01,-7.21,1.0,0
302,302,10.02,-22.59,-6.36,0
303,303,10.04,-35.93,2.59,0
304,304,10.05,-20.45,14.76,0
305,305,10.06,4.09,18.44,0
306,306,10.08,11.99,6.98,0
307,307,10.09,10.41,-7.66,0
308,308,10.1,12.96,-7.59,0
309,309,10.12,16.09,1.27,0
310,310,10.13,12.98,9.1,0
311,311,10.15,15.0,16.09,0
312,312,10.16,25.24,15.98,0
313,313,10.17,16.31,5.5,0
314,314,10.19,-8.05,-15.05,0
315,315,10.2,-5.1,-57.15,0
316,316,10.21,16.84,-113.82,0
317,317,10.23,18.41,-146.94,0
318,318,10.24,11.79,-146.35,0
319,319,10.25,24.43,-141.57,0
320,320,10.27,46.62,-145.13,0
321,321,10.28,50.79,-149.76,0
322,322,10.29,29.88,-148.6,0
323,323,10.31,13.71,-130.61,0
324,324,10.32,19.26,-98.74,0
325,325,10.33,16.23,-68.67,0
326,326,10.35,-9.17,-43.13,0
327,327,10.36,-23.03,-15.42,0
328,328,10.37,-14.64,18.3,0
329,329,10.39,-14.89,50.69,0
330,330,10.4,-29.48,73.95,0
331,331,10.41,-31.01,98.81,0
332,332,10.43,-19.06,131.57,0
333,333,10.44,-19.82,159.68,0
334,334,10.45,-29.83,177.61,0
335,335,10.47,-24.27,192.78,0
336,336,10.48,-14.33,205.98,0
337,337,10.49,-26.71,208.41,0
338,338,10.51,-40.41,191.64,0
339,339,10.52,-25.9,163.67,0
340,340,10.53,-11.76,149.2,0
341,341,10.55,-21.75,150.28,0
342,342,10.56,-24.46,139.76,0
343,343,10.57,-12.89,110.51,0
344,344,10.59,-15.33,84.68,0
345,345,10.6,-21.18,74.07,0
346,346,10.61,-10.18,72.55,0
347,347,10.63,0.87,73.45,0
348,348,10.64,1.33,66.92,0
349,349,10.65,3.81,47.24,0
350,350,10.67,8.42,28.63,0
351,351,10.68,5.16,22.42,0
352,352,10.69,-4.67,19.91,0
353,353,10.71,-9.91,14.44,0
354,354,10.72,-3.18,11.23,0
355,355,10.73,0.84,11.68,0
356,356,10.75,-12.45,6.74,0
357,357,10.76,-16.38,-6.82,0
358,358,10.77,5.79,-18.51,0
359,359,10.78,18.51,-21.73,0
360,360,10.8,9.18,-20.03,0
361,361,10.81,0.69,-21.61,0
362,362,10.83,-6.04,-31.91,0
363,363,10.84,-14.43,-44.58,0
364,364,10.85,-13.2,-49.53,0
365,365,10.87,1.09,-45.84,0
366,366,10.88,14.12,-42.14,0
367,367,10.89,10.32,-43.45,0
368,368,10.91,3.77,-46.16,0
369,369,10.92,13.3,-49.75,0
370,370,10.93,18.57,-54.48,0
371,371,10.95,2.83,-55.37,0
372,372,10.96,-5.33,-54.35,0
373,373,10.97,7.08,-57.87,0
374,374,10.99,10.9,-62.11,0
375,375,11.0,-0.37,-63.6,0
376,376,11.01,-7.27,-64.66,0
377,377,11.03,-4.95,-58.39,0
378,378,11.04,4.19,-42.42,0
379,379,11.05,13.66,-35.94,0
380,380,11.07,16.92,-49.78,0
381,381,11.08,19.54,-65.33,0
382,382,11.09,20.74,-65.85,0
383,383,11.11,8.49,-58.56,0
384,384,11.12,-6.15,-50.35,0
385,385,11.13,1.36,-41.11,0
386,386,11.15,23.13,-38.62,0
387,387,11.16,29.7,-44.79,0
388,388,11.17,16.54,-48.21,0
389,389,11.19,2.57,-45.85,0
390,390,11.2,-0.66,-46.56,0
391,391,11.21,2.71,-47.19,0
392,392,11.23,7.5,-37.12,0
393,393,11.24,15.38,-24.84,0
394,394,11.25,21.68,-25.52,0
395,395,11.27,16.47,-32.91,0
396,396,11.28,3.67,-32.9,0
397,397,11.29,-2.62,-29.52,0
398,398,11.31,-1.14,-31.26,0
399,399,11.32,2.5,-34.98,0
400,400,11.33,9.91,-36.29,0
401,401,11.35,13.82,-32.21,0
402,402,11.36,6.09,-24.41,0
403,403,11.37,0.27,-21.16,0
404,404,11.39,6.75,-24.07,0
405,405,11.4,13.9,-25.65,0
406,406,11.41,9.34,-21.37,0
407,407,11.43,-4.04,-18.19,0
408,408,11.44,-11.75,-21.14,0
409,409,11.45,-5.95,-20.62,0
410,410,11.47,1.02,-13.15,0
411,411,11.48,-1.16,-11.61,0
412,412,11.49,-4.21,-14.57,0
413,413,11.51,-5.65,-6.16,0
414,414,11.52,-10.95,4.45,0
415,415,11.53,-10.42,0.93,0
416,416,11.55,1.31,-5.13,0
417,417,11.56,9.9,-2.54,0
418,418,11.57,7.23,3.95,0
419,419,11.59,-1.71,14.68,0
420,420,11.6,-10.84,26.48,0
421,421,11.61,-13.86,28.22,0
422,422,11.63,-11.39,20.86,0
423,423,11.64,-11.66,13.81,0
424,424,11.65,-16.28,11.3,0
425,425,11.67,-17.44,12.2,0
426,426,11.68,-6.29,12.7,0
427,427,11.69,10.96,12.03,0
428,428,11.71,14.64,14.51,0
429,429,11.72,6.8,20.1,0
430,430,11.73,7.26,21.12,0
431,431,11.75,12.47,17.6,0
432,432,11.76,9.21,16.32,0
433,433,11.77,3.57,16.38,0
434,434,11.79,0.66,17.14,0
435,435,11.8,-4.44,20.92,0
436,436,11.81,-6.38,22.85,0
437,437,11.83,0.82,19.5,0
438,438,11.84,7.73,15.85,0
439,439,11.85,3.91,19.41,0
440,440,11.87,-8.26,28.41,0
441,441,11.88,-15.96,28.08,0
442,442,11.89,-11.6,15.22,0
443,443,11.91,-3.18,7.99,0
444,444,11.92,0.94,12.75,0
445,445,11.93,1.98,16.48,0
446,446,11.94,0.24,16.83,0
447,447,11.96,-8.35,18.27,0
448,448,11.97,-20.17,16.92,0
449,449,11.98,-18.71,13.54,0
450,450,12.0,-0.26,12.29,0
451,451,12.01,9.21,11.84,0
452,452,12.02,-9.34,13.92,0
453,453,12.04,-33.68,21.82,0
454,454,12.05,-33.75,29.11,0
455,455,12.06,-12.25,28.15,0
456,456,12.08,9.26,23.15,0
457,457,12.09,17.72,21.96,0
458,458,12.105,16.36,20.9,0
459,459,12.12,15.58,12.81,0
460,460,12.13,17.17,7.24,0
461,461,12.15,15.68,14.05,0
462,462,12.16,7.11,19.06,0
463,463,12.17,-3.71,14.72,0
464,464,12.19,-5.09,16.9,0
465,465,12.2,3.64,25.89,0
466,466,12.21,13.53,33.44,0
467,467,12.23,15.1,72.45,0
468,468,12.24,-3.32,173.05,0
469,469,12.25,-40.44,287.08,0
470,470,12.27,-68.17,338.45,0
471,471,12.28,-62.49,318.31,0
472,472,12.29,-34.13,268.48,0
473,473,12.31,-11.36,210.75,0
474,474,12.32,-4.33,141.75,0
475,475,12.33,-0.47,63.26,0
476,476,12.35,7.14,-8.06,0
477,477,12.36,14.25,-58.46,0
478,478,12.37,19.56,-103.22,0
479,479,12.39,19.4,-160.98,0
480,480,12.4,14.51,-211.75,0
481,481,12.41,17.0,-225.97,0
482,482,12.43,24.64,-211.27,0
483,483,12.44,22.55,-194.83,0
484,484,12.45,12.69,-181.87,0
485,485,12.47,12.41,-164.46,0
486,486,12.48,24.59,-150.52,0
487,487,12.49,32.92,-149.27,0
488,488,12.51,26.4,-145.64,0
489,489,12.52,12.53,-124.09,0
490,490,12.53,6.1,-98.42,0
491,491,12.55,8.05,-86.84,0
492,492,12.56,10.04,-85.49,0
493,493,12.57,17.18,-85.72,0
494,494,12.59,32.1,-86.44,0
495,495,12.6,33.5,-85.31,0
496,496,12.61,10.34,-75.47,0
497,497,12.63,-14.11,-55.08,0
498,498,12.64,-20.96,-39.66,0
499,499,12.65,-16.29,-44.14,0
500,500,12.67,-9.64,-51.25,0
501,501,12.68,-3.67,-40.02,0
502,502,12.69,2.8,-23.57,0
503,503,12.71,3.38,-14.11,0
504,504,12.72,-7.12,-7.01,0
505,505,12.73,-13.41,-3.52,0
506,506,12.75,-5.08,-2.91,0
507,507,12.76,1.79,-1.26,0
508,508,12.77,-3.53,-0.81,0
509,509,12.79,-12.06,3.97,0
510,510,12.8,-18.39,15.16,0
511,511,12.81,-19.0,20.23,0
512,512,12.83,-8.27,16.9,0
513,513,12.84,2.89,18.1,0
514,514,12.85,0.86,28.58,0
515,515,12.87,-8.43,37.9,0
516,516,12.88,-15.82,37.35,0
517,517,12.89,-15.7,31.37,0
518,518,12.91,-5.13,32.39,0
519,519,12.92,1.7,44.01,0
520,520,12.93,-9.72,52.36,0
521,521,12.95,-25.71,49.36,0
522,522,12.96,-23.54,44.95,0
523,523,12.97,-4.21,43.3,0
524,524,12.99,9.5,37.46,0
525,525,13.0,2.97,32.57,0
526,526,13.01,-10.68,34.54,0
527,527,13.03,-7.9,35.41,0
528,528,13.04,6.76,34.5,0
529,529,13.05,8.01,39.69,0
530,530,13.07,-3.85,48.28,0
531,531,13.08,-8.85,50.29,0
532,532,13.09,-4.67,45.41,0
533,533,13.11,0.48,41.67,0
534,534,13.12,3.38,37.77,0
535,535,13.13,0.75,27.99,0
536,536,13.15,-6.15,24.65,0
537,537,13.16,-7.36,35.09,0
538,538,13.17,1.2,40.34,0
539,539,13.19,9.12,32.2,0
540,540,13.2,8.88,27.9,0
541,541,13.21,3.57,34.91,0
542,542,13.23,-5.78,36.08,0
543,543,13.24,-19.58,24.43,0
544,544,13.25,-29.2,20.54,0
545,545,13.27,-24.16,31.57,0
546,546,13.28,-9.24,30.87,0
547,547,13.29,0.49,12.54,0
548,548,13.31,1.33,6.9,0
549,549,13.32,2.52,18.15,0
550,550,13.33,8.35,22.36,0
551,551,13.35,13.12,19.18,0
552,552,13.36,10.68,17.92,0
553,553,13.37,4.99,14.47,0
554,554,13.39,10.34,13.48,0
555,555,13.4,24.76,19.55,0
556,556,13.41,25.1,18.25,0
557,557,13.43,8.07,7.9,0
558,558,13.44,-3.08,7.17,0
559,559,13.45,-1.57,13.0,0
560,560,13.47,0.15,6.13,0
561,561,13.48,0.82,-3.0,0
562,562,13.49,0.65,6.02,0
563,563,13.51,-11.38,21.6,0
564,564,13.52,-26.22,20.48,0
565,565,13.53,-18.37,5.7,0
566,566,13.55,0.52,-0.44,0
567,567,13.56,1.27,4.0,0
568,568,13.57,-6.94,-0.44,0
569,569,13.59,-4.89,-14.75,0
570,570,13.6,1.73,-21.88,0
571,571,13.61,4.37,-13.06,0
572,572,13.63,4.85,4.01,0
573,573,13.64,5.0,11.11,0
574,574,13.65,2.14,6.26,0
575,575,13.67,-2.99,1.61,0
576,576,13.68,0.36,-6.62,0
577,577,13.69,15.08,-18.78,0
578,578,13.71,21.84,-20.97,0
579,579,13.72,7.99,-18.55,0
580,580,13.73,-7.95,-22.33,0
581,581,13.75,-5.42,-20.27,0
582,582,13.76,5.45,-7.92,0
583,583,13.77,5.85,-4.32,0
584,584,13.79,-0.33,-14.25,0
585,585,13.8,-0.95,-19.39,0
586,586,13.81,-2.36,-13.52,0
587,587,13.83,-10.48,-7.0,0
588,588,13.84,-7.07,-6.29,0
589,589,13.85,13.08,-12.24,0
590,590,13.86,21.85,-17.56,0
591,591,13.88,9.96,-13.62,0
592,592,13.89,-1.39,-7.27,0
593,593,13.9,-4.67,-10.73,0
594,594,13.92,0.25,-22.26,0
595,595,13.93,17.73,-24.33,0
596,596,13.94,28.87,-12.54,0
597,597,13.96,14.87,-8.47,0
598,598,13.97,-5.82,-15.1,0
599,599,13.98,-8.43,-13.76,0
600,600,14.0,4.74,-12.24,0
601,601,14.01,13.06,-23.94,0
602,602,14.02,-1.08,-30.26,0
603,603,14.04,-26.48,-20.34,0
604,604,14.05,-27.58,-11.38,0
605,605,14.07,-3.48,-7.26,0
606,606,14.08,8.49,-2.88,0
607,607,14.09,1.51,-11.01,0
608,608,14.11,-2.01,-27.06,0
609,609,14.12,3.9,-25.16,0
610,610,14.13,15.28,-8.15,0
611,611,14.15,22.4,-3.99,0
612,612,14.16,16.95,-15.64,0
613,613,14.17,11.65,1.88,0
614,614,14.19,17.04,64.7,0
615,615,14.2,32.21,94.67,0
616,616,14.21,54.27,1.05,0
617,617,14.23,48.02,-164.48,0
618,618,14.24,5.07,-210.36,0
619,619,14.25,2.61,-96.69,0
620,620,14.27,25.38,102.17,0
621,621,14.28,-29.18,382.59,0
622,622,14.29,-81.84,544.87,0
623,623,14.31,-28.36,432.97,0
624,624,14.32,15.15,288.75,0
625,625,14.33,-22.01,259.88,0
626,626,14.35,-34.55,209.32,0
627,627,14.36,5.07,126.63,0
628,628,14.37,27.78,77.76,0
629,629,14.39,19.05,-17.16,0
630,630,14.4,-3.31,-119.88,0
631,631,14.41,-26.92,-97.65,0
632,632,14.43,-31.45,-87.06,0
633,633,14.44,-8.41,-254.52,0
634,634,14.45,12.69,-431.96,0
635,635,14.47,-3.13,-407.21,0
636,636,14.48,-25.49,-271.4,0
637,637,14.49,-17.18,-201.36,0
638,638,14.51,-13.16,-185.66,0
639,639,14.52,-28.09,-167.6,0
640,640,14.53,-23.1,-175.05,0
641,641,14.55,0.25,-187.03,0
642,642,14.56,10.19,-118.59,0
643,643,14.57,4.4,-14.04,0
644,644,14.59,-4.34,-25.93,0
645,645,14.6,-3.78,-138.59,0
646,646,14.61,13.59,-194.5,0
647,647,14.63,24.27,-175.75,0
648,648,14.64,7.77,-152.09,0
649,649,14.65,-10.23,-108.11,0
650,650,14.67,-14.79,-36.66,0
651,651,14.68,-13.88,-15.37,0
652,652,14.69,-7.03,-57.61,0
653,653,14.71,-8.47,-63.8,0
654,654,14.72,-15.03,-10.03,0
655,655,14.73,-11.63,31.61,0
656,656,14.75,-19.11,44.66,0
657,657,14.76,-26.18,35.86,0
658,658,14.77,3.14,-6.42,0
659,659,14.79,39.3,-35.04,0
660,660,14.8,36.76,-6.01,0
661,661,14.81,8.01,30.2,0
662,662,14.83,-9.69,19.31,0
663,663,14.84,-5.89,-13.8,0
664,664,14.85,4.4,-15.29,0
665,665,14.87,2.53,23.45,0
666,666,14.88,-18.48,71.25,0
667,667,14.89,-32.57,97.45,0
668,668,14.91,-14.23,99.5,0
669,669,14.92,17.89,87.59,0
670,670,14.93,37.49,46.08,0
671,671,14.95,28.42,5.76,0
672,672,14.96,-0.54,21.67,0
673,673,14.97,-2.3,49.27,0
674,674,14.99,16.9,41.87,0
675,675,15.0,1.99,35.41,0
676,676,15.01,-33.85,66.72,0
677,677,15.03,-43.84,104.44,0
678,678,15.04,-33.95,65.58,0
679,679,15.05,-28.05,-6.27,0
680,680,15.07,-13.41,37.22,0
681,681,15.08,19.12,137.69,0
682,682,15.09,26.34,115.18,0
683,683,15.11,-7.97,8.25,0
684,684,15.12,-28.39,-20.67,0
685,685,15.13,-10.95,39.65,0
686,686,15.15,12.1,66.24,0
687,687,15.16,29.3,14.22,0
688,688,15.17,46.04,-7.8,0
689,689,15.19,41.25,44.87,0
690,690,15.2,8.41,59.5,0
691,691,15.21,-6.31,15.89,0
692,692,15.23,14.62,1.28,0
693,693,15.24,25.26,15.99,0
694,694,15.25,8.68,21.97,0
695,695,15.27,-6.72,16.95,0
696,696,15.28,-7.13,15.73,0
697,697,15.29,0.86,34.03,0
698,698,15.31,7.79,59.9,0
699,699,15.32,9.58,69.24,0
700,700,15.33,9.43,58.84,0
701,701,15.35,8.77,41.7,0
702,702,15.36,8.52,23.46,0
703,703,15.37,7.1,-5.91,0
704,704,15.39,-1.28,-30.28,0
705,705,15.4,-12.66,-3.33,0
706,706,15.41,-14.35,48.31,0
707,707,15.43,-7.84,52.06,0
708,708,15.44,-9.17,40.86,0
709,709,15.45,-9.57,55.59,0
710,710,15.47,7.31,47.79,0
711,711,15.48,13.35,19.62,0
712,712,15.49,-2.85,5.07,0
713,713,15.51,0.82,0.66,0
714,714,15.52,25.69,24.3,0
715,715,15.53,25.82,54.55,0
716,716,15.55,-0.45,36.52,0
717,717,15.56,-14.72,1.92,0
718,718,15.57,-0.84,-8.71,0
719,719,15.59,19.15,-1.66,0
720,720,15.6,19.45,28.7,0
721,721,15.61,3.78,52.65,0
722,722,15.63,-6.54,30.55,0
723,723,15.64,-3.19,-1.98,0
724,724,15.65,-1.19,-3.83,0
725,725,15.67,-5.94,1.2,0
726,726,15.68,-1.9,-8.18,0
727,727,15.69,0.57,6.69,0
728,728,15.71,-12.96,56.64,0
729,729,15.72,-13.37,77.66,0
730,730,15.73,12.12,54.17,0
731,731,15.75,19.01,39.84,0
732,732,15.76,-11.01,38.26,0
733,733,15.77,-31.21,18.82,0
734,734,15.78,-15.49,-15.94,0
735,735,15.8,5.28,-43.89,0
736,736,15.81,10.27,-42.96,0
737,737,15.82,11.91,-19.33,0
738,738,15.84,13.6,4.33,0
739,739,15.85,6.09,11.35,0
740,740,15.86,7.77,-23.34,0
741,741,15.88,33.76,-76.48,0
742,742,15.89,37.2,-66.02,0
743,743,15.9,-8.9,-4.26,0
744,744,15.92,-42.72,14.14,0
745,745,15.93,-23.31,-7.11,0
746,746,15.94,5.7,-15.29,0
747,747,15.96,1.03,-16.88,0
748,748,15.97,-13.97,-23.95,0
749,749,15.98,-11.73,-25.76,0
750,750,16.0,-16.14,-0.13,0
751,751,16.01,-29.16,49.99,0
752,752,16.03,-26.2,63.93,0
753,753,16.04,-24.47,17.21,0
754,754,16.05,-35.88,-25.84,0
755,755,16.07,-35.25,-27.73,0
756,756,16.08,-8.99,-30.71,0
757,757,16.09,22.58,-52.91,0
758,758,16.11,28.14,-44.31,0
759,759,16.12,18.14,-8.34,0
760,760,16.13,20.57,-22.52,0
761,761,16.15,13.79,-51.16,0
762,762,16.16,-17.36,-11.58,0
763,763,16.17,-32.78,19.31,0
764,764,16.19,-8.7,-24.6,0
765,765,16.2,20.47,-84.28,0
766,766,16.21,21.15,-137.17,0
767,767,16.23,15.68,-195.6,0
768,768,16.24,23.59,-222.08,0
769,769,16.25,10.16,-172.77,0
770,770,16.27,-32.0,-78.93,0
771,771,16.28,-44.87,-33.75,0
772,772,16.29,-9.59,-71.72,0
773,773,16.31,21.98,-122.75,0
774,774,16.32,20.85,-116.36,0
775,775,16.33,12.9,-61.82,0
776,776,16.35,14.49,-7.71,0
777,777,16.36,8.29,27.15,0
778,778,16.37,-8.05,55.53,0
779,779,16.39,-11.62,79.81,0
780,780,16.4,-1.88,85.43,0
781,781,16.41,-0.43,75.77,0
782,782,16.42,-9.25,70.04,0
783,783,16.44,-13.34,73.13,0
784,784,16.45,-9.97,76.17,0
785,785,16.46,-9.19,73.3,0
786,786,16.48,-8.82,71.64,0
787,787,16.49,5.9,80.43,0
788,788,16.5,21.66,88.75,0
789,789,16.52,12.14,77.41,0
790,790,16.53,-6.01,48.99,0
791,791,16.54,-5.15,28.59,0
792,792,16.56,4.59,32.48,0
793,793,16.57,7.99,39.43,0
794,794,16.58,8.25,27.58,0
795,795,16.6,3.58,15.96,0
796,796,16.61,-5.93,15.43,0
797,797,16.62,-5.6,7.18,0
798,798,16.64,4.26,-5.15,0
799,799,16.65,7.93,0.93,0
800,800,16.67,3.67,17.73,0
801,801,16.68,-2.66,17.94,0
802,802,16.69,-6.94,6.15,0
803,803,16.71,-7.09,6.86,0
804,804,16.72,-7.46,15.11,0
805,805,16.73,-6.03,7.99,0
806,806,16.75,2.68,-7.5,0
807,807,16.76,7.56,-4.59,0
808,808,16.77,0.36,9.99,0
809,809,16.79,-6.27,10.33,0
810,810,16.8,-4.25,1.21,0
811,811,16.81,0.66,-4.83,0
812,812,16.83,4.48,-12.6,0
813,813,16.84,7.23,-15.97,0
814,814,16.85,7.54,-7.18,0
815,815,16.87,1.21,1.16,0
816,816,16.88,-9.03,-1.56,0
817,817,16.89,-13.4,-13.04,0
818,818,16.91,-12.15,-22.61,0
819,819,16.92,-9.8,-15.97,0
820,820,16.93,-3.18,0.12,0
821,821,16.95,6.15,-2.17,0
822,822,16.96,11.08,-23.55,0
823,823,16.97,12.75,-28.38,0
824,824,16.99,13.63,-5.71,0
825,825,17.0,11.92,11.18,0
826,826,17.01,9.72,1.88,0
827,827,17.03,6.22,-13.04,0
828,828,17.04,-1.21,-10.75,0
829,829,17.05,-7.16,-1.49,0
830,830,17.06,-6.79,-6.25,0
831,831,17.08,0.98,-16.06,0
832,832,17.09,10.67,-14.28,0
833,833,17.1,9.64,-12.37,0
834,834,17.12,-0.19,-16.55,0
835,835,17.13,-4.0,-12.86,0
836,836,17.14,1.16,-4.0,0
837,837,17.16,8.91,-3.5,0
838,838,17.17,11.78,-10.42,0
839,839,17.18,2.89,-17.2,0
840,840,17.2,-8.96,-16.19,0
841,841,17.21,-9.99,-7.08,0
842,842,17.22,-8.62,-2.02,0
843,843,17.24,-14.5,-6.35,0
844,844,17.25,-13.9,-10.27,0
845,845,17.26,-0.66,-7.28,0
846,846,17.28,7.14,-2.47,0
847,847,17.29,1.75,-3.19,0
848,848,17.3,-6.04,-8.45,0
849,849,17.32,-6.89,-10.44,0
850,850,17.33,4.11,-4.67,0
851,851,17.35,17.2,2.46,0
852,852,17.36,15.17,-1.31,0
853,853,17.37,4.4,-14.23,0
854,854,17.39,-0.96,-16.72,0
855,855,17.4,-4.9,-2.5,0
856,856,17.41,-7.87,6.16,0
857,857,17.43,-3.17,-3.79,0
858,858,17.44,4.98,-9.78,0
859,859,17.45,13.13,-3.21,0
860,860,17.47,21.25,-8.94,0
861,861,17.48,21.75,-21.86,0
862,862,17.49,10.56,-12.65,0
863,863,17.51,-5.14,6.31,0
864,864,17.52,-18.57,6.8,0
865,865,17.53,-24.03,-2.62,0
866,866,17.55,-15.15,-7.33,0
867,867,17.56,1.04,-10.43,0
868,868,17.57,7.49,-9.98,0
869,869,17.59,0.88,-4.28,0
870,870,17.6,-6.53,-3.64,0
871,871,17.61,-8.54,-10.18,0
872,872,17.63,-10.63,-10.36,0
873,873,17.64,-11.58,-0.22,0
874,874,17.65,-6.29,6.96,0
875,875,17.67,0.04,3.06,0
876,876,17.68,3.45,-6.01,0
877,877,17.69,4.53,-4.0,0
878,878,17.7,1.89,13.2,0
879,879,17.72,0.63,21.66,0
880,880,17.73,4.63,8.92,0
881,881,17.75,7.97,-7.37,0
882,882,17.76,6.07,-11.82,0
883,883,17.77,-2.38,-7.68,0
884,884,17.78,-12.19,-1.78,0
885,885,17.8,-14.05,6.53,0
886,886,17.81,-8.58,13.91,0
887,887,17.82,-2.86,12.64,0
888,888,17.84,1.26,6.35,0
889,889,17.85,5.46,3.93,0
890,890,17.86,5.15,4.53,0
891,891,17.88,-1.47,4.28,0
892,892,17.89,-3.22,6.06,0
893,893,17.9,2.73,8.76,0
894,894,17.92,6.41,5.44,0
895,895,17.93,5.21,-1.2,0
896,896,17.94,4.66,-2.21,0
897,897,17.96,2.16,5.99,0
898,898,17.97,-11.8,18.46,0
899,899,17.99,-22.82,21.87,0
900,900,18.0,-8.77,11.83,0
901,901,18.01,13.58,-1.33,0
902,902,18.03,11.6,-11.79,0
903,903,18.04,-15.74,-16.86,0
904,904,18.05,-34.32,-9.58,0
905,905,18.07,-23.07,3.72,0
906,906,18.08,-6.14,6.43,0
907,907,18.09,-0.55,0.58,0
908,908,18.11,8.08,-3.11,0
909,909,18.12,21.6,-7.83,0
910,910,18.13,25.91,-8.38,0
911,911,18.15,18.6,2.38,0
912,912,18.16,10.17,9.44,0
913,913,18.17,8.18,7.32,0
914,914,18.19,7.35,5.34,0
915,915,18.2,1.13,-0.05,0
916,916,18.21,-3.34,-4.76,0
917,917,18.23,6.77,3.7,0
918,918,18.24,26.81,1.73,0
919,919,18.25,35.35,-42.88,0
920,920,18.27,23.87,-113.85,0
921,921,18.28,9.92,-175.72,0
922,922,18.29,9.89,-209.7,0
923,923,18.31,14.9,-206.99,0
924,924,18.32,18.73,-182.34,0
925,925,18.33,29.03,-159.15,0
926,926,18.34,26.25,-120.18,0
927,927,18.36,-1.52,-54.94,0
928,928,18.37,-16.13,-13.87,0
929,929,18.38,-2.48,-18.84,0
930,930,18.4,6.04,-19.43,0
931,931,18.41,-1.49,10.03,0
932,932,18.42,-3.42,43.07,0
933,933,18.44,6.0,66.82,0
934,934,18.45,10.75,86.73,0
935,935,18.46,-1.11,104.07,0
936,936,18.48,-20.53,126.91,0
937,937,18.49,-23.33,152.28,0
938,938,18.5,-6.94,156.32,0
939,939,18.52,-3.94,147.87,0
940,940,18.53,-23.03,160.5,0
941,941,18.54,-34.21,187.28,0
942,942,18.56,-30.43,198.71,0
943,943,18.57,-24.8,190.11,0
944,944,18.58,-18.87,172.0,0
945,945,18.6,-18.99,151.09,0
946,946,18.61,-26.73,132.87,0
947,947,18.63,-28.28,120.88,0
948,948,18.64,-13.98,108.23,0
949,949,18.65,13.71,89.94,0
950,950,18.67,30.75,76.32,0
951,951,18.68,13.0,68.61,0
952,952,18.69,-16.86,53.95,0
953,953,18.71,-18.27,38.6,0
954,954,18.72,-2.01,37.39,0
955,955,18.73,-3.81,39.47,0
956,956,18.75,-16.18,28.1,0
957,957,18.76,-16.13,13.95,0
958,958,18.77,-8.97,9.72,0
959,959,18.79,-5.63,3.47,0
960,960,18.8,-6.08,-12.66,0
961,961,18.81,-6.9,-26.11,0
962,962,18.83,-5.44,-24.25,0
963,963,18.84,-2.83,-10.01,0
964,964,18.85,-1.17,-4.65,0
965,965,18.87,-1.65,-23.85,0
966,966,18.88,-8.36,-51.57,0
967,967,18.89,-18.57,-59.02,0
968,968,18.91,-16.5,-43.99,0
969,969,18.92,-0.21,-31.84,0
970,970,18.93,11.83,-39.06,0
971,971,18.95,11.07,-51.42,0
972,972,18.96,5.32,-48.27,0
973,973,18.97,0.45,-36.24,0
974,974,18.98,-6.52,-34.75,0
975,975,19.0,-12.2,-44.99,0
976,976,19.01,-3.19,-50.87,0
977,977,19.02,17.58,-48.91,0
978,978,19.04,30.44,-53.84,0
979,979,19.05,27.1,-61.45,0
980,980,19.06,7.31,-56.34,0
981,981,19.08,-18.56,-49.22,0
982,982,19.09,-18.87,-52.97,0
983,983,19.1,11.56,-55.65,0
984,984,19.12,29.72,-50.14,0
985,985,19.13,14.55,-49.7,0
986,986,19.14,-4.77,-58.4,0
987,987,19.16,-6.36,-63.3,0
988,988,19.17,-2.09,-57.64,0
989,989,19.18,2.5,-50.1,0
990,990,19.2,15.23,-47.74,0
991,991,19.21,26.13,-45.26,0
992,992,19.22,18.52,-43.21,0
993,993,19.24,-1.73,-45.78,0
994,994,19.25,-11.79,-47.58,0
995,995,19.265,-0.8,-47.45,0
996,996,19.28,11.76,-46.34,0
997,997,19.29,7.35,-40.73,0
998,998,19.31,1.87,-36.02,0
999,999,19.32,10.31,-35.64,0
1000,1000,19.33,18.01,-32.19,0
1001,1001,19.35,15.03,-27.87,0
1002,1002,19.36,12.08,-26.88,0
1003,1003,19.37,12.92,-23.42,0
1004,1004,19.39,9.43,-23.87,0
1005,1005,19.4,0.32,-32.77,0
1006,1006,19.41,-6.99,-30.94,0
1007,1007,19.43,-8.12,-16.42,0
1008,1008,19.44,-5.05,-10.91,0
1009,1009,19.45,-0.65,-15.12,0
1010,1010,19.47,4.01,-16.66,0
1011,1011,19.48,7.94,-12.88,0
1012,1012,19.49,8.91,-6.77,0
1013,1013,19.51,5.47,-4.51,0
1014,1014,19.52,-1.82,-6.01,0
1015,1015,19.53,-7.38,-7.26,0
1016,1016,19.55,-6.32,-9.12,0
1017,1017,19.56,-5.56,-9.74,0
1018,1018,19.57,-8.44,-6.12,0
1019,1019,19.59,-4.37,-0.86,0
1020,1020,19.6,8.14,6.09,0
1021,1021,19.61,13.32,14.08,0
1022,1022,19.62,4.91,12.97,0
1023,1023,19.64,-2.35,5.37,0
1024,1024,19.65,-2.06,6.86,0
1025,1025,19.67,-2.41,9.69,0
1026,1026,19.68,0.35,0.73,0
1027,1027,19.69,10.72,-3.23,0
1028,1028,19.7,16.68,10.18,0
1029,1029,19.72,10.4,23.93,0
1030,1030,19.73,2.27,25.21,0
1031,1031,19.75,3.32,16.77,0
1032,1032,19.76,3.76,4.4,0
1033,1033,19.77,-5.96,-0.75,0
1034,1034,19.78,-11.88,5.65,0
1035,1035,19.8,-3.51,10.04,0
1036,1036,19.81,6.99,9.87,0
1037,1037,19.82,8.69,20.16,0
1038,1038,19.84,5.16,36.81,0
1039,1039,19.85,-0.27,38.77,0
1040,1040,19.86,-9.09,21.69,0
1041,1041,19.88,-15.66,3.12,0
1042,1042,19.89,-13.87,1.17,0
1043,1043,19.9,-7.77,12.93,0
1044,1044,19.92,-2.03,20.44,0
1045,1045,19.93,0.56,18.95,0
1046,1046,19.95,-4.01,18.04,0
1047,1047,19.96,-9.69,19.25,0
1048,1048,19.97,-7.06,20.25,0
1049,1049,19.99,0.01,23.35,0
1050,1050,20.0,0.64,23.86,0
1051,1051,20.01,-4.03,20.17,0
1052,1052,20.03,-5.73,22.1,0
1053,1053,20.04,-10.31,28.74,0
1054,1054,20.05,-21.96,27.26,0
1055,1055,20.07,-21.3,14.7,0
1056,1056,20.08,1.63,3.51,0
1057,1057,20.09,24.35,5.24,0
1058,1058,20.11,25.52,11.98,0
1059,1059,20.12,16.61,10.0,0
1060,1060,20.13,17.38,9.46,0
1061,1061,20.15,22.28,28.23,0
1062,1062,20.16,12.62,57.78,0
1063,1063,20.17,-13.7,80.72,0
1064,1064,20.19,-33.54,106.45,0
1065,1065,20.2,-27.34,158.25,0
1066,1066,20.21,-14.52,232.85,0
1067,1067,20.23,-21.23,289.05,0
1068,1068,20.24,-34.17,289.76,0
1069,1069,20.25,-30.59,244.7,0
1070,1070,20.26,-16.63,179.06,0
1071,1071,20.28,-6.22,106.96,0
1072,1072,20.29,1.76,47.67,0
1073,1073,20.3,14.7,2.24,0
1074,1074,20.32,25.48,-53.86,0
1075,1075,20.33,21.47,-125.03,0
1076,1076,20.34,12.58,-188.88,0
1077,1077,20.36,10.47,-222.39,0
1078,1078,20.37,8.28,-221.83,0
1079,1079,20.38,3.05,-203.21,0
1080,1080,20.4,0.35,-177.36,0
1081,1081,20.41,6.73,-147.25,0
1082,1082,20.42,15.97,-126.18,0
1083,1083,20.44,10.4,-123.16,0
1084,1084,20.45,0.76,-128.46,0
1085,1085,20.46,7.57,-127.93,0
1086,1086,20.48,13.41,-116.19,0
1087,1087,20.49,1.23,-92.49,0
1088,1088,20.5,-14.07,-59.63,0
1089,1089,20.52,-18.82,-39.02,0
1090,1090,20.53,-13.39,-49.48,0
1091,1091,20.54,-3.98,-68.99,0
1092,1092,20.56,2.65,-67.04,0
1093,1093,20.57,7.82,-52.0,0
1094,1094,20.59,13.54,-48.83,0
1095,1095,20.6,14.31,-51.76,0
1096,1096,20.61,8.41,-40.39,0
1097,1097,20.63,2.55,-26.02,0
1098,1098,20.64,3.55,-25.23,0
1099,1099,20.65,8.23,-22.76,0
1100,1100,20.67,7.38,-12.39,0
1101,1101,20.68,-2.02,-11.07,0
1102,1102,20.69,-11.22,-18.99,0
1103,1103,20.71,-8.62,-15.16,0
1104,1104,20.72,2.48,5.7,0
1105,1105,20.73,6.35,18.26,0
1106,1106,20.75,-0.33,9.83,0
1107,1107,20.76,-1.29,6.62,0
1108,1108,20.77,9.35,23.83,0
1109,1109,20.79,9.31,37.39,0
1110,1110,20.8,-9.59,31.08,0
1111,1111,20.81,-20.34,20.14,0
1112,1112,20.83,-11.41,19.06,0
1113,1113,20.84,0.09,23.1,0
1114,1114,20.85,3.07,26.17,0
1115,1115,20.87,-0.11,31.22,0
1116,1116,20.88,-3.69,37.03,0
1117,1117,20.89,-4.99,37.82,0
1118,1118,20.9,-3.19,34.76,0
1119,1119,20.92,5.97,34.77,0
1120,1120,20.93,14.68,41.1,0
1121,1121,20.94,4.11,45.81,0
1122,1122,20.96,-16.69,36.77,0
1123,1123,20.97,-16.22,24.6,0
1124,1124,20.98,1.54,32.2,0
1125,1125,21.0,2.07,49.94,0
1126,1126,21.01,-14.45,52.83,0
1127,1127,21.02,-19.1,46.42,0
1128,1128,21.04,-10.01,48.44,0
1129,1129,21.05,0.63,57.4,0
1130,1130,21.06,11.38,57.15,0
1131,1131,21.08,14.94,44.96,0
1132,1132,21.09,5.36,40.34,0
1133,1133,21.1,-8.43,42.05,0
1134,1134,21.12,-14.35,31.73,0
1135,1135,21.13,-6.77,23.57,0
1136,1136,21.14,3.95,26.15,0
1137,1137,21.16,2.96,18.11,0
1138,1138,21.17,-4.25,9.13,0
1139,1139,21.18,-7.26,19.71,0
1140,1140,21.2,-8.23,27.51,0
1141,1141,21.21,-3.59,18.95,0
1142,1142,21.23,11.03,18.18,0
1143,1143,21.24,17.13,28.66,0
1144,1144,21.25,-0.28,28.7,0
1145,1145,21.27,-16.08,20.63,0
1146,1146,21.28,-6.44,21.36,0
1147,1147,21.29,4.67,25.85,0
1148,1148,21.31,-6.16,21.84,0
1149,1149,21.32,-16.94,14.48,0
1150,1150,21.33,-6.69,11.16,0
1151,1151,21.35,10.59,9.42,0
1152,1152,21.36,13.83,8.41,0
1153,1153,21.37,3.16,10.23,0
1154,1154,21.39,0.04,14.63,0
1155,1155,21.4,10.01,15.47,0
1156,1156,21.41,12.09,8.37,0
1157,1157,21.43,2.65,1.48,0
1158,1158,21.44,-4.69,0.86,0
1159,1159,21.45,-6.55,0.92,0
1160,1160,21.47,-2.72,1.47,0
1161,1161,21.48,7.35,2.94,0
1162,1162,21.49,14.59,0.89,0
1163,1163,21.51,6.81,-0.92,0
1164,1164,21.52,-11.44,0.53,0
1165,1165,21.53,-18.38,1.02,0
1166,1166,21.54,-4.77,0.46,0
1167,1167,21.56,7.58,-0.8,0
1168,1168,21.57,3.55,-3.17,0
1169,1169,21.58,1.2,-2.56,0
1170,1170,21.6,9.94,-1.15,0
1171,1171,21.61,8.72,-3.66,0
1172,1172,21.62,-8.39,-7.21,0
1173,1173,21.64,-16.72,-13.61,0
1174,1174,21.65,-4.91,-24.04,0
1175,1175,21.67,5.39,-26.57,0
1176,1176,21.68,-2.42,-15.08,0
1177,1177,21.69,-9.36,-2.56,0
1178,1178,21.7,4.27,-3.3,0
1179,1179,21.72,19.73,-12.05,0
1180,1180,21.73,14.52,-10.63,0
1181,1181,21.75,1.73,-2.61,0
1182,1182,21.76,-4.39,-12.01,0
1183,1183,21.77,-11.38,-32.21,0
1184,1184,21.78,-12.51,-32.47,0
1185,1185,21.8,1.7,-16.93,0
1186,1186,21.81,7.81,-13.76,0
1187,1187,21.82,-5.27,-23.92,0
1188,1188,21.84,-11.23,-24.29,0
1189,1189,21.85,-1.93,-8.98,0
1190,1190,21.87,4.32,-0.44,0
1191,1191,21.88,-0.54,-9.16,0
1192,1192,21.89,-3.13,-18.03,0
1193,1193,21.91,10.18,-16.5,0
1194,1194,21.92,20.38,-9.65,0
1195,1195,21.93,3.69,-3.34,0
1196,1196,21.95,-13.3,-2.34,0
1197,1197,21.96,-2.71,-6.3,0
1198,1198,21.97,8.05,-10.85,0
1199,1199,21.99,-1.96,-17.15,0
1200,1200,22.0,-9.48,-20.53,0
1201,1201,22.01,-1.53,-14.5,0
1202,1202,22.03,0.49,-7.56,0
1203,1203,22.04,-20.99,-7.88,0
1204,1204,22.05,-39.03,-12.34,0
1205,1205,22.07,-17.76,-15.45,0
1206,1206,22.08,14.61,-14.16,0
1207,1207,22.09,14.34,-14.38,0
1208,1208,22.11,0.74,-21.23,0
1209,1209,22.12,2.68,-25.68,0
1210,1210,22.13,8.55,-19.62,0
1211,1211,22.15,8.48,-8.85,0
1212,1212,22.16,8.65,-3.33,0
1213,1213,22.17,5.3,-12.22,0
1214,1214,22.18,-5.49,-21.57,0
1215,1215,22.2,-12.88,-2.91,0
1216,1216,22.21,-10.27,23.56,0
1217,1217,22.22,9.65,27.78,0
1218,1218,22.24,50.23,10.44,0
1219,1219,22.25,69.04,22.2,0
1220,1220,22.26,34.09,189.95,0
1221,1221,22.28,-19.85,409.43,0
1222,1222,22.29,-47.26,347.31,0
1223,1223,22.3,-32.68,111.15,0
1224,1224,22.32,-9.06,97.38,0
1225,1225,22.33,-7.58,183.83,0
1226,1226,22.34,-5.38,26.75,0
1227,1227,22.36,15.26,-183.06,0
1228,1228,22.37,38.62,-125.91,0
1229,1229,22.38,26.53,1.97,0
1230,1230,22.4,-18.32,-33.96,0
1231,1231,22.41,-31.8,-113.72,0
1232,1232,22.42,-16.75,-119.71,0
1233,1233,22.44,-13.35,-68.81,0
1234,1234,22.45,2.85,-55.41,0
1235,1235,22.46,24.89,-132.36,0
1236,1236,22.48,16.46,-190.22,0
1237,1237,22.49,-2.43,-153.38,0
1238,1238,22.5,-21.58,-93.78,0
1239,1239,22.52,-37.85,-66.24,0
1240,1240,22.53,-19.13,-66.25,0
1241,1241,22.55,13.19,-116.26,0
1242,1242,22.56,18.67,-166.26,0
1243,1243,22.57,8.36,-126.62,0
1244,1244,22.59,4.48,-85.04,0
1245,1245,22.6,22.59,-114.15,0
1246,1246,22.61,40.6,-124.6,0
1247,1247,22.63,16.39,-112.67,0
1248,1248,22.64,-16.2,-119.16,0
1249,1249,22.65,-5.41,-87.43,0
1250,1250,22.67,15.17,-35.46,0
1251,1251,22.68,1.98,-41.74,0
1252,1252,22.69,-21.94,-47.38,0
1253,1253,22.71,-19.4,6.02,0
1254,1254,22.72,5.41,28.61,0
1255,1255,22.73,20.89,2.34,0
1256,1256,22.75,14.04,26.9,0
1257,1257,22.76,2.63,62.16,0
1258,1258,22.77,9.06,15.38,0
1259,1259,22.79,21.47,-32.89,0
1260,1260,22.8,4.3,-26.41,0
1261,1261,22.81,-25.94,-44.2,0
1262,1262,22.82,-20.21,-79.9,0
1263,1263,22.84,12.51,-47.94,0
1264,1264,22.85,25.76,2.67,0
1265,1265,22.86,5.63,-32.72,0
1266,1266,22.88,-18.78,-62.47,0
1267,1267,22.89,-17.65,27.33,0
1268,1268,22.9,-5.09,98.21,0
1269,1269,22.92,-5.06,47.09,0
1270,1270,22.93,-2.58,5.3,0
1271,1271,22.94,4.7,36.96,0
1272,1272,22.96,-5.16,67.06,0
1273,1273,22.97,-16.56,63.9,0
1274,1274,22.98,-8.69,37.01,0
1275,1275,23.0,1.5,3.19,0
1276,1276,23.01,-3.83,-0.79,0
1277,1277,23.02,-17.12,32.29,0
1278,1278,23.04,-18.23,52.59,0
1279,1279,23.05,-3.07,37.64,0
1280,1280,23.06,13.52,31.33,0
1281,1281,23.08,17.46,49.88,0
1282,1282,23.09,3.44,48.74,0
1283,1283,23.1,-10.54,2.43,0
1284,1284,23.12,-3.94,-26.37,0
1285,1285,23.13,4.15,37.35,0
1286,1286,23.14,-5.14,123.79,0
1287,1287,23.16,-15.24,109.13,0
1288,1288,23.17,-13.96,39.32,0
1289,1289,23.19,-10.57,39.89,0
1290,1290,23.2,-10.9,77.84,0
1291,1291,23.21,-4.54,69.24,0
1292,1292,23.23,11.73,62.97,0
1293,1293,23.24,19.04,95.26,0
1294,1294,23.25,3.72,99.1,0
1295,1295,23.27,-10.29,55.6,0
1296,1296,23.28,4.61,20.95,0
1297,1297,23.29,24.42,17.3,0
1298,1298,23.31,16.74,22.7,0
1299,1299,23.32,-8.3,17.05,0
1300,1300,23.33,-20.18,2.83,0
1301,1301,23.35,-2.04,9.66,0
1302,1302,23.36,18.4,34.89,0
1303,1303,23.37,2.61,49.97,0
1304,1304,23.39,-31.26,57.73,0
1305,1305,23.4,-36.78,55.95,0
1306,1306,23.41,-18.05,48.14,0
1307,1307,23.43,-15.63,58.57,0
1308,1308,23.44,-21.33,69.49,0
1309,1309,23.45,5.0,39.79,0
1310,1310,23.46,41.08,-23.72,0
1311,1311,23.48,32.1,-46.93,0
1312,1312,23.49,-4.78,-3.81,0
1313,1313,23.5,-8.43,17.8,0
1314,1314,23.52,17.95,-4.63,0
1315,1315,23.53,29.43,11.67,0
1316,1316,23.54,23.48,62.24,0
1317,1317,23.56,8.19,74.74,0
1318,1318,23.57,-20.82,41.94,0
1319,1319,23.58,-32.22,-2.65,0
1320,1320,23.6,-2.44,-13.55,0
1321,1321,23.61,26.88,25.76,0
1322,1322,23.62,22.0,36.68,0
1323,1323,23.64,9.01,-20.88,0
1324,1324,23.65,6.78,-56.87,0
1325,1325,23.67,1.23,-22.99,0
1326,1326,23.68,-7.97,28.83,0
1327,1327,23.69,-8.4,58.28,0
1328,1328,23.7,-5.74,47.42,0
1329,1329,23.72,-7.18,1.0,0
1330,1330,23.73,-2.31,-31.07,0
1331,1331,23.75,8.56,-14.12,0
1332,1332,23.76,4.46,24.54,0
1333,1333,23.77,-15.11,19.61,0
1334,1334,23.78,-18.03,-36.43,0
1335,1335,23.8,2.52,-61.13,0
1336,1336,23.81,9.5,-20.74,0
1337,1337,23.83,1.31,20.45,0
1338,1338,23.84,12.02,24.87,0
1339,1339,23.85,22.14,11.98,0
1340,1340,23.87,-5.1,-15.4,0
1341,1341,23.88,-40.21,-42.77,0
1342,1342,23.89,-39.3,-40.53,0
1343,1343,23.91,-12.44,-38.91,0
1344,1344,23.92,13.18,-37.31,0
1345,1345,23.93,29.96,21.09,0
1346,1346,23.95,29.93,60.54,0
1347,1347,23.96,13.9,-7.58,0
1348,1348,23.97,4.75,-64.19,0
1349,1349,23.99,7.37,-30.36,0
1350,1350,24.0,5.02,-6.95,0
1351,1351,24.01,1.02,-37.62,0
1352,1352,24.03,7.23,-73.72,0
1353,1353,24.04,7.3,-63.87,0
1354,1354,24.05,-22.8,9.54,0
1355,1355,24.07,-57.87,61.87,0
1356,1356,24.08,-44.24,14.84,0
1357,1357,24.09,-1.35,-59.85,0
1358,1358,24.1,-0.0,-62.57,0
1359,1359,24.12,-24.5,-34.42,0
1360,1360,24.13,-5.05,-51.66,0
1361,1361,24.14,32.56,-58.66,0
1362,1362,24.16,22.25,-5.59,0
1363,1363,24.17,-11.35,27.3,0
1364,1364,24.18,-19.15,0.94,0
1365,1365,24.2,-9.93,-19.86,0
1366,1366,24.21,-5.32,-4.24,0
1367,1367,24.22,-2.46,33.51,0
1368,1368,24.24,13.06,89.35,0
1369,1369,24.25,29.18,128.61,0
1370,1370,24.26,12.81,110.68,0
1371,1371,24.28,-26.76,61.62,0
1372,1372,24.29,-48.05,17.51,0
1373,1373,24.3,-39.4,-30.37,0
1374,1374,24.32,-22.08,-102.51,0
1375,1375,24.33,-14.19,-200.35,0
1376,1376,24.34,-4.61,-298.31,0
1377,1377,24.36,23.43,-361.31,0
1378,1378,24.37,53.82,-372.28,0
1379,1379,24.38,70.32,-330.45,0
1380,1380,24.4,75.56,-246.91,0
1381,1381,24.41,59.94,-146.7,0
1382,1382,24.42,28.7,-56.92,0
1383,1383,24.44,12.55,12.54,0
1384,1384,24.45,10.94,66.04,0
1385,1385,24.47,6.55,96.22,0
1386,1386,24.48,4.21,95.05,0
1387,1387,24.49,6.57,87.23,0
1388,1388,24.51,3.75,94.93,0
1389,1389,24.52,-5.3,108.67,0
1390,1390,24.53,-10.04,121.49,0
1391,1391,24.55,-7.49,128.36,0
1392,1392,24.56,-5.53,118.24,0
1393,1393,24.57,-8.75,111.02,0
1394,1394,24.59,-12.89,123.08,0
1395,1395,24.6,-6.0,121.79,0
1396,1396,24.61,10.03,88.75,0
1397,1397,24.63,14.27,58.08,0
1398,1398,24.64,3.48,58.25,0
1399,1399,24.65,-5.29,72.54,0
1400,1400,24.67,-5.04,68.86,0
1401,1401,24.68,-4.01,47.9,0
1402,1402,24.69,-6.06,35.19,0
1403,1403,24.71,-1.11,36.96,0
1404,1404,24.72,6.92,38.97,0
1405,1405,24.73,-3.0,34.57,0
1406,1406,24.75,-21.73,29.76,0
1407,1407,24.76,-19.48,27.25,0
1408,1408,24.77,-2.23,24.83,0
1409,1409,24.78,3.77,24.39,0
1410,1410,24.8,-0.13,26.58,0
1411,1411,24.81,-2.79,27.15,0
1412,1412,24.82,-9.15,25.44,0
1413,1413,24.84,-17.79,22.12,0
1414,1414,24.85,-17.48,15.62,0
1415,1415,24.86,-10.78,7.19,0
1416,1416,24.88,-6.26,2.99,0
1417,1417,24.89,-8.09,6.84,0
1418,1418,24.9,-14.35,6.96,0
1419,1419,24.92,-15.39,-4.47,0
1420,1420,24.93,-9.4,-11.26,0
1421,1421,24.94,-4.24,-4.66,0
1422,1422,24.96,0.02,1.21,0
1423,1423,24.97,2.97,-3.78,0
1424,1424,24.98,2.41,-13.28,0
1425,1425,25.0,3.77,-16.22,0
1426,1426,25.01,6.27,-12.66,0
1427,1427,25.02,3.87,-13.53,0
1428,1428,25.04,-1.93,-19.52,0
1429,1429,25.05,-6.93,-20.6,0
1430,1430,25.06,-5.88,-15.77,0
1431,1431,25.08,3.33,-12.23,0
1432,1432,25.09,6.84,-11.11,0
1433,1433,25.1,-4.2,-10.83,0
1434,1434,25.12,-11.83,-13.64,0
1435,1435,25.13,-5.61,-16.75,0
1436,1436,25.15,-2.52,-14.03,0
1437,1437,25.16,-9.38,-11.74,0
1438,1438,25.17,-12.65,-18.04,0
1439,1439,25.19,-6.79,-20.59,0
1440,1440,25.2,1.27,-9.69,0
1441,1441,25.21,2.4,-3.12,0
1442,1442,25.23,-3.95,-12.2,0
1443,1443,25.24,-6.42,-20.98,0
1444,1444,25.25,-1.48,-18.79,0
1445,1445,25.27,1.97,-16.36,0
1446,1446,25.28,0.59,-20.05,0
1447,1447,25.29,-0.25,-20.23,0
1448,1448,25.31,2.49,-13.14,0
1449,1449,25.32,7.06,-9.53,0
1450,1450,25.33,10.07,-15.02,0
1451,1451,25.35,8.12,-21.46,0
1452,1452,25.36,1.41,-22.16,0
1453,1453,25.37,-6.92,-21.02,0
1454,1454,25.38,-14.28,-18.74,0
1455,1455,25.4,-14.18,-7.88,0
1456,1456,25.41,-5.5,3.47,0
1457,1457,25.42,-0.69,-0.85,0
1458,1458,25.44,-0.41,-13.23,0
1459,1459,25.45,4.02,-18.13,0
1460,1460,25.46,6.25,-13.42,0
1461,1461,25.48,5.05,-0.52,0
1462,1462,25.49,8.88,7.74,0
1463,1463,25.5,8.43,-5.33,0
1464,1464,25.52,-0.25,-21.61,0
1465,1465,25.53,0.74,-14.06,0
1466,1466,25.54,11.55,1.03,0
1467,1467,25.56,15.29,-6.45,0
1468,1468,25.57,10.98,-25.94,0
1469,1469,25.58,7.37,-26.6,0
1470,1470,25.6,6.3,-7.42,0
1471,1471,25.61,2.01,5.2,0
1472,1472,25.62,-3.76,0.43,0
1473,1473,25.64,-0.12,-4.68,0
1474,1474,25.65,8.5,-0.12,0
1475,1475,25.67,7.69,2.62,0
1476,1476,25.68,5.73,-4.88,0
1477,1477,25.69,9.95,-14.34,0
1478,1478,25.7,6.61,-15.64,0
1479,1479,25.72,-3.16,-15.21,0
1480,1480,25.73,-4.95,-20.12,0
1481,1481,25.75,2.52,-23.38,0
1482,1482,25.76,12.22,-17.02,0
1483,1483,25.77,14.54,-3.46,0
1484,1484,25.79,5.48,2.27,0
1485,1485,25.8,-5.12,-4.31,0
1486,1486,25.81,-9.67,-7.52,0
1487,1487,25.83,-10.12,-1.97,0
1488,1488,25.84,-9.73,0.53,0
1489,1489,25.85,-9.02,-6.81,0
1490,1490,25.87,-3.2,-11.63,0
1491,1491,25.88,9.46,-1.87,0
1492,1492,25.89,13.92,7.82,0
1493,1493,25.91,-1.65,5.56,0
1494,1494,25.92,-19.02,3.98,0
1495,1495,25.93,-18.2,7.59,0
1496,1496,25.95,-7.87,9.65,0
1497,1497,25.96,-4.59,9.77,0
1498,1498,25.97,-6.82,6.82,0
1499,1499,25.99,-2.99,2.37,0
1500,1500,26.0,6.5,2.57,0
1501,1501,26.01,8.72,5.07,0
1502,1502,26.02,3.3,5.66,0
1503,1503,26.04,2.6,8.27,0
1504,1504,26.05,-0.46,14.99,0
1505,1505,26.06,-13.26,16.36,0
1506,1506,26.08,-14.59,8.57,0
1507,1507,26.09,-2.54,3.97,0
1508,1508,26.1,1.52,7.18,0
1509,1509,26.12,6.01,6.41,0
1510,1510,26.13,18.76,-2.33,0
1511,1511,26.14,21.78,-6.4,0
1512,1512,26.16,14.2,1.31,0
1513,1513,26.17,6.89,6.71,0
1514,1514,26.18,3.47,2.89,0
1515,1515,26.2,6.1,4.39,0
1516,1516,26.21,6.57,12.36,0
1517,1517,26.22,2.7,13.82,0
1518,1518,26.24,8.75,10.5,0
1519,1519,26.25,22.49,9.9,0
1520,1520,26.26,23.63,8.39,0
1521,1521,26.28,12.8,-16.16,0
1522,1522,26.29,6.18,-76.17,0
1523,1523,26.3,7.34,-122.28,0
1524,1524,26.32,17.93,-105.57,0
1525,1525,26.33,35.69,-73.01,0
1526,1526,26.34,38.66,-83.92,0
1527,1527,26.36,22.97,-110.4,0
1528,1528,26.37,12.56,-110.98,0
1529,1529,26.38,11.7,-97.42,0
1530,1530,26.4,11.13,-89.32,0
1531,1531,26.41,10.24,-83.79,0
1532,1532,26.43,-1.2,-75.0,0
1533,1533,26.44,-22.79,-60.67,0
1534,1534,26.45,-24.86,-38.73,0
1535,1535,26.47,-3.58,-12.19,0
1536,1536,26.48,6.19,13.07,0
1537,1537,26.49,-1.49,38.83,0
1538,1538,26.51,-5.61,65.65,0
1539,1539,26.52,-16.72,86.67,0
1540,1540,26.53,-45.11,103.69,0
1541,1541,26.55,-57.13,122.22,0
1542,1542,26.56,-33.17,137.0,0
1543,1543,26.57,-9.85,142.58,0
1544,1544,26.59,-14.27,140.31,0
1545,1545,26.6,-23.03,139.56,0
1546,1546,26.61,-20.51,155.2,0
1547,1547,26.63,-21.12,176.73,0
1548,1548,26.64,-24.87,174.04,0
1549,1549,26.65,-23.33,152.15,0
1550,1550,26.67,-16.02,137.2,0
1551,1551,26.68,-5.9,129.67,0
1552,1552,26.69,-5.77,121.51,0
1553,1553,26.7,-16.39,114.46,0
1554,1554,26.72,-20.71,106.43,0
1555,1555,26.73,-19.9,90.89,0
1556,1556,26.75,-21.63,70.53,0
1557,1557,26.76,-14.72,56.22,0
1558,1558,26.77,-0.74,50.79,0
1559,1559,26.78,-4.72,45.65,0
1560,1560,26.8,-23.63,34.55,0
1561,1561,26.81,-19.77,19.1,0
1562,1562,26.82,6.45,5.52,0
1563,1563,26.84,11.73,0.57,0
1564,1564,26.85,-8.8,0.32,0
1565,1565,26.86,-13.28,-13.01,0
1566,1566,26.88,17.59,-41.82,0
1567,1567,26.89,47.55,-54.32,0
1568,1568,26.9,39.38,-31.53,0
1569,1569,26.92,9.07,-2.37,0
1570,1570,26.93,-11.63,0.24,0
1571,1571,26.94,-19.74,-19.79,0
1572,1572,26.96,-22.53,-38.98,0
1573,1573,26.97,-18.89,-41.09,0
1574,1574,26.98,-8.88,-30.44,0
1575,1575,27.0,1.45,-22.99,0
1576,1576,27.01,8.87,-18.95,0
1577,1577,27.02,13.24,-15.29,0
1578,1578,27.04,11.83,-24.97,0
1579,1579,27.05,7.18,-44.36,0
1580,1580,27.065,5.73,-53.59,0
1581,1581,27.08,5.23,-51.94,0
1582,1582,27.09,-1.31,-48.89,0
1583,1583,27.11,-11.45,-47.78,0
1584,1584,27.12,-12.73,-52.46,0
1585,1585,27.13,-3.17,-60.44,0
1586,1586,27.15,6.19,-60.23,0
1587,1587,27.16,16.67,-52.52,0
1588,1588,27.17,28.36,-49.82,0
1589,1589,27.19,24.14,-50.81,0
1590,1590,27.2,6.79,-49.5,0
1591,1591,27.21,0.24,-50.15,0
1592,1592,27.23,10.51,-52.77,0
1593,1593,27.24,23.95,-50.05,0
1594,1594,27.25,23.97,-42.64,0
1595,1595,27.27,13.26,-43.53,0
1596,1596,27.28,9.11,-55.18,0
1597,1597,27.29,9.12,-59.82,0
1598,1598,27.3,3.56,-53.35,0
1599,1599,27.32,-0.9,-50.05,0
1600,1600,27.33,0.22,-48.59,0
1601,1601,27.34,1.96,-39.04,0
1602,1602,27.36,3.52,-28.5,0
1603,1603,27.37,9.33,-33.43,0
1604,1604,27.38,17.73,-53.26,0
1605,1605,27.4,15.63,-61.17,0
1606,1606,27.41,-0.25,-48.56,0
1607,1607,27.42,-11.3,-41.99,0
1608,1608,27.44,-6.74,-44.28,0
1609,1609,27.45,2.38,-31.19,0
1610,1610,27.46,9.27,-10.12,0
1611,1611,27.48,19.73,-4.65,0
1612,1612,27.49,27.23,-10.99,0
1613,1613,27.5,11.95,-19.1,0
1614,1614,27.52,-20.13,-28.76,0
1615,1615,27.53,-34.5,-32.1,0
1616,1616,27.54,-19.52,-23.98,0
1617,1617,27.56,4.59,-13.82,0
1618,1618,27.57,24.58,-6.8,0
1619,1619,27.58,32.78,-0.59,0
1620,1620,27.6,17.34,1.6,0
1621,1621,27.61,-8.85,-2.26,0
1622,1622,27.62,-15.63,-7.22,0
1623,1623,27.64,-5.98,-9.23,0
1624,1624,27.65,-6.47,-7.16,0
1625,1625,27.67,-12.86,-3.43,0
1626,1626,27.68,-7.54,1.51,0
1627,1627,27.69,-0.11,11.2,0
1628,1628,27.7,-1.67,15.73,0
1629,1629,27.72,-5.14,4.11,0
1630,1630,27.73,5.53,-4.9,0
1631,1631,27.75,31.59,5.52,0
1632,1632,27.76,38.48,15.55,0
1633,1633,27.77,9.75,10.88,0
1634,1634,27.79,-13.5,7.88,0
1635,1635,27.8,-6.85,6.22,0
1636,1636,27.81,-1.42,-7.91,0
1637,1637,27.83,-13.66,-9.12,0
1638,1638,27.84,-18.78,18.25,0
1639,1639,27.85,-3.3,33.47,0
1640,1640,27.87,14.99,20.38,0
1641,1641,27.88,23.37,12.16,0
1642,1642,27.89,19.56,20.31,0
1643,1643,27.91,1.36,22.05,0
1644,1644,27.92,-6.73,8.37,0
1645,1645,27.93,8.51,1.6,0
1646,1646,27.94,11.02,11.09,0
1647,1647,27.96,-12.57,20.54,0
1648,1648,27.97,-28.73,27.3,0
1649,1649,27.98,-19.15,33.26,0
1650,1650,28.0,1.54,30.02,0
1651,1651,28.01,11.91,22.91,0
1652,1652,28.02,1.88,25.98,0
1653,1653,28.04,-16.39,37.75,0
1654,1654,28.05,-20.31,39.23,0
1655,1655,28.06,-4.58,15.46,0
1656,1656,28.08,14.18,-14.64,0
1657,1657,28.09,7.69,-16.91,0
1658,1658,28.1,-26.38,-0.11,0
1659,1659,28.12,-39.35,1.79,0
1660,1660,28.13,-6.6,-6.61,0
1661,1661,28.14,20.59,2.69,0
1662,1662,28.16,5.72,21.73,0
1663,1663,28.17,-15.26,18.37,0
1664,1664,28.18,-13.01,1.83,0
1665,1665,28.2,-6.5,7.2,0
1666,1666,28.21,-9.8,26.02,0
1667,1667,28.22,-9.73,31.94,0
1668,1668,28.24,5.23,37.24,0
1669,1669,28.25,25.44,83.1,0
1670,1670,28.26,25.05,189.96,0
1671,1671,28.28,-1.18,308.03,0
1672,1672,28.29,-19.8,363.07,0
1673,1673,28.3,-12.0,347.91,0
1674,1674,28.32,-6.16,300.67,0
1675,1675,28.33,-23.75,237.51,0
1676,1676,28.34,-42.75,162.88,0
1677,1677,28.36,-40.88,88.68,0
1678,1678,28.37,-32.34,14.07,0
1679,1679,28.39,-33.47,-59.08,0
1680,1680,28.4,-29.32,-110.21,0
1681,1681,28.41,-6.69,-144.32,0
1682,1682,28.43,15.99,-188.48,0
1683,1683,28.44,20.4,-228.54,0
1684,1684,28.45,12.43,-229.14,0
1685,1685,28.47,7.06,-205.16,0
1686,1686,28.48,13.58,-196.15,0
1687,1687,28.49,25.89,-198.86,0
1688,1688,28.51,30.18,-185.86,0
1689,1689,28.52,26.87,-157.55,0
1690,1690,28.53,22.28,-135.18,0
1691,1691,28.55,15.23,-128.7,0
1692,1692,28.56,10.3,-126.85,0
1693,1693,28.57,12.76,-110.53,0
1694,1694,28.58,17.46,-82.32,0
1695,1695,28.6,24.12,-70.14,0
1696,1696,28.61,29.9,-80.41,0
1697,1697,28.62,20.86,-87.62,0
1698,1698,28.64,4.12,-77.5,0
1699,1699,28.65,2.05,-57.67,0
1700,1700,28.67,10.28,-43.07,0
1701,1701,28.68,11.4,-41.65,0
1702,1702,28.69,7.97,-38.61,0
1703,1703,28.7,7.19,-23.79,0
1704,1704,28.72,2.33,-16.69,0
1705,1705,28.73,-12.05,-23.02,0
1706,1706,28.75,-22.43,-19.28,0
1707,1707,28.76,-13.76,-1.63,0
1708,1708,28.77,-0.12,5.5,0
1709,1709,28.78,-4.96,-3.02,0
1710,1710,28.8,-13.05,-4.3,0
1711,1711,28.81,-6.49,10.06,0
1712,1712,28.82,-4.12,18.87,0
1713,1713,28.84,-6.88,8.94,0
1714,1714,28.85,5.77,-1.82,0
1715,1715,28.86,18.49,7.74,0
1716,1716,28.88,9.97,31.94,0
1717,1717,28.89,-8.92,49.06,0
1718,1718,28.9,-23.47,46.22,0
1719,1719,28.92,-24.1,29.77,0
1720,1720,28.93,-5.66,22.92,0
1721,1721,28.94,10.59,37.15,0
1722,1722,28.96,3.89,53.63,0
1723,1723,28.97,-5.42,56.11,0
1724,1724,28.98,1.43,53.28,0
1725,1725,29.0,5.7,58.35,0
1726,1726,29.01,-4.27,70.67,0
1727,1727,29.03,-13.04,75.61,0
1728,1728,29.04,-8.0,61.83,0
1729,1729,29.05,1.88,41.84,0
1730,1730,29.07,-2.81,35.41,0
1731,1731,29.08,-17.72,43.34,0
1732,1732,29.09,-17.33,55.42,0
1733,1733,29.11,-1.88,62.28,0
1734,1734,29.12,4.74,57.32,0
1735,1735,29.13,-3.28,43.54,0
1736,1736,29.15,-10.71,32.52,0
1737,1737,29.16,-7.29,33.86,0
1738,1738,29.17,0.84,45.39,0
1739,1739,29.19,4.54,55.73,0
1740,1740,29.2,2.92,55.01,0
1741,1741,29.21,1.76,43.15,0
1742,1742,29.22,5.82,29.88,0
1743,1743,29.24,10.4,23.23,0
1744,1744,29.25,6.26,24.46,0
1745,1745,29.26,-6.64,33.54,0
1746,1746,29.28,-14.42,42.19,0
1747,1747,29.29,-8.09,37.63,0
1748,1748,29.3,-4.12,25.14,0
1749,1749,29.32,-11.99,16.09,0
1750,1750,29.33,-12.16,11.15,0
1751,1751,29.34,-0.02,13.73,0
1752,1752,29.36,3.75,22.21,0
1753,1753,29.37,-3.08,26.66,0
1754,1754,29.38,-3.97,26.81,0
1755,1755,29.4,-1.17,19.53,0
1756,1756,29.41,-8.95,3.0,0
1757,1757,29.42,-17.1,-6.33,0
1758,1758,29.44,-6.6,-0.94,0
1759,1759,29.45,8.93,8.8,0
1760,1760,29.46,7.53,16.53,0
1761,1761,29.48,0.29,18.99,0
1762,1762,29.49,2.9,18.79,0
1763,1763,29.5,6.23,19.99,0
1764,1764,29.52,3.08,11.06,0
1765,1765,29.53,2.89,-6.3,0
1766,1766,29.54,11.92,-10.49,0
1767,1767,29.56,20.46,0.09,0
1768,1768,29.57,17.27,10.03,0
1769,1769,29.58,6.4,10.27,0
1770,1770,29.6,-1.99,2.59,0
1771,1771,29.61,-3.47,-3.0,0
1772,1772,29.62,-0.58,-3.84,0
1773,1773,29.64,-1.22,-4.3,0
1774,1774,29.65,-6.08,-2.15,0
1775,1775,29.67,-8.6,-2.07,0
1776,1776,29.68,-5.22,-11.29,0
1777,1777,29.69,4.58,-17.24,0
1778,1778,29.71,12.56,-11.73,0
1779,1779,29.72,9.62,-10.09,0
1780,1780,29.73,4.88,-18.08,0
1781,1781,29.75,8.83,-23.16,0
1782,1782,29.76,10.87,-22.11,0
1783,1783,29.77,0.05,-17.08,0
1784,1784,29.79,-10.0,-7.09,0
1785,1785,29.8,-2.82,-3.2,0
1786,1786,29.81,11.08,-11.33,0
1787,1787,29.83,11.41,-17.31,0
1788,1788,29.84,0.02,-18.84,0
1789,1789,29.85,-7.77,-26.72,0
1790,1790,29.86,-6.05,-31.03,0
1791,1791,29.88,-1.7,-18.09,0
1792,1792,29.89,-3.81,-6.02,0
1793,1793,29.9,-7.13,-12.31,0
1794,1794,29.92,-0.56,-21.76,0
1795,1795,29.93,4.62,-19.06,0
1796,1796,29.94,-1.33,-12.42,0
1797,1797,29.96,-3.66,-14.83,0
1798,1798,29.97,-1.2,-21.43,0
1799,1799,29.98,-7.87,-20.72,0
1800,1800,30.0,-15.38,-23.56,0
1801,1801,30.01,-12.14,-34.9,0
1802,1802,30.02,-6.69,-33.99,0
1803,1803,30.04,-5.71,-19.79,0
1804,1804,30.05,-9.82,-15.9,0
1805,1805,30.06,-17.4,-24.67,0
1806,1806,30.08,-12.29,-26.53,0
1807,1807,30.09,6.6,-20.16,0
1808,1808,30.1,13.64,-24.92,0
1809,1809,30.12,8.01,-39.61,0
1810,1810,30.13,7.91,-38.76,0
1811,1811,30.14,6.39,-18.86,0
1812,1812,30.16,1.29,-9.67,0
1813,1813,30.17,5.84,-25.89,0
1814,1814,30.18,9.67,-35.01,0
1815,1815,30.2,4.0,20.3,0
1816,1816,30.21,9.49,93.26,0
1817,1817,30.22,31.93,25.22,0
1818,1818,30.24,41.18,-92.59,0
1819,1819,30.25,10.7,14.57,0
1820,1820,30.26,-35.05,240.47,0
1821,1821,30.28,-41.43,279.91,0
1822,1822,30.29,-10.16,159.45,0
1823,1823,30.3,9.41,98.67,0
1824,1824,30.32,17.87,148.51,0
1825,1825,30.33,21.94,161.62,0
1826,1826,30.35,-12.84,38.62,0
1827,1827,30.36,-51.53,-80.52,0
1828,1828,30.37,-28.57,-50.09,0
1829,1829,30.39,11.08,-11.79,0
1830,1830,30.4,3.62,-72.89,0
1831,1831,30.41,-20.71,-77.99,0
1832,1832,30.43,-9.63,-9.2,0
1833,1833,30.44,29.62,-5.6,0
1834,1834,30.45,47.12,-44.47,0
1835,1835,30.47,30.28,-73.05,0
1836,1836,30.48,12.09,-127.74,0
1837,1837,30.49,4.47,-179.67,0
1838,1838,30.5,-3.23,-169.87,0
1839,1839,30.52,-11.01,-148.29,0
1840,1840,30.53,-13.22,-181.78,0
1841,1841,30.54,-11.08,-197.95,0
1842,1842,30.56,-11.68,-115.68,0
1843,1843,30.57,-10.28,-40.36,0
1844,1844,30.58,8.17,-56.5,0
1845,1845,30.6,31.03,-85.3,0
1846,1846,30.61,31.42,-105.4,0
1847,1847,30.62,19.97,-124.89,0
1848,1848,30.64,15.14,-72.23,0
1849,1849,30.65,-2.94,16.29,0
1850,1850,30.67,-35.31,26.51,0
1851,1851,30.68,-32.81,-26.45,0
1852,1852,30.69,7.74,-73.61,0
1853,1853,30.7,25.3,-80.01,0
1854,1854,30.72,6.7,-53.39,0
1855,1855,30.73,-1.48,-51.42,0
1856,1856,30.75,4.04,-39.18,0
1857,1857,30.76,-8.31,30.69,0
1858,1858,30.77,-16.11,43.25,0
1859,1859,30.78,3.99,-21.76,0
1860,1860,30.8,22.96,-24.35,0
1861,1861,30.81,28.65,14.96,0
1862,1862,30.82,27.24,8.22,0
1863,1863,30.84,17.58,12.18,0
1864,1864,30.85,5.88,41.96,0
1865,1865,30.86,-7.8,28.19,0
1866,1866,30.88,-16.63,-6.02,0
1867,1867,30.89,-10.22,0.52,0
1868,1868,30.9,-5.03,20.27,0
1869,1869,30.92,-8.92,9.72,0
1870,1870,30.93,-12.02,8.35,0
1871,1871,30.94,-16.2,41.0,0
1872,1872,30.96,-16.96,39.18,0
1873,1873,30.97,-3.05,-6.12,0
1874,1874,30.99,16.19,-1.77,0
1875,1875,31.0,19.93,69.22,0
1876,1876,31.01,5.44,104.92,0
1877,1877,31.03,-9.19,52.38,0
1878,1878,31.04,-16.41,-0.28,0
1879,1879,31.05,-23.44,6.37,0
1880,1880,31.07,-22.35,22.62,0
1881,1881,31.08,-1.49,50.96,0
1882,1882,31.09,22.53,104.37,0
1883,1883,31.11,20.47,108.08,0
1884,1884,31.12,-1.75,62.92,0
1885,1885,31.13,-8.53,44.36,0
1886,1886,31.14,7.06,40.07,0
1887,1887,31.16,11.41,32.87,0
1888,1888,31.17,-14.33,53.84,0
1889,1889,31.18,-36.19,75.75,0
1890,1890,31.2,-18.94,64.3,0
1891,1891,31.21,11.62,54.12,0
1892,1892,31.22,10.85,65.69,0
1893,1893,31.24,-18.91,63.82,0
1894,1894,31.25,-38.2,34.79,0
1895,1895,31.26,-22.23,14.08,0
1896,1896,31.28,12.09,15.65,0
1897,1897,31.29,24.91,13.25,0
1898,1898,31.3,6.6,5.49,0
1899,1899,31.32,-7.5,13.83,0
1900,1900,31.33,-2.03,23.62,0
1901,1901,31.34,0.77,22.62,0
1902,1902,31.36,1.86,34.46,0
1903,1903,31.37,15.04,56.15,0
1904,1904,31.38,20.07,54.81,0
1905,1905,31.4,4.04,31.18,0
1906,1906,31.41,-10.42,24.14,0
1907,1907,31.42,-9.1,28.02,0
1908,1908,31.44,3.73,1.57,0
1909,1909,31.45,16.97,-28.47,0
1910,1910,31.46,13.96,-22.04,0
1911,1911,31.48,3.45,-11.65,0
1912,1912,31.49,5.01,-28.93,0
1913,1913,31.5,3.67,-34.1,0
1914,1914,31.52,-5.32,3.24,0
1915,1915,31.53,-4.71,42.1,0
1916,1916,31.54,-10.34,48.05,0
1917,1917,31.56,-24.99,24.79,0
1918,1918,31.57,-13.8,-3.79,0
1919,1919,31.58,7.13,-11.12,0
1920,1920,31.6,-2.38,0.54,0
1921,1921,31.61,-18.44,30.1,0
1922,1922,31.63,-13.4,49.79,0
1923,1923,31.64,-1.06,9.57,0
1924,1924,31.65,8.71,-32.55,0
1925,1925,31.67,3.7,-3.33,0
1926,1926,31.68,-18.85,23.62,0
1927,1927,31.69,-29.42,-24.5,0
1928,1928,31.71,-18.81,-66.49,0
1929,1929,31.72,-12.52,-28.82,0
1930,1930,31.73,-17.09,11.02,0
1931,1931,31.75,-14.43,10.69,0
1932,1932,31.76,-0.01,26.75,0
1933,1933,31.77,13.38,32.99,0
1934,1934,31.78,15.2,-8.36,0
1935,1935,31.8,7.44,-26.89,0
1936,1936,31.81,5.91,2.37,0
1937,1937,31.82,16.16,8.33,0
1938,1938,31.84,20.26,-20.41,0
1939,1939,31.85,12.26,-19.82,0
1940,1940,31.86,4.55,25.53,0
1941,1941,31.88,-4.62,59.54,0
1942,1942,31.89,-17.32,43.09,0
1943,1943,31.9,-15.97,-7.43,0
1944,1944,31.92,-3.01,-46.51,0
1945,1945,31.93,-1.82,-32.13,0
1946,1946,31.94,-1.41,10.81,0
1947,1947,31.96,14.74,27.16,0
1948,1948,31.97,22.4,24.4,0
1949,1949,31.98,11.38,23.02,0
1950,1950,32.0,3.62,5.18,0
1951,1951,32.01,3.59,-24.31,0
1952,1952,32.03,2.49,-29.85,0
1953,1953,32.04,-0.74,-6.27,0
1954,1954,32.05,-10.74,16.82,0
1955,1955,32.06,-18.14,4.55,0
1956,1956,32.08,-0.25,-36.29,0
1957,1957,32.09,16.54,-47.88,0
1958,1958,32.11,-3.1,-31.87,0
1959,1959,32.12,-16.78,-37.14,0
1960,1960,32.13,6.98,-40.62,0
1961,1961,32.15,21.51,-23.64,0
1962,1962,32.16,6.02,-20.8,0
1963,1963,32.17,-4.76,-27.67,0
1964,1964,32.19,0.49,-18.15,0
1965,1965,32.2,8.89,8.7,0
1966,1966,32.21,18.49,30.49,0
1967,1967,32.22,21.76,16.88,0
1968,1968,32.24,16.55,-14.22,0
1969,1969,32.25,22.47,-18.53,0
1970,1970,32.27,32.17,-33.71,0
1971,1971,32.28,18.45,-119.02,0
1972,1972,32.29,-5.54,-209.82,0
1973,1973,32.31,-14.78,-207.84,0
1974,1974,32.32,-14.14,-132.9,0
1975,1975,32.33,-11.76,-60.82,0
1976,1976,32.35,-4.55,-24.8,0
1977,1977,32.36,3.45,-31.34,0
1978,1978,32.37,7.32,-67.6,0
1979,1979,32.39,12.05,-83.41,0
1980,1980,32.4,16.78,-46.75,0
1981,1981,32.41,11.71,7.47,0
1982,1982,32.43,0.9,36.57,0
1983,1983,32.44,-1.33,44.31,0
1984,1984,32.45,-0.77,46.05,0
1985,1985,32.47,-12.29,43.81,0
1986,1986,32.48,-20.5,46.78,0
1987,1987,32.49,-6.14,59.09,0
1988,1988,32.51,7.14,67.96,0
1989,1989,32.52,-2.88,69.04,0
1990,1990,32.53,-15.5,67.63,0
1991,1991,32.54,-13.88,59.82,0
1992,1992,32.56,-5.51,47.5,0
1993,1993,32.57,5.8,43.79,0
1994,1994,32.59,14.78,48.98,0
1995,1995,32.6,8.43,51.87,0
1996,1996,32.61,-7.61,44.29,0
1997,1997,32.63,-9.96,27.71,0
1998,1998,32.64,2.71,18.34,0
1999,1999,32.65,8.68,21.09,0
2000,2000,32.67,3.89,21.55,0
2001,2001,32.68,2.21,21.38,0
2002,2002,32.69,5.14,28.63,0
2003,2003,32.71,3.53,33.55,0
2004,2004,32.72,-2.03,31.77,0
2005,2005,32.73,-4.86,29.57,0
2006,2006,32.75,-8.22,29.01,0
2007,2007,32.76,-12.9,26.56,0
2008,2008,32.77,-9.97,17.46,0
2009,2009,32.79,-4.56,10.44,0
2010,2010,32.8,-8.39,17.04,0
2011,2011,32.81,-9.97,24.36,0
2012,2012,32.83,2.95,17.79,0
2013,2013,32.84,11.51,10.64,0
2014,2014,32.85,1.4,16.33,0
2015,2015,32.87,-11.74,17.99,0
2016,2016,32.88,-14.11,4.76,0
2017,2017,32.89,-3.29,-2.33,0
2018,2018,32.9,13.77,2.99,0
2019,2019,32.92,16.74,2.92,0
2020,2020,32.93,4.69,-1.69,0
2021,2021,32.95,-2.15,2.26,0
2022,2022,32.96,-4.94,8.68,0
2023,2023,32.97,-13.48,0.05,0
2024,2024,32.99,-17.73,-20.58,0
2025,2025,33.0,-8.23,-27.6,0
2026,2026,33.01,4.44,-18.27,0
2027,2027,33.03,3.99,-14.95,0
2028,2028,33.04,-7.21,-19.02,0
2029,2029,33.05,-9.8,-18.57,0
2030,2030,33.06,-1.79,-12.22,0
2031,2031,33.08,-0.52,-2.38,0
2032,2032,33.09,-3.79,0.24,0
2033,2033,33.11,3.7,-9.87,0
2034,2034,33.12,14.08,-15.49,0
2035,2035,33.13,11.74,-8.62,0
2036,2036,33.15,-0.52,-5.65,0
2037,2037,33.16,-12.33,-12.41,0
2038,2038,33.17,-17.51,-13.84,0
2039,2039,33.19,-12.73,-4.77,0
2040,2040,33.2,-5.47,0.1,0
2041,2041,33.21,-4.42,-8.36,0
2042,2042,33.22,-0.15,-20.82,0
2043,2043,33.24,11.14,-23.18,0
2044,2044,33.25,10.79,-15.83,0
2045,2045,33.27,-2.94,-13.56,0
2046,2046,33.28,-6.32,-18.19,0
2047,2047,33.29,7.02,-16.43,0
2048,2048,33.31,17.47,-11.38,0
2049,2049,33.32,9.6,-11.58,0
2050,2050,33.33,-4.36,-12.8,0
2051,2051,33.35,-3.54,-15.15,0
2052,2052,33.36,1.32,-17.66,0
2053,2053,33.37,-7.19,-15.73,0
2054,2054,33.38,-9.92,-13.53,0
2055,2055,33.4,5.2,-14.11,0
2056,2056,33.41,11.59,-17.26,0
2057,2057,33.43,0.58,-22.43,0
2058,2058,33.44,-3.06,-22.32,0
2059,2059,33.45,3.73,-17.48,0
2060,2060,33.47,3.43,-18.69,0
2061,2061,33.48,-0.96,-18.88,0
2062,2062,33.49,0.34,-5.24,0
2063,2063,33.51,2.23,5.36,0
2064,2064,33.52,1.06,-3.93,0
2065,2065,33.53,4.08,-15.9,0
2066,2066,33.54,11.57,-16.57,0
2067,2067,33.56,10.99,-14.68,0
2068,2068,33.57,1.69,-10.29,0
2069,2069,33.59,-3.39,-2.65,0
2070,2070,33.6,-2.47,-0.64,0
2071,2071,33.61,-2.44,1.59,0
2072,2072,33.63,-1.1,6.28,0
2073,2073,33.64,5.89,1.23,0
2074,2074,33.65,9.81,-9.79,0
2075,2075,33.67,0.22,-14.23,0
2076,2076,33.68,-12.42,-9.94,0
2077,2077,33.69,-9.4,0.67,0
2078,2078,33.71,4.54,6.64,0
2079,2079,33.72,11.02,-2.67,0
2080,2080,33.73,7.53,-12.73,0
2081,2081,33.75,0.32,-6.22,0
2082,2082,33.76,-4.89,1.76,0
2083,2083,33.77,-3.21,-4.89,0
2084,2084,33.79,0.23,-9.31,0
2085,2085,33.8,3.88,2.52,0
2086,2086,33.81,13.39,8.82,0
2087,2087,33.83,15.95,-5.51,0
2088,2088,33.84,1.28,-14.24,0
2089,2089,33.85,-9.44,-1.75,0
2090,2090,33.87,-6.35,6.86,0
2091,2091,33.88,-10.28,-0.63,0
2092,2092,33.89,-19.63,-3.56,0
2093,2093,33.9,-7.1,6.24,0
2094,2094,33.92,18.43,9.17,0
2095,2095,33.93,21.46,-0.13,0
2096,2096,33.95,2.49,0.06,0
2097,2097,33.96,-10.72,10.18,0
2098,2098,33.97,-7.67,8.53,0
2099,2099,33.99,0.22,-1.28,0
2100,2100,34.0,1.11,2.19,0
2101,2101,34.01,1.72,16.48,0
2102,2102,34.03,7.34,20.31,0
2103,2103,34.04,2.47,11.09,0
2104,2104,34.05,-14.36,3.28,0
2105,2105,34.06,-19.76,3.04,0
2106,2106,34.08,-11.54,6.03,0
2107,2107,34.09,-7.35,3.24,0
2108,2108,34.11,-6.56,-7.45,0
2109,2109,34.12,-0.97,-13.72,0
2110,2110,34.13,9.16,-8.96,0
2111,2111,34.15,18.19,2.4,0
2112,2112,34.16,16.22,14.83,0
2113,2113,34.17,0.48,20.98,0
2114,2114,34.19,-14.7,19.54,0
2115,2115,34.2,-10.28,13.68,0
2116,2116,34.21,8.39,-8.43,0
2117,2117,34.23,14.41,-65.5,0
2118,2118,34.24,7.72,-135.63,0
2119,2119,34.25,11.38,-163.33,0
2120,2120,34.27,19.9,-141.94,0
2121,2121,34.28,14.42,-121.11,0
2122,2122,34.29,0.88,-128.54,0
2123,2123,34.31,-8.3,-141.53,0
2124,2124,34.32,-5.62,-131.7,0
2125,2125,34.33,12.01,-106.92,0
2126,2126,34.35,25.12,-85.42,0
2127,2127,34.36,19.47,-61.41,0
2128,2128,34.37,10.48,-28.29,0
2129,2129,34.38,3.63,4.23,0
2130,2130,34.4,-5.92,31.31,0
2131,2131,34.41,-6.39,57.53,0
2132,2132,34.43,3.55,86.05,0
2133,2133,34.44,1.2,115.34,0
2134,2134,34.45,-14.14,135.13,0
2135,2135,34.47,-13.55,138.84,0
2136,2136,34.48,2.89,142.69,0
2137,2137,34.49,0.23,157.51,0
2138,2138,34.51,-22.04,167.55,0
2139,2139,34.52,-27.96,170.47,0
2140,2140,34.53,-15.15,183.17,0
2141,2141,34.54,-16.2,197.05,0
2142,2142,34.56,-29.89,188.1,0
2143,2143,34.57,-22.66,158.72,0
2144,2144,34.59,-2.03,131.94,0
2145,2145,34.6,-2.92,122.36,0
2146,2146,34.61,-16.04,124.07,0
2147,2147,34.63,-14.01,115.56,0
2148,2148,34.64,-8.67,87.94,0
2149,2149,34.65,-16.1,64.29,0
2150,2150,34.67,-20.4,62.0,0
2151,2151,34.68,-12.23,65.83,0
2152,2152,34.69,-4.72,58.95,0
2153,2153,34.71,-6.21,40.77,0
2154,2154,34.72,-10.49,21.29,0
2155,2155,34.73,-7.09,9.55,0
2156,2156,34.75,-1.0,3.57,0
2157,2157,34.76,-3.78,1.04,0
2158,2158,34.77,-2.82,-0.56,0
2159,2159,34.79,9.62,-10.69,0
2160,2160,34.8,10.45,-29.47,0
2161,2161,34.81,1.32,-43.96,0
2162,2162,34.83,11.16,-43.47,0
2163,2163,34.84,29.46,-29.26,0
2164,2164,34.85,27.71,-19.05,0
2165,2165,34.87,15.3,-26.11,0
2166,2166,34.88,10.79,-38.43,0
2167,2167,34.89,6.89,-39.46,0
2168,2168,34.91,-5.9,-32.41,0
2169,2169,34.92,-16.04,-28.0,0
2170,2170,34.93,-7.93,-30.9,0
2171,2171,34.95,5.79,-41.43,0
2172,2172,34.96,-0.21,-50.88,0
2173,2173,34.97,-12.02,-50.27,0
2174,2174,34.99,-2.51,-49.36,0
2175,2175,35.0,13.12,-54.31,0
2176,2176,35.01,9.15,-54.46,0
2177,2177,35.03,-6.46,-53.79,0
2178,2178,35.04,-8.15,-63.9,0
2179,2179,35.05,5.67,-67.48,0
2180,2180,35.06,11.0,-50.23,0
2181,2181,35.08,4.95,-40.62,0
2182,2182,35.09,1.95,-54.06,0
2183,2183,35.11,-4.67,-56.06,0
2184,2184,35.12,-15.83,-39.16,0
2185,2185,35.13,-10.35,-39.41,0
2186,2186,35.15,7.36,-53.61,0
2187,2187,35.16,7.74,-50.85,0
2188,2188,35.17,-3.54,-41.09,0
2189,2189,35.19,2.7,-47.75,0
2190,2190,35.2,14.73,-58.83,0
2191,2191,35.21,6.69,-58.2,0
2192,2192,35.22,-3.12,-52.36,0
2193,2193,35.24,8.0,-43.14,0
2194,2194,35.25,18.14,-32.82,0
2195,2195,35.27,8.34,-35.1,0
2196,2196,35.28,-2.35,-41.85,0
2197,2197,35.29,-1.59,-39.38,0
2198,2198,35.31,1.4,-39.14,0
2199,2199,35.32,3.54,-40.47,0
2200,2200,35.33,5.87,-27.45,0
2201,2201,35.35,7.11,-13.85,0
2202,2202,35.36,6.86,-24.39,0
2203,2203,35.37,4.96,-41.61,0
2204,2204,35.38,2.85,-29.81,0
2205,2205,35.4,-1.64,-2.72,0
2206,2206,35.41,-12.54,-4.07,0
2207,2207,35.43,-15.5,-26.47,0
2208,2208,35.44,4.41,-26.96,0
2209,2209,35.45,24.14,-5.39,0
2210,2210,35.47,16.54,0.97,0
2211,2211,35.48,-1.27,-16.04,0
2212,2212,35.49,1.47,-25.56,0
2213,2213,35.51,16.69,-13.16,0
2214,2214,35.52,19.82,-3.56,0
2215,2215,35.53,15.07,-12.49,0
2216,2216,35.55,12.68,-16.23,0
2217,2217,35.56,1.6,1.1,0
2218,2218,35.57,-16.8,12.58,0
2219,2219,35.59,-16.48,-1.65,0
2220,2220,35.6,6.98,-16.15,0
2221,2221,35.61,21.89,-5.21,0
2222,2222,35.63,12.0,12.9,0
2223,2223,35.64,1.08,9.81,0
2224,2224,35.65,2.74,-3.48,0
2225,2225,35.67,-6.27,-1.74,0
2226,2226,35.68,-29.69,10.71,0
2227,2227,35.69,-27.94,18.61,0
2228,2228,35.71,4.75,19.32,0
2229,2229,35.72,20.93,12.56,0
2230,2230,35.73,11.27,0.65,0
2231,2231,35.75,6.44,-5.23,0
2232,2232,35.76,0.0,2.57,0
2233,2233,35.77,-20.99,17.99,0
2234,2234,35.79,-26.8,29.07,0
2235,2235,35.8,-5.77,29.51,0
2236,2236,35.81,12.39,24.04,0
2237,2237,35.83,17.71,21.79,0
2238,2238,35.84,21.5,21.81,0
2239,2239,35.85,22.72,17.92,0
2240,2240,35.87,16.5,10.47,0
2241,2241,35.88,-3.19,1.26,0
2242,2242,35.89,-30.61,-2.93,0
2243,2243,35.9,-36.95,7.88,0
2244,2244,35.92,-18.66,25.66,0
2245,2245,35.93,-5.15,29.73,0
2246,2246,35.95,-3.23,16.99,0
2247,2247,35.96,0.36,7.3,0
2248,2248,35.97,3.84,15.96,0
2249,2249,35.99,1.39,35.01,0
2250,2250,36.0,2.45,45.05,0
2251,2251,36.01,14.88,32.88,0
2252,2252,36.03,21.84,7.41,0
2253,2253,36.04,8.86,-1.17,0
2254,2254,36.05,-12.42,14.26,0
2255,2255,36.06,-30.28,24.26,0
2256,2256,36.08,-42.66,16.84,0
2257,2257,36.09,-42.34,13.38,0
2258,2258,36.11,-18.46,24.43,0
2259,2259,36.12,20.04,33.41,0
2260,2260,36.13,40.07,29.0,0
2261,2261,36.15,26.1,19.3,0
2262,2262,36.16,-3.7,9.68,0
2263,2263,36.17,-25.7,2.14,0
2264,2264,36.19,-25.05,3.77,0
2265,2265,36.2,-6.85,9.38,0
2266,2266,36.21,7.78,7.48,0
2267,2267,36.23,14.54,3.63,0
2268,2268,36.24,20.57,14.08,0
2269,2269,36.25,24.72,52.75,0
2270,2270,36.27,25.08,128.01,0
2271,2271,36.28,20.35,225.93,0
2272,2272,36.29,5.41,305.64,0
2273,2273,36.31,-16.85,339.78,0
2274,2274,36.32,-30.1,331.02,0
2275,2275,36.33,-25.57,282.02,0
2276,2276,36.35,-13.44,199.91,0
2277,2277,36.36,-5.95,111.96,0
2278,2278,36.37,-6.62,35.65,0
2279,2279,36.38,-17.06,-31.43,0
2280,2280,36.4,-36.47,-87.57,0
2281,2281,36.41,-52.03,-133.79,0
2282,2282,36.43,-52.65,-180.03,0
2283,2283,36.44,-37.09,-216.27,0
2284,2284,36.45,-6.57,-225.36,0
2285,2285,36.47,19.49,-219.71,0
2286,2286,36.48,15.53,-216.73,0
2287,2287,36.49,-1.02,-209.77,0
2288,2288,36.51,8.85,-189.35,0
2289,2289,36.52,39.93,-164.57,0
2290,2290,36.53,56.11,-150.29,0
2291,2291,36.54,48.07,-144.53,0
2292,2292,36.56,32.35,-130.85,0
2293,2293,36.57,21.18,-107.84,0
2294,2294,36.59,13.69,-88.15,0
2295,2295,36.6,4.4,-71.5,0
2296,2296,36.61,-1.07,-60.71,0
2297,2297,36.63,4.78,-69.08,0
2298,2298,36.64,12.16,-83.64,0
2299,2299,36.65,13.42,-79.26,0
2300,2300,36.67,14.9,-62.59,0
2301,2301,36.68,16.53,-51.55,0
2302,2302,36.69,14.14,-42.82,0
2303,2303,36.71,12.42,-32.68,0
2304,2304,36.72,13.42,-32.86,0
2305,2305,36.73,9.37,-37.55,0
2306,2306,36.75,-3.11,-27.46,0
2307,2307,36.76,-13.82,-5.97,0
2308,2308,36.77,-13.74,10.49,0
2309,2309,36.79,-7.08,13.83,0
2310,2310,36.8,-3.68,8.05,0
2311,2311,36.81,-3.83,6.18,0
2312,2312,36.83,0.58,11.33,0
2313,2313,36.84,8.61,12.95,0
2314,2314,36.85,12.5,7.79,0
2315,2315,36.87,5.72,7.02,0
2316,2316,36.88,-10.18,22.85,0
2317,2317,36.89,-19.66,47.13,0
2318,2318,36.9,-18.51,55.05,0
2319,2319,36.92,-19.04,47.35,0
2320,2320,36.93,-15.9,43.8,0
2321,2321,36.95,2.45,36.88,0
2322,2322,36.96,20.67,21.26,0
2323,2323,36.97,17.45,22.74,0
2324,2324,36.99,-0.7,45.51,0
2325,2325,37.0,-14.32,61.25,0
2326,2326,37.01,-20.28,59.31,0
2327,2327,37.03,-25.18,50.86,0
2328,2328,37.04,-25.51,47.39,0
2329,2329,37.05,-14.32,53.6,0
2330,2330,37.06,0.96,54.83,0
2331,2331,37.08,5.09,43.0,0
2332,2332,37.09,1.64,38.27,0
2333,2333,37.11,7.85,46.99,0
2334,2334,37.12,16.74,48.58,0
2335,2335,37.13,5.8,39.5,0
2336,2336,37.15,-16.86,39.13,0
2337,2337,37.16,-25.53,53.4,0
2338,2338,37.17,-16.46,63.44,0
2339,2339,37.19,-2.71,52.32,0
2340,2340,37.2,7.1,32.95,0
2341,2341,37.21,13.38,27.96,0
2342,2342,37.22,12.76,30.76,0
2343,2343,37.24,0.85,23.26,0
2344,2344,37.25,-8.38,15.77,0
2345,2345,37.27,-6.16,24.5,0
2346,2346,37.28,-11.56,34.9,0
2347,2347,37.29,-23.46,32.32,0
2348,2348,37.31,-14.4,28.14,0
2349,2349,37.32,6.14,31.54,0
2350,2350,37.33,10.97,34.0,0
2351,2351,37.35,5.01,27.67,0
2352,2352,37.36,-0.09,16.86,0
2353,2353,37.37,-3.88,14.91,0
2354,2354,37.38,-4.05,23.0,0
2355,2355,37.4,-1.76,25.55,0
2356,2356,37.41,-3.23,19.23,0
2357,2357,37.43,-11.34,13.37,0
2358,2358,37.44,-18.86,11.31,0
2359,2359,37.45,-10.25,12.31,0
2360,2360,37.47,10.24,15.64,0
2361,2361,37.48,16.59,15.59,0
2362,2362,37.49,6.84,7.45,0
2363,2363,37.51,-0.63,-2.08,0
2364,2364,37.52,-8.93,-7.94,0
2365,2365,37.53,-18.77,-12.45,0
2366,2366,37.54,-12.52,-11.89,0
2367,2367,37.56,6.99,-4.42,0
2368,2368,37.57,16.33,3.3,0
2369,2369,37.59,9.6,7.3,0
2370,2370,37.6,-1.19,4.89,0
2371,2371,37.61,-7.95,1.11,0
2372,2372,37.63,-9.56,4.84,0
2373,2373,37.64,-4.85,6.02,0
2374,2374,37.65,4.22,-3.92,0
2375,2375,37.67,8.95,-12.73,0
2376,2376,37.68,8.45,-10.9,0
2377,2377,37.69,11.08,-4.11,0
2378,2378,37.71,15.29,-0.46,0
2379,2379,37.72,13.85,-4.23,0
2380,2380,37.73,7.3,-11.5,0
2381,2381,37.75,2.57,-11.97,0
2382,2382,37.76,3.98,-8.34,0
2383,2383,37.77,5.77,-10.78,0
2384,2384,37.79,3.07,-14.31,0
2385,2385,37.8,1.65,-13.27,0
2386,2386,37.81,3.85,-15.8,0
2387,2387,37.83,2.24,-22.76,0
2388,2388,37.84,-4.87,-22.62,0
2389,2389,37.85,-9.42,-16.0,0
2390,2390,37.87,-9.25,-11.38,0
2391,2391,37.88,-10.35,-10.85,0
2392,2392,37.89,-8.74,-14.0,0
2393,2393,37.9,1.61,-17.15,0
2394,2394,37.92,9.52,-16.55,0
2395,2395,37.93,6.74,-13.91,0
2396,2396,37.95,-0.2,-11.67,0
2397,2397,37.96,-2.88,-11.7,0
2398,2398,37.97,4.83,-12.83,0
2399,2399,37.99,15.86,-14.35,0
2400,2400,38.0,14.46,-19.13,0
2401,2401,38.01,7.77,-22.52,0
2402,2402,38.03,9.52,-18.13,0
2403,2403,38.04,8.1,-11.73,0
2404,2404,38.05,-3.94,-9.88,0
2405,2405,38.06,-12.3,-13.69,0
2406,2406,38.08,-7.56,-20.98,0
2407,2407,38.09,4.45,-25.64,0
2408,2408,38.11,8.99,-26.68,0
2409,2409,38.12,-0.31,-23.07,0
2410,2410,38.13,-8.01,-10.85,0
2411,2411,38.15,-2.72,-0.6,0
2412,2412,38.16,3.17,-3.02,0
2413,2413,38.17,2.56,-12.17,0
2414,2414,38.19,-0.28,-22.57,0
2415,2415,38.2,-2.6,-29.87,0
2416,2416,38.21,3.53,-39.55,0
2417,2417,38.22,13.09,-41.93,0
2418,2418,38.24,6.77,38.4,0
2419,2419,38.25,-4.08,185.77,0
2420,2420,38.27,15.37,204.85,0
2421,2421,38.28,46.23,71.8,0
2422,2422,38.29,31.54,18.02,0
2423,2423,38.31,-17.1,55.05,0
2424,2424,38.32,-41.01,13.25,0
2425,2425,38.33,-28.23,-0.67,0
2426,2426,38.35,5.7,136.84,0
2427,2427,38.36,39.33,213.49,0
2428,2428,38.37,31.77,76.08,0
2429,2429,38.38,-4.08,-96.42,0
2430,2430,38.4,-5.01,-98.83,0
2431,2431,38.41,19.81,8.54,0
2432,2432,38.43,13.05,2.91,0
2433,2433,38.44,-24.86,-112.39,0
2434,2434,38.45,-40.63,-127.02,0
2435,2435,38.47,-18.88,-58.77,0
2436,2436,38.48,-12.11,-73.75,0
2437,2437,38.49,-26.02,-145.09,0
2438,2438,38.51,-12.49,-159.1,0
2439,2439,38.52,6.4,-124.76,0
2440,2440,38.53,-2.34,-97.03,0
2441,2441,38.54,-2.9,-60.45,0
2442,2442,38.56,14.35,-18.2,0
2443,2443,38.57,14.35,-20.46,0
2444,2444,38.59,1.52,-59.09,0
2445,2445,38.6,-2.83,-81.86,0
2446,2446,38.61,-5.82,-57.89,0
2447,2447,38.63,-9.46,-3.4,0
2448,2448,38.64,-10.85,11.52,0
2449,2449,38.65,-19.73,-64.32,0
2450,2450,38.67,-30.63,-148.5,0
2451,2451,38.68,-18.95,-119.52,0
2452,2452,38.69,9.35,-31.2,0
2453,2453,38.71,12.01,2.88,0
2454,2454,38.72,-12.43,-2.63,0
2455,2455,38.73,-17.73,-2.02,0
2456,2456,38.75,3.54,10.07,0
2457,2457,38.76,21.03,10.31,0
2458,2458,38.77,24.26,-28.33,0
2459,2459,38.79,18.6,-58.29,0
2460,2460,38.8,13.7,-30.7,0
2461,2461,38.81,12.59,0.84,0
2462,2462,38.83,5.95,-1.49,0
2463,2463,38.84,1.01,1.85,0
2464,2464,38.85,8.66,15.62,0
2465,2465,38.87,10.37,24.43,0
2466,2466,38.88,-8.15,48.62,0
2467,2467,38.89,-24.74,54.92,0
2468,2468,38.9,-19.44,22.94,0
2469,2469,38.92,-2.7,32.36,0
2470,2470,38.93,2.78,70.81,0
2471,2471,38.95,-11.6,46.21,0
2472,2472,38.96,-23.49,0.15,0
2473,2473,38.97,-5.03,8.29,0
2474,2474,38.99,28.62,33.07,0
2475,2475,39.0,31.78,20.88,0
2476,2476,39.01,4.97,-7.1,0
2477,2477,39.03,1.98,-11.89,0
2478,2478,39.04,24.08,-13.46,0
2479,2479,39.05,21.83,-32.83,0
2480,2480,39.06,8.36,-29.33,0
2481,2481,39.08,11.6,-1.01,0
2482,2482,39.09,2.1,-0.56,0
2483,2483,39.11,-16.74,-18.59,0
2484,2484,39.12,-8.41,-3.59,0
2485,2485,39.13,5.31,29.1,0
2486,2486,39.15,-1.28,9.0,0
2487,2487,39.16,-4.32,-38.54,0
2488,2488,39.17,0.17,-15.08,0
2489,2489,39.19,-8.34,41.15,0
2490,2490,39.2,-15.08,40.43,0
2491,2491,39.21,-2.44,25.53,0
2492,2492,39.22,10.33,45.77,0
2493,2493,39.24,9.69,57.28,0
2494,2494,39.25,5.26,20.74,0
2495,2495,39.27,-0.6,-21.53,0
2496,2496,39.28,-2.37,-0.13,0
2497,2497,39.29,13.54,60.28,0
2498,2498,39.31,25.91,64.95,0
2499,2499,39.32,13.45,15.18,0
2500,2500,39.33,0.88,15.37,0
2501,2501,39.35,-2.31,67.06,0
2502,2502,39.36,-11.77,56.52,0
2503,2503,39.37,-20.58,0.46,0
2504,2504,39.38,-18.74,12.14,0
2505,2505,39.4,-17.11,52.22,0
2506,2506,39.41,-25.46,44.89,0
2507,2507,39.43,-32.27,42.65,0
2508,2508,39.44,-23.22,60.58,0
2509,2509,39.45,-9.28,44.77,0
2510,2510,39.47,-5.97,19.55,0
2511,2511,39.48,-6.16,21.54,0
2512,2512,39.49,-1.7,21.24,0
2513,2513,39.51,2.81,22.64,0
2514,2514,39.52,4.33,51.82,0
2515,2515,39.53,7.45,72.37,0
2516,2516,39.54,12.34,55.38,0
2517,2517,39.56,4.87,25.93,0
2518,2518,39.57,-13.03,8.82,0
2519,2519,39.59,-4.9,30.61,0
2520,2520,39.6,25.99,73.72,0
2521,2521,39.61,18.99,55.0,0
2522,2522,39.63,-19.49,-4.02,0
2523,2523,39.64,-21.57,7.56,0
2524,2524,39.65,4.46,64.89,0
2525,2525,39.67,6.02,56.73,0
2526,2526,39.68,-9.42,-16.44,0
2527,2527,39.69,-11.39,-52.52,0
2528,2528,39.71,-7.07,-0.22,0
2529,2529,39.72,-10.86,68.04,0
2530,2530,39.73,-13.06,56.5,0
2531,2531,39.75,-9.94,-3.76,0
2532,2532,39.76,-10.43,-7.78,0
2533,2533,39.77,-13.33,30.32,0
2534,2534,39.79,-12.93,19.31,0
2535,2535,39.8,-2.17,-39.66,0
2536,2536,39.81,16.82,-67.0,0
2537,2537,39.83,23.2,-33.22,0
2538,2538,39.84,15.03,-0.96,0
2539,2539,39.85,13.59,-16.27,0
2540,2540,39.87,17.63,-43.96,0
2541,2541,39.88,10.9,-40.67,0
2542,2542,39.89,-0.46,-9.53,0
2543,2543,39.9,-1.22,13.33,0
2544,2544,39.92,0.83,0.4,0
2545,2545,39.93,-5.88,-30.41,0
2546,2546,39.95,-6.99,-31.95,0
2547,2547,39.96,9.22,0.93,0
2548,2548,39.97,25.86,21.31,0
2549,2549,39.99,20.94,11.01,0
2550,2550,40.0,-1.93,-9.79,0
2551,2551,40.01,-20.27,-30.91,0
2552,2552,40.03,-18.59,-44.49,0
2553,2553,40.04,0.64,-39.85,0
2554,2554,40.05,15.13,-22.07,0
2555,2555,40.07,5.36,-8.45,0
2556,2556,40.08,-20.87,1.55,0
2557,2557,40.09,-38.57,9.9,0
2558,2558,40.11,-28.91,-14.0,0
2559,2559,40.12,-0.56,-57.7,0
2560,2560,40.13,15.3,-56.77,0
2561,2561,40.15,14.61,-15.34,0
2562,2562,40.16,17.83,10.29,0
2563,2563,40.17,14.6,6.87,0
2564,2564,40.19,-0.37,-7.19,0
2565,2565,40.2,3.6,-32.98,0
2566,2566,40.21,22.59,-100.74,0
2567,2567,40.22,23.58,-202.9,0
2568,2568,40.24,2.19,-267.08,0
2569,2569,40.25,-28.8,-260.06,0
2570,2570,40.27,-46.85,-220.38,0
2571,2571,40.28,-36.04,-177.18,0
2572,2572,40.29,-11.41,-125.84,0
2573,2573,40.31,14.39,-63.07,0
2574,2574,40.32,45.09,4.63,0
2575,2575,40.33,65.8,74.18,0
2576,2576,40.35,62.05,133.22,0
2577,2577,40.36,48.96,156.52,0
2578,2578,40.37,36.18,145.98,0
2579,2579,40.38,16.05,131.94,0
2580,2580,40.4,-3.62,128.91,0
2581,2581,40.41,-6.03,132.3,0
2582,2582,40.43,7.46,130.98,0
2583,2583,40.44,23.22,112.69,0
2584,2584,40.45,29.07,88.37,0
2585,2585,40.47,20.01,79.47,0
2586,2586,40.48,3.81,78.37,0
2587,2587,40.49,-9.46,69.45,0
2588,2588,40.51,-18.99,62.91,0
2589,2589,40.52,-21.91,65.83,0
2590,2590,40.53,-14.93,60.73,0
2591,2591,40.54,-6.95,41.95,0
2592,2592,40.56,-11.13,30.9,0
2593,2593,40.57,-25.67,35.01,0
2594,2594,40.59,-33.35,36.42,0
2595,2595,40.6,-28.69,29.8,0
2596,2596,40.61,-23.14,29.11,0
2597,2597,40.63,-18.18,35.82,0
2598,2598,40.64,-9.74,32.4,0
2599,2599,40.65,-4.89,14.35,0
2600,2600,40.67,-7.69,-3.48,0
2601,2601,40.68,-13.13,-15.41,0
2602,2602,40.69,-15.35,-21.78,0
2603,2603,40.71,-8.42,-17.59,0
2604,2604,40.72,0.63,-14.51,0
2605,2605,40.73,-4.41,-26.31,0
2606,2606,40.75,-16.13,-33.93,0
2607,2607,40.76,-11.21,-22.28,0
2608,2608,40.77,6.63,-16.01,0
2609,2609,40.79,12.2,-28.42,0
2610,2610,40.8,-0.92,-36.64,0
2611,2611,40.81,-11.33,-28.9,0
2612,2612,40.83,-1.74,-17.22,0
2613,2613,40.84,10.49,-13.12,0
2614,2614,40.85,1.34,-16.73,0
2615,2615,40.87,-13.98,-21.02,0
2616,2616,40.88,-11.43,-24.84,0
2617,2617,40.89,-0.62,-26.92,0
2618,2618,40.9,7.04,-21.56,0
2619,2619,40.92,10.83,-17.37,0
2620,2620,40.93,2.33,-21.31,0
2621,2621,40.95,-11.92,-20.89,0
2622,2622,40.96,-12.08,-17.92,0
2623,2623,40.97,-1.9,-25.32,0
2624,2624,40.99,3.28,-32.9,0
2625,2625,41.0,1.67,-27.99,0
2626,2626,41.01,0.02,-21.2,0
2627,2627,41.03,6.16,-27.16,0
2628,2628,41.04,14.2,-36.85,0
2629,2629,41.05,9.84,-31.66,0
2630,2630,41.06,-0.55,-16.77,0
2631,2631,41.08,-1.07,-8.83,0
2632,2632,41.09,3.84,-10.99,0
2633,2633,41.11,3.25,-17.53,0
2634,2634,41.12,-2.71,-22.2,0
2635,2635,41.13,-9.72,-25.51,0
2636,2636,41.15,-11.19,-25.63,0
2637,2637,41.16,-1.63,-17.09,0
2638,2638,41.17,10.01,-9.41,0
2639,2639,41.19,11.41,-8.51,0
2640,2640,41.2,3.74,-7.74,0
2641,2641,41.21,-3.6,-11.84,0
2642,2642,41.22,-2.06,-21.57,0
2643,2643,41.24,3.94,-21.34,0
2644,2644,41.25,0.62,-8.68,0
2645,2645,41.27,-7.25,4.05,0
2646,2646,41.28,-5.4,7.06,0
2647,2647,41.29,1.66,-4.44,0
2648,2648,41.31,6.15,-21.05,0
2649,2649,41.32,8.08,-24.17,0
2650,2650,41.33,0.88,-15.48,0
2651,2651,41.35,-7.97,-10.84,0
2652,2652,41.36,2.55,-9.55,0
2653,2653,41.37,18.62,-5.89,0
2654,2654,41.38,11.73,-4.21,0
2655,2655,41.4,-5.28,-5.67,0
2656,2656,41.41,-5.45,-6.25,0
2657,2657,41.43,6.11,-3.15,0
2658,2658,41.44,10.28,4.07,0
2659,2659,41.45,8.24,10.69,0
2660,2660,41.47,7.59,10.35,0
2661,2661,41.48,4.57,2.51,0
2662,2662,41.49,-0.89,-3.22,0
2663,2663,41.51,-4.06,-1.07,0
2664,2664,41.52,-3.35,-2.64,0
2665,2665,41.53,1.6,-10.92,0
2666,2666,41.54,2.9,-6.01,0
2667,2667,41.56,-5.23,10.22,0
2668,2668,41.57,-9.65,13.88,0
2669,2669,41.59,-1.34,8.14,0
2670,2670,41.6,9.82,8.75,0
2671,2671,41.61,16.9,10.02,0
2672,2672,41.63,17.48,3.11,0
2673,2673,41.64,5.11,-1.92,0
2674,2674,41.65,-8.76,1.87,0
2675,2675,41.67,-4.32,4.66,0
2676,2676,41.68,2.43,4.79,0
2677,2677,41.69,-13.22,7.63,0
2678,2678,41.71,-28.34,8.66,0
2679,2679,41.72,-13.91,4.61,0
2680,2680,41.73,10.82,1.66,0
2681,2681,41.75,18.3,7.12,0
2682,2682,41.76,12.56,16.96,0
2683,2683,41.77,7.4,15.4,0
2684,2684,41.79,4.36,1.95,0
2685,2685,41.8,-2.22,-1.56,0
2686,2686,41.81,-7.06,8.69,0
2687,2687,41.83,0.04,13.09,0
2688,2688,41.84,7.23,8.49,0
2689,2689,41.85,-1.56,5.53,0
2690,2690,41.87,-10.98,1.94,0
2691,2691,41.88,-5.69,-7.7,0
2692,2692,41.89,1.91,-13.67,0
2693,2693,41.9,5.85,-5.11,0
2694,2694,41.92,12.05,8.89,0
2695,2695,41.93,12.49,11.83,0
2696,2696,41.95,-0.58,6.09,0
2697,2697,41.96,-15.53,8.02,0
2698,2698,41.97,-16.55,20.97,0
2699,2699,41.99,-3.9,29.72,0
2700,2700,42.0,3.01,22.69,0
2701,2701,42.01,-6.77,12.03,0
2702,2702,42.03,-16.37,12.38,0
2703,2703,42.04,-12.96,11.2,0
2704,2704,42.05,-6.62,1.73,0
2705,2705,42.06,-9.63,2.54,0
2706,2706,42.08,-17.28,13.9,0
2707,2707,42.09,-12.63,16.96,0
2708,2708,42.11,3.96,8.3,0
2709,2709,42.12,12.97,-6.21,0
2710,2710,42.13,11.38,-12.93,0
2711,2711,42.15,14.71,3.45,0
2712,2712,42.16,20.61,25.16,0
2713,2713,42.17,12.41,20.58,0
2714,2714,42.19,-3.68,2.64,0
2715,2715,42.2,-12.08,3.71,0
2716,2716,42.21,-12.58,15.71,0
2717,2717,42.22,-9.05,13.02,0
2718,2718,42.24,-5.38,-0.83,0
2719,2719,42.25,0.15,-7.35,0
2720,2720,42.27,12.25,-3.16,0
2721,2721,42.28,17.28,3.62,0
2722,2722,42.29,8.41,7.95,0
2723,2723,42.31,6.61,7.59,0
2724,2724,42.32,12.91,1.71,0
2725,2725,42.33,4.56,-3.55,0
2726,2726,42.35,-9.23,-0.94,0
2727,2727,42.36,-6.99,5.23,0
2728,2728,42.37,-3.06,5.03,0
2729,2729,42.38,-11.67,-10.72,0
2730,2730,42.4,-16.13,-57.25,0
2731,2731,42.41,-8.46,-127.68,0
2732,2732,42.43,-0.5,-172.03,0
2733,2733,42.44,7.52,-166.43,0
2734,2734,42.45,18.92,-151.34,0
2735,2735,42.47,22.77,-152.69,0
2736,2736,42.48,15.09,-149.52,0
2737,2737,42.49,11.93,-140.23,0
2738,2738,42.51,23.03,-137.61,0
2739,2739,42.52,29.54,-118.74,0
2740,2740,42.53,17.35,-73.25,0
2741,2741,42.54,7.61,-29.78,0
2742,2742,42.56,13.96,3.11,0
2743,2743,42.57,12.81,37.47,0
2744,2744,42.59,-3.2,68.82,0
2745,2745,42.6,-9.68,95.13,0
2746,2746,42.61,-5.51,121.94,0
2747,2747,42.63,-12.28,141.12,0
2748,2748,42.64,-28.56,148.82,0
2749,2749,42.65,-34.95,154.13,0
2750,2750,42.66,-29.2,160.58,0
2751,2751,42.68,-25.02,169.8,0
2752,2752,42.69,-26.96,181.66,0
2753,2753,42.71,-26.38,187.53,0
2754,2754,42.72,-18.37,180.08,0
2755,2755,42.73,-8.82,161.57,0
2756,2756,42.75,-1.21,146.29,0
2757,2757,42.76,8.18,139.68,0
2758,2758,42.77,14.79,125.54,0
2759,2759,42.79,4.61,100.79,0
2760,2760,42.8,-20.58,85.85,0
2761,2761,42.81,-32.46,81.99,0
2762,2762,42.83,-14.04,69.98,0
2763,2763,42.84,9.56,53.6,0
2764,2764,42.85,8.29,49.88,0
2765,2765,42.87,-4.27,50.13,0
2766,2766,42.88,-3.37,39.13,0
2767,2767,42.89,-2.12,21.86,0
2768,2768,42.9,-11.84,9.31,0
2769,2769,42.92,-13.0,7.12,0
2770,2770,42.93,-2.9,11.32,0
2771,2771,42.95,1.79,8.99,0
2772,2772,42.96,1.84,-5.03,0
2773,2773,42.97,0.48,-19.58,0
2774,2774,42.99,-5.97,-20.56,0
2775,2775,43.0,-7.15,-13.79,0
2776,2776,43.01,4.6,-19.62,0
2777,2777,43.03,13.07,-36.28,0
2778,2778,43.04,6.54,-41.92,0
2779,2779,43.05,-2.74,-40.51,0
2780,2780,43.06,-2.35,-49.62,0
2781,2781,43.08,4.47,-56.01,0
2782,2782,43.09,11.35,-45.98,0
2783,2783,43.11,18.87,-38.28,0
2784,2784,43.12,21.7,-47.43,0
2785,2785,43.13,7.02,-61.76,0
2786,2786,43.15,-15.34,-64.67,0
2787,2787,43.16,-14.99,-55.06,0
2788,2788,43.17,7.12,-47.76,0
2789,2789,43.19,20.89,-51.99,0
2790,2790,43.2,17.98,-57.82,0
2791,2791,43.21,11.44,-57.08,0
2792,2792,43.22,11.62,-56.39,0
2793,2793,43.24,14.26,-57.88,0
2794,2794,43.25,13.15,-53.31,0
2795,2795,43.27,19.64,-43.3,0
2796,2796,43.28,28.33,-39.97,0
2797,2797,43.29,14.37,-47.36,0
2798,2798,43.3,-7.26,-53.34,0
2799,2799,43.32,-6.71,-47.93,0
2800,2800,43.33,0.37,-42.34,0
2801,2801,43.35,-3.05,-48.43,0
2802,2802,43.36,-0.99,-59.32,0
2803,2803,43.37,5.64,-64.43,0
2804,2804,43.38,0.24,-57.64,0
2805,2805,43.4,-8.78,-42.78,0
2806,2806,43.41,-7.38,-38.8,0
2807,2807,43.43,-2.16,-50.54,0
2808,2808,43.44,1.87,-55.07,0
2809,2809,43.45,12.21,-40.48,0
2810,2810,43.47,17.33,-26.48,0
2811,2811,43.48,-0.17,-28.28,0
2812,2812,43.49,-14.47,-31.29,0
2813,2813,43.51,1.09,-23.63,0
2814,2814,43.52,15.83,-16.17,0
2815,2815,43.53,0.94,-17.1,0
2816,2816,43.54,-19.0,-23.24,0
2817,2817,43.56,-13.39,-31.26,0
2818,2818,43.57,4.79,-34.73,0
2819,2819,43.59,5.37,-29.87,0
2820,2820,43.6,-5.57,-24.68,0
2821,2821,43.61,-4.48,-23.41,0
2822,2822,43.63,3.46,-20.82,0
2823,2823,43.64,2.65,-15.61,0
2824,2824,43.65,-6.96,-12.53,0
2825,2825,43.67,-15.66,-13.8,0
2826,2826,43.68,-11.72,-14.69,0
2827,2827,43.69,2.89,-15.65,0
2828,2828,43.71,12.18,-24.49,0
2829,2829,43.72,16.98,-34.48,0
2830,2830,43.73,28.69,-26.98,0
2831,2831,43.75,37.62,-4.52,0
2832,2832,43.76,26.14,12.07,0
2833,2833,43.77,0.72,15.45,0
2834,2834,43.79,-12.76,11.07,0
2835,2835,43.8,-2.65,8.11,0
2836,2836,43.81,10.02,14.15,0
2837,2837,43.83,4.27,22.14,0
2838,2838,43.84,-9.54,24.42,0
2839,2839,43.85,-15.35,24.74,0
2840,2840,43.87,-14.08,22.78,0
2841,2841,43.88,-11.44,18.81,0
2842,2842,43.89,-9.93,19.13,0
2843,2843,43.9,-9.08,20.37,0
2844,2844,43.92,-9.73,17.33,0
2845,2845,43.93,-13.41,13.25,0
2846,2846,43.94,-14.39,10.51,0
2847,2847,43.96,-7.25,12.97,0
2848,2848,43.97,-0.32,20.59,0
2849,2849,43.99,-2.48,23.34,0
2850,2850,44.0,-8.63,20.72,0
2851,2851,44.01,-11.1,21.48,0
2852,2852,44.03,-9.42,24.19,0
2853,2853,44.04,-6.59,21.02,0
2854,2854,44.05,-10.2,12.5,0
2855,2855,44.06,-22.53,9.32,0
2856,2856,44.08,-26.92,17.09,0
2857,2857,44.09,-10.71,23.91,0
2858,2858,44.11,6.58,17.63,0
2859,2859,44.12,4.77,7.83,0
2860,2860,44.13,-0.91,10.87,0
2861,2861,44.15,4.69,22.93,0
2862,2862,44.16,10.42,27.96,0
2863,2863,44.17,3.61,21.44,0
2864,2864,44.19,-10.0,13.64,0
2865,2865,44.2,-8.73,17.81,0
2866,2866,44.21,10.7,30.25,0
2867,2867,44.22,19.48,30.58,0
2868,2868,44.24,11.3,18.59,0
2869,2869,44.25,10.3,15.37,0
2870,2870,44.27,17.93,19.04,0
2871,2871,44.28,18.76,15.75,0
2872,2872,44.29,9.57,18.16,0
2873,2873,44.31,-6.36,51.5,0
2874,2874,44.32,-19.54,126.09,0
2875,2875,44.33,-17.75,226.31,0
2876,2876,44.35,-8.32,311.49,0
2877,2877,44.36,-13.05,343.45,0
2878,2878,44.37,-31.14,317.09,0
2879,2879,44.38,-35.62,255.79,0
2880,2880,44.4,-21.37,189.08,0
2881,2881,44.41,-11.74,130.0,0
2882,2882,44.43,-12.97,71.93,0
2883,2883,44.44,-14.77,13.21,0
2884,2884,44.45,-16.87,-45.14,0
2885,2885,44.47,-18.28,-113.31,0
2886,2886,44.48,-9.64,-184.01,0
2887,2887,44.49,7.0,-226.9,0
2888,2888,44.51,18.55,-233.27,0
2889,2889,44.52,21.97,-220.94,0
2890,2890,44.53,22.08,-204.23,0
2891,2891,44.54,21.22,-189.83,0
2892,2892,44.56,23.79,-178.17,0
2893,2893,44.57,31.2,-164.27,0
2894,2894,44.58,30.33,-149.57,0
2895,2895,44.6,13.12,-139.66,0
2896,2896,44.61,-5.64,-123.55,0
2897,2897,44.625,-6.92,-89.73,0
2898,2898,44.64,8.24,-65.32,0
2899,2899,44.65,22.04,-78.72,0
2900,2900,44.67,23.18,-103.62,0
2901,2901,44.68,15.7,-103.03,0
2902,2902,44.69,11.41,-84.6,0
2903,2903,44.71,18.05,-71.02,0
2904,2904,44.72,29.57,-62.61,0
2905,2905,44.73,30.38,-51.53,0
2906,2906,44.75,12.18,-43.52,0
2907,2907,44.76,-7.43,-41.02,0
2908,2908,44.77,-4.11,-30.87,0
2909,2909,44.79,13.8,-15.7,0
2910,2910,44.8,21.39,-10.05,0
2911,2911,44.81,14.18,-6.32,0
2912,2912,44.83,1.64,2.76,0
2913,2913,44.84,-8.78,4.39,0
2914,2914,44.85,-13.79,-0.54,0
2915,2915,44.87,-14.35,6.69,0
2916,2916,44.88,-8.59,24.59,0
2917,2917,44.89,-1.36,27.05,0
2918,2918,44.9,-4.66,10.24,0
2919,2919,44.92,-11.17,8.86,0
2920,2920,44.93,-7.24,32.88,0
2921,2921,44.95,-4.16,41.39,0
2922,2922,44.96,-10.8,24.97,0
2923,2923,44.97,-12.66,25.26,0
2924,2924,44.99,-5.93,43.34,0
2925,2925,45.0,-2.12,40.48,0
2926,2926,45.01,-0.92,26.36,0
2927,2927,45.03,-1.01,36.15,0
2928,2928,45.04,-8.37,55.24,0
2929,2929,45.05,-15.65,51.33,0
2930,2930,45.06,-10.31,37.42,0
2931,2931,45.08,0.74,39.91,0
2932,2932,45.09,1.06,48.06,0
2933,2933,45.11,-7.56,46.88,0
2934,2934,45.12,-9.49,48.62,0
2935,2935,45.13,-5.26,56.59,0
2936,2936,45.15,-7.87,53.48,0
2937,2937,45.16,-10.82,43.27,0
2938,2938,45.17,-2.0,48.89,0
2939,2939,45.19,7.17,59.32,0
2940,2940,45.2,5.83,50.42,0
2941,2941,45.21,-0.1,38.54,0
2942,2942,45.22,-7.92,43.68,0
2943,2943,45.24,-12.92,49.38,0
2944,2944,45.25,-8.18,38.74,0
2945,2945,45.26,-1.07,23.27,0
2946,2946,45.28,-1.99,23.08,0
2947,2947,45.29,-5.75,37.67,0
2948,2948,45.31,1.18,47.24,0
2949,2949,45.32,12.57,41.12,0
2950,2950,45.33,9.38,24.47,0
2951,2951,45.35,0.55,11.84,0
2952,2952,45.36,1.4,16.12,0
2953,2953,45.37,-2.53,31.67,0
2954,2954,45.38,-13.62,38.56,0
2955,2955,45.4,-6.37,29.08,0
2956,2956,45.41,12.07,18.09,0
2957,2957,45.43,7.42,17.41,0
2958,2958,45.44,-9.1,18.37,0
2959,2959,45.45,-3.28,14.93,0
2960,2960,45.47,12.8,16.79,0
2961,2961,45.48,9.9,23.37,0
2962,2962,45.49,-2.55,19.9,0
2963,2963,45.51,-1.12,7.9,0
2964,2964,45.52,7.89,1.08,0
2965,2965,45.53,7.71,2.71,0
2966,2966,45.54,4.9,6.62,0
2967,2967,45.56,5.56,4.38,0
2968,2968,45.57,-3.3,-2.99,0
2969,2969,45.59,-18.44,-2.82,0
2970,2970,45.6,-16.28,6.32,0
2971,2971,45.61,2.75,8.23,0
2972,2972,45.63,14.82,-3.99,0
2973,2973,45.64,11.62,-11.86,0
2974,2974,45.65,1.49,-3.38,0
2975,2975,45.67,-5.26,5.07,0
2976,2976,45.68,-3.08,3.69,0
2977,2977,45.69,0.22,1.68,0
2978,2978,45.71,-3.98,-0.48,0
2979,2979,45.72,-5.61,-4.7,0
2980,2980,45.73,2.23,-5.19,0
2981,2981,45.75,5.83,-4.34,0
2982,2982,45.76,1.45,-8.51,0
2983,2983,45.77,0.4,-13.32,0
2984,2984,45.79,1.82,-13.56,0
2985,2985,45.8,1.32,-14.82,0
2986,2986,45.81,5.42,-22.65,0
2987,2987,45.83,10.26,-27.19,0
2988,2988,45.84,1.56,-15.71,0
2989,2989,45.85,-13.12,2.58,0
2990,2990,45.86,-14.43,4.7,0
2991,2991,45.88,-6.54,-11.18,0
2992,2992,45.89,-5.23,-22.78,0
2993,2993,45.9,-5.89,-17.23,0
2994,2994,45.92,0.79,-7.29,0
2995,2995,45.93,3.34,-11.45,0
2996,2996,45.95,-5.11,-25.22,0
2997,2997,45.96,-9.08,-26.02,0
2998,2998,45.97,-1.49,-12.53,0
2999,2999,45.99,8.48,-10.44,0
3000,3000,46.0,12.95,-27.07,0
3001,3001,46.01,7.35,-37.21,0
3002,3002,46.03,-6.68,-28.01,0
3003,3003,46.04,-17.61,-12.92,0
3004,3004,46.05,-18.43,-4.51,0
3005,3005,46.06,-16.32,-5.64,0
3006,3006,46.08,-13.21,-9.57,0
3007,3007,46.09,-4.08,-9.17,0
3008,3008,46.11,5.34,-11.74,0
3009,3009,46.12,7.78,-18.8,0
3010,3010,46.13,3.28,-19.08,0
3011,3011,46.15,-2.09,-16.76,0
3012,3012,46.16,-2.91,-20.85,0
3013,3013,46.17,-2.51,-22.66,0
3014,3014,46.19,-0.63,-20.05,0
3015,3015,46.2,2.33,-10.12,0
3016,3016,46.21,-0.78,34.3,0
3017,3017,46.22,-2.22,115.81,0
3018,3018,46.24,1.91,199.42,0
3019,3019,46.25,6.72,231.5,0
3020,3020,46.27,28.81,136.37,0
3021,3021,46.28,61.24,-55.07,0
3022,3022,46.29,57.22,-157.8,0
3023,3023,46.31,10.23,-62.91,0
3024,3024,46.32,-28.0,143.74,0
3025,3025,46.33,-14.26,235.98,0
3026,3026,46.35,25.46,62.8,0
3027,3027,46.36,26.55,-148.8,0
3028,3028,46.37,2.05,-142.03,0
3029,3029,46.38,15.11,-41.04,0
3030,3030,46.4,35.88,30.56,0
3031,3031,46.41,5.5,93.47,0
3032,3032,46.43,-28.86,64.38,0
3033,3033,46.44,-10.49,-87.46,0
3034,3034,46.45,8.59,-168.11,0
3035,3035,46.47,-18.25,-86.56,0
3036,3036,46.48,-35.79,-66.99,0
3037,3037,46.49,-20.11,-152.18,0
3038,3038,46.5,-20.72,-129.99,0
3039,3039,46.52,-30.02,-79.79,0
3040,3040,46.53,-14.71,-119.43,0
3041,3041,46.54,-2.34,-131.82,0
3042,3042,46.56,-19.03,-138.39,0
3043,3043,46.57,-46.68,-181.24,0
3044,3044,46.59,-47.43,-130.33,0
3045,3045,46.6,-10.01,-25.41,0
3046,3046,46.61,11.16,-33.56,0
3047,3047,46.63,-10.81,-89.23,0
3048,3048,46.64,-20.5,-62.0,0
3049,3049,46.65,1.27,-6.58,0
3050,3050,46.67,14.06,-7.49,0
3051,3051,46.68,5.46,-53.69,0
3052,3052,46.69,-2.41,-81.54,0
3053,3053,46.71,-1.72,-57.68,0
3054,3054,46.72,-13.84,-30.79,0
3055,3055,46.73,-32.0,-43.67,0
3056,3056,46.75,-13.51,-43.89,0
3057,3057,46.76,21.87,13.56,0
3058,3058,46.77,16.2,64.52,0
3059,3059,46.79,-3.65,70.35,0
3060,3060,46.8,14.43,83.89,0
3061,3061,46.81,36.06,80.21,0
3062,3062,46.83,13.99,8.97,0
3063,3063,46.84,-17.77,-32.38,0
3064,3064,46.85,-3.83,21.78,0
3065,3065,46.87,35.37,58.24,0
3066,3066,46.88,49.33,12.98,0
3067,3067,46.89,43.63,-20.26,0
3068,3068,46.9,30.28,1.56,0
3069,3069,46.92,-1.54,20.95,0
3070,3070,46.93,-25.74,40.97,0
3071,3071,46.95,-16.6,76.98,0
3072,3072,46.96,-1.9,70.73,0
3073,3073,46.97,-0.14,30.7,0
3074,3074,46.99,2.69,21.6,0
3075,3075,47.0,4.36,9.89,0
3076,3076,47.01,-2.96,-31.29,0
3077,3077,47.03,-2.55,-33.15,0
3078,3078,47.04,3.66,11.17,0
3079,3079,47.05,-4.95,28.67,0
3080,3080,47.06,-14.57,21.46,0
3081,3081,47.08,-3.37,47.93,0
3082,3082,47.09,19.43,96.66,0
3083,3083,47.11,30.94,107.58,0
3084,3084,47.12,22.19,64.34,0
3085,3085,47.13,2.96,6.07,0
3086,3086,47.14,-17.41,-20.27,0
3087,3087,47.16,-26.59,-3.26,0
3088,3088,47.17,-11.89,18.17,0
3089,3089,47.18,13.05,11.81,0
3090,3090,47.2,25.23,17.1,0
3091,3091,47.21,20.52,54.76,0
3092,3092,47.22,14.61,53.44,0
3093,3093,47.24,21.41,-26.42,0
3094,3094,47.25,27.66,-81.94,0
3095,3095,47.27,12.04,-18.97,0
3096,3096,47.28,-14.77,77.77,0
3097,3097,47.29,-20.86,99.12,0
3098,3098,47.31,3.49,50.74,0
3099,3099,47.32,32.52,-16.53,0
3100,3100,47.33,34.01,-23.43,0
3101,3101,47.35,12.93,55.15,0
3102,3102,47.36,5.69,102.53,0
3103,3103,47.37,10.61,37.15,0
3104,3104,47.38,-7.4,-45.47,0
3105,3105,47.4,-33.47,-45.2,0
3106,3106,47.41,-30.37,1.74,0
3107,3107,47.43,-15.49,30.17,0
3108,3108,47.44,-11.11,36.61,0
3109,3109,47.45,-5.81,42.01,0
3110,3110,47.47,-7.54,44.83,0
3111,3111,47.48,-22.77,15.55,0
3112,3112,47.49,-15.86,-32.55,0
3113,3113,47.51,15.24,-15.53,0
3114,3114,47.52,18.48,66.29,0
3115,3115,47.53,-11.29,76.44,0
3116,3116,47.54,-27.62,-10.22,0
3117,3117,47.56,-17.47,-39.02,0
3118,3118,47.57,-8.59,34.0,0
3119,3119,47.59,-15.7,71.32,0
3120,3120,47.6,-16.9,26.09,0
3121,3121,47.61,0.97,-1.8,0
3122,3122,47.63,6.78,22.3,0
3123,3123,47.64,-10.09,43.64,0
3124,3124,47.65,-8.15,29.89,0
3125,3125,47.67,17.37,-7.81,0
3126,3126,47.68,19.64,-12.81,0
3127,3127,47.69,0.4,17.21,0
3128,3128,47.71,-3.31,-13.1,0
3129,3129,47.72,-0.81,-68.76,0
3130,3130,47.73,-13.88,-28.42,0
3131,3131,47.75,-28.16,25.65,0
3132,3132,47.76,-22.35,-20.86,0
3133,3133,47.77,-2.21,-71.75,0
3134,3134,47.78,9.5,-27.96,0
3135,3135,47.8,9.52,35.79,0
3136,3136,47.81,19.15,35.4,0
3137,3137,47.82,30.82,22.05,0
3138,3138,47.84,16.09,33.39,0
3139,3139,47.85,-11.0,14.32,0
3140,3140,47.86,-19.75,-22.88,0
3141,3141,47.88,-16.25,-16.59,0
3142,3142,47.89,-23.96,4.79,0
3143,3143,47.9,-33.29,-3.62,0
3144,3144,47.92,-15.0,-15.51,0
3145,3145,47.93,15.13,9.77,0
3146,3146,47.95,20.62,45.44,0
3147,3147,47.96,4.1,36.01,0
3148,3148,47.97,-14.3,-0.21,0
3149,3149,47.99,-22.71,-25.21,0
3150,3150,48.0,-12.13,-39.47,0
3151,3151,48.01,7.84,-26.94,0
3152,3152,48.03,15.49,20.69,0
3153,3153,48.04,16.91,47.08,0
3154,3154,48.05,19.51,-0.49,0
3155,3155,48.06,-0.44,-48.98,0
3156,3156,48.08,-26.85,-22.14,0
3157,3157,48.09,-11.83,-8.22,0
3158,3158,48.11,23.62,-42.05,0
3159,3159,48.12,30.13,-17.2,0
3160,3160,48.13,17.73,54.85,0
3161,3161,48.15,11.31,61.09,0
3162,3162,48.16,4.44,2.57,0
3163,3163,48.17,-7.39,-25.69,0
3164,3164,48.19,-9.96,7.27,0
3165,3165,48.2,6.5,38.89,0
3166,3166,48.21,22.81,21.79,0
3167,3167,48.22,14.19,-33.01,0
3168,3168,48.24,-5.14,-83.2,0
3169,3169,48.25,-8.36,-75.23,0
3170,3170,48.27,9.65,-16.44,0
3171,3171,48.28,39.85,18.95,0
3172,3172,48.29,49.7,13.69,0
3173,3173,48.31,13.42,12.63,0
3174,3174,48.32,-22.99,8.55,0
3175,3175,48.33,-14.22,-13.2,0
3176,3176,48.35,1.47,-17.86,0
3177,3177,48.36,-1.02,-13.25,0
3178,3178,48.37,4.17,-31.03,0
3179,3179,48.38,10.29,-68.47,0
3180,3180,48.4,-3.52,-139.52,0
3181,3181,48.41,-23.03,-234.64,0
3182,3182,48.42,-24.64,-285.12,0
3183,3183,48.44,-6.45,-262.62,0
3184,3184,48.45,8.67,-202.48,0
3185,3185,48.46,5.74,-136.95,0
3186,3186,48.48,-1.41,-76.07,0
3187,3187,48.49,0.34,-15.32,0
3188,3188,48.5,8.13,45.96,0
3189,3189,48.52,12.61,89.06,0
3190,3190,48.53,5.46,106.72,0
3191,3191,48.54,-8.89,114.77,0
3192,3192,48.56,-18.16,116.43,0
3193,3193,48.57,-18.86,105.87,0
3194,3194,48.59,-18.26,94.63,0
3195,3195,48.6,-18.02,96.46,0
3196,3196,48.61,-8.06,103.62,0
3197,3197,48.63,7.19,101.84,0
3198,3198,48.64,10.93,90.65,0
3199,3199,48.65,2.76,72.43,0
3200,3200,48.67,-7.23,47.68,0
3201,3201,48.68,-6.39,29.83,0
3202,3202,48.69,4.11,28.76,0
3203,3203,48.71,-0.25,31.34,0
3204,3204,48.72,-16.84,28.78,0
3205,3205,48.73,-13.47,28.13,0
3206,3206,48.75,3.05,27.47,0
3207,3207,48.76,4.74,21.42,0
3208,3208,48.77,-1.72,18.4,0
3209,3209,48.79,-1.2,23.39,0
3210,3210,48.8,-1.66,28.28,0
3211,3211,48.81,-10.17,27.5,0
3212,3212,48.83,-16.74,24.62,0
3213,3213,48.84,-11.8,24.14,0
3214,3214,48.85,-3.61,23.2,0
3215,3215,48.87,-2.33,17.23,0
3216,3216,48.88,-3.83,11.31,0
3217,3217,48.89,-5.56,10.44,0
3218,3218,48.9,-11.54,12.95,0
3219,3219,48.92,-12.35,16.19,0
3220,3220,48.93,1.35,13.6,0
3221,3221,48.95,11.76,2.89,0
3222,3222,48.96,5.08,-2.79,0
3223,3223,48.97,-3.96,5.24,0
3224,3224,48.99,-6.38,11.29,0
3225,3225,49.0,-4.4,-1.64,0
3226,3226,49.01,5.96,-20.65,0
3227,3227,49.03,19.12,-24.08,0
3228,3228,49.04,21.41,-13.39,0
3229,3229,49.05,12.62,-1.42,0
3230,3230,49.06,0.01,1.12,0
3231,3231,49.08,-8.71,-9.93,0
3232,3232,49.09,-2.58,-18.87,0
3233,3233,49.1,11.74,-10.33,0
3234,3234,49.12,9.28,2.29,0
3235,3235,49.13,-7.46,0.64,0
3236,3236,49.14,-14.55,-8.03,0
3237,3237,49.16,-10.67,-9.75,0
3238,3238,49.17,-3.65,-8.36,0
3239,3239,49.19,3.07,-10.2,0
3240,3240,49.2,1.08,-10.1,0
3241,3241,49.21,-3.85,-7.02,0
3242,3242,49.22,4.91,-11.77,0
3243,3243,49.24,20.05,-25.68,0
3244,3244,49.25,19.81,-30.4,0
3245,3245,49.27,5.86,-15.21,0
3246,3246,49.28,-2.33,-0.62,0
3247,3247,49.29,-0.05,-6.18,0
3248,3248,49.31,2.54,-14.74,0
3249,3249,49.32,0.73,-8.27,0
3250,3250,49.33,-2.77,-3.58,0
3251,3251,49.35,-1.16,-15.59,0
3252,3252,49.36,4.68,-31.77,0
3253,3253,49.37,3.96,-35.52,0
3254,3254,49.38,-3.62,-21.73,0
3255,3255,49.4,-4.84,-8.12,0
3256,3256,49.41,4.8,-14.68,0
3257,3257,49.43,13.39,-23.83,0
3258,3258,49.44,12.41,-15.22,0
3259,3259,49.45,6.19,-5.82,0
3260,3260,49.47,2.74,-9.6,0
3261,3261,49.48,7.37,-15.69,0
3262,3262,49.49,11.99,-14.65,0
3263,3263,49.51,7.17,-7.13,0
3264,3264,49.52,2.55,-3.52,0
3265,3265,49.53,3.16,-11.7,0
3266,3266,49.54,-1.07,-21.52,0
3267,3267,49.56,-7.39,-23.15,0
3268,3268,49.57,-8.37,-17.51,0
3269,3269,49.59,-11.37,-10.63,0
3270,3270,49.6,-13.48,-11.61,0
3271,3271,49.61,-3.31,-17.86,0
3272,3272,49.63,5.8,-17.07,0
3273,3273,49.64,0.71,-11.03,0
3274,3274,49.65,-3.34,-8.47,0
3275,3275,49.67,0.67,-9.13,0
3276,3276,49.68,-1.13,-13.73,0
3277,3277,49.69,-7.71,-18.75,0
3278,3278,49.7,-7.18,-12.6,0
3279,3279,49.72,-2.55,-4.49,0
3280,3280,49.73,-0.81,-9.08,0
3281,3281,49.74,0.22,-11.81,0
3282,3282,49.76,3.09,-4.84,0
3283,3283,49.77,4.06,-4.76,0
3284,3284,49.78,-1.32,-8.69,0
3285,3285,49.8,-4.13,0.87,0
3286,3286,49.81,1.15,13.12,0
3287,3287,49.83,3.9,5.79,0
3288,3288,49.84,3.9,-12.45,0
3289,3289,49.85,8.14,-15.98,0
3290,3290,49.87,9.93,-4.24,0
3291,3291,49.88,3.67,3.06,0
3292,3292,49.89,-5.81,1.68,0
3293,3293,49.9,-13.23,3.24,0
3294,3294,49.92,-15.34,10.87,0
3295,3295,49.93,-11.86,14.71,0
3296,3296,49.95,-5.16,10.32,0
3297,3297,49.96,1.98,6.84,0
3298,3298,49.97,5.51,10.5,0
3299,3299,49.99,7.06,14.31,0
3300,3300,50.0,5.67,8.78,0
3301,3301,50.01,-4.16,-4.04,0
3302,3302,50.03,-12.43,-11.24,0
3303,3303,50.04,-8.02,-5.93,0
3304,3304,50.05,-2.79,4.51,0
3305,3305,50.06,-5.37,11.82,0
3306,3306,50.08,-3.77,13.72,0
3307,3307,50.09,6.01,5.35,0
3308,3308,50.11,13.54,-7.78,0
3309,3309,50.12,16.65,-8.33,0
3310,3310,50.13,15.99,2.43,0
3311,3311,50.15,7.66,7.57,0
3312,3312,50.16,-1.89,3.28,0
3313,3313,50.17,-4.8,3.94,0
3314,3314,50.19,-2.18,15.96,0
3315,3315,50.2,6.96,17.93,0
3316,3316,50.21,15.4,-18.12,0
3317,3317,50.22,11.24,-78.86,0
3318,3318,50.24,-1.88,-114.76,0
3319,3319,50.25,-14.55,-111.43,0
3320,3320,50.27,-9.38,-98.97,0
3321,3321,50.28,24.34,-98.83,0
3322,3322,50.29,48.93,-108.94,0
3323,3323,50.31,29.92,-112.01,0
3324,3324,50.32,-0.68,-93.71,0
3325,3325,50.33,-5.32,-68.85,0
3326,3326,50.34,9.77,-57.67,0
3327,3327,50.36,24.43,-53.78,0
3328,3328,50.37,19.82,-41.41,0
3329,3329,50.38,-2.15,-11.75,0
3330,3330,50.4,-12.44,28.04,0
3331,3331,50.41,-7.24,56.43,0
3332,3332,50.42,-6.4,68.05,0
3333,3333,50.44,-10.58,76.96,0
3334,3334,50.45,-16.24,87.39,0
3335,3335,50.46,-22.98,98.54,0
3336,3336,50.48,-17.28,115.12,0
3337,3337,50.49,0.71,132.17,0
3338,3338,50.51,4.02,139.5,0
3339,3339,50.52,-18.3,139.46,0
3340,3340,50.53,-42.04,141.6,0
3341,3341,50.54,-45.85,146.36,0
3342,3342,50.56,-33.27,142.99,0
3343,3343,50.57,-16.12,132.17,0
3344,3344,50.59,-2.93,128.28,0
3345,3345,50.6,-2.71,130.89,0
3346,3346,50.61,-16.17,132.31,0
3347,3347,50.63,-26.85,131.69,0
3348,3348,50.64,-20.22,121.25,0
3349,3349,50.65,0.71,99.4,0
3350,3350,50.67,18.97,83.76,0
3351,3351,50.68,19.39,80.04,0
3352,3352,50.69,4.41,73.21,0
3353,3353,50.71,-11.96,59.69,0
3354,3354,50.72,-15.39,51.24,0
3355,3355,50.73,-5.26,45.4,0
3356,3356,50.75,1.38,29.55,0
3357,3357,50.76,2.63,8.59,0
3358,3358,50.77,10.4,-3.98,0
3359,3359,50.79,9.19,-9.28,0
3360,3360,50.8,-13.06,-16.17,0
3361,3361,50.81,-26.13,-22.28,0
3362,3362,50.83,-9.82,-22.5,0
3363,3363,50.84,12.88,-24.46,0
3364,3364,50.85,24.46,-32.11,0
3365,3365,50.87,33.98,-32.5,0
3366,3366,50.88,35.28,-23.35,0
3367,3367,50.89,14.82,-23.47,0
3368,3368,50.9,-6.01,-37.05,0
3369,3369,50.92,-3.0,-44.47,0
3370,3370,50.93,9.42,-42.19,0
3371,3371,50.95,7.94,-47.57,0
3372,3372,50.96,-2.81,-59.16,0
3373,3373,50.97,-1.42,-61.97,0
3374,3374,50.98,10.99,-56.72,0
3375,3375,51.0,7.1,-46.74,0
3376,3376,51.01,-11.97,-35.59,0
3377,3377,51.02,-16.93,-38.09,0
3378,3378,51.04,-9.96,-52.59,0
3379,3379,51.05,-11.41,-57.35,0
3380,3380,51.06,-12.07,-49.36,0
3381,3381,51.08,3.62,-45.26,0
3382,3382,51.09,19.45,-47.84,0
3383,3383,51.1,15.01,-46.38,0
3384,3384,51.12,2.55,-42.85,0
3385,3385,51.13,4.38,-46.18,0
3386,3386,51.15,17.02,-48.58,0
3387,3387,51.16,19.77,-40.45,0
3388,3388,51.17,8.25,-35.74,0
3389,3389,51.19,-1.27,-48.64,0
3390,3390,51.2,-0.97,-64.74,0
3391,3391,51.21,2.75,-65.43,0
3392,3392,51.22,6.58,-54.24,0
3393,3393,51.24,10.1,-44.65,0
3394,3394,51.25,11.51,-45.14,0
3395,3395,51.27,6.52,-51.45,0
3396,3396,51.28,-4.79,-50.94,0
3397,3397,51.29,-10.28,-41.37,0
3398,3398,51.31,-9.46,-31.62,0
3399,3399,51.32,-7.9,-27.49,0
3400,3400,51.33,3.65,-27.96,0
3401,3401,51.35,15.51,-30.81,0
3402,3402,51.36,6.94,-34.75,0
3403,3403,51.37,-4.35,-34.86,0
3404,3404,51.38,-2.09,-27.48,0
3405,3405,51.4,-1.59,-22.47,0
3406,3406,51.41,-1.38,-28.29,0
3407,3407,51.43,8.29,-33.24,0
3408,3408,51.44,13.56,-26.44,0
3409,3409,51.45,6.01,-16.92,0
3410,3410,51.47,-2.43,-13.04,0
3411,3411,51.48,-5.8,-8.52,0
3412,3412,51.49,-4.75,-4.96,0
3413,3413,51.51,1.59,-11.54,0
3414,3414,51.52,6.62,-17.16,0
3415,3415,51.53,5.35,-7.27,0
3416,3416,51.54,1.54,3.73,0
3417,3417,51.56,-4.24,-1.25,0
3418,3418,51.57,-7.4,-11.24,0
3419,3419,51.59,-4.76,-10.68,0
3420,3420,51.6,-8.35,-5.42,0
3421,3421,51.61,-14.07,-9.38,0
3422,3422,51.62,-3.21,-15.39,0
3423,3423,51.64,8.73,-8.01,0
3424,3424,51.65,-0.19,4.45,0
3425,3425,51.66,-10.36,7.85,0
3426,3426,51.68,-3.6,7.0,0
3427,3427,51.69,3.51,8.4,0
3428,3428,51.7,-0.44,7.84,0
3429,3429,51.72,-1.12,1.64,0
3430,3430,51.73,11.54,-0.0,0
3431,3431,51.74,23.2,9.08,0
3432,3432,51.76,20.15,13.7,0
3433,3433,51.77,5.87,10.54,0
3434,3434,51.79,-10.94,15.01,0
3435,3435,51.8,-15.35,23.3,0
3436,3436,51.81,0.16,22.79,0
3437,3437,51.83,12.0,19.45,0
3438,3438,51.84,3.3,17.68,0
3439,3439,51.85,-7.01,12.24,0
3440,3440,51.87,-8.78,8.29,0
3441,3441,51.88,-12.35,14.53,0
3442,3442,51.89,-17.01,22.48,0
3443,3443,51.9,-15.28,21.74,0
3444,3444,51.92,-6.97,20.32,0
3445,3445,51.93,3.46,23.47,0
3446,3446,51.95,8.35,21.54,0
3447,3447,51.96,7.79,15.17,0
3448,3448,51.97,11.45,14.53,0
3449,3449,51.99,14.67,20.95,0
3450,3450,52.0,4.27,27.45,0
3451,3451,52.01,-9.89,26.73,0
3452,3452,52.03,-14.44,20.17,0
3453,3453,52.04,-14.76,16.87,0
3454,3454,52.05,-10.38,21.02,0
3455,3455,52.06,-0.75,27.32,0
3456,3456,52.08,-5.11,26.94,0
3457,3457,52.09,-17.6,18.83,0
3458,3458,52.11,-6.3,10.57,0
3459,3459,52.12,16.73,9.36,0
3460,3460,52.13,18.08,17.97,0
3461,3461,52.15,5.64,28.67,0
3462,3462,52.16,-1.43,31.49,0
3463,3463,52.17,-5.59,26.54,0
3464,3464,52.19,-10.86,16.23,0
3465,3465,52.2,-11.39,7.55,0
3466,3466,52.21,-0.01,23.06,0
3467,3467,52.22,14.59,86.94,0
3468,3468,52.24,14.96,188.98,0
3469,3469,52.25,8.2,277.22,0
3470,3470,52.26,9.01,312.45,0
3471,3471,52.28,9.37,301.87,0
3472,3472,52.29,-2.61,257.63,0
3473,3473,52.3,-26.66,187.47,0
3474,3474,52.32,-44.04,126.3,0
3475,3475,52.33,-35.66,92.84,0
3476,3476,52.34,-26.13,52.12,0
3477,3477,52.36,-44.75,-14.91,0
3478,3478,52.37,-59.35,-74.51,0
3479,3479,52.38,-33.96,-111.06,0
3480,3480,52.4,3.62,-148.52,0
3481,3481,52.41,14.91,-193.29,0
3482,3482,52.43,6.58,-224.59,0
3483,3483,52.44,3.53,-228.36,0
3484,3484,52.45,15.37,-210.89,0
3485,3485,52.47,31.58,-192.38,0
3486,3486,52.48,32.55,-182.31,0
3487,3487,52.49,19.24,-165.73,0
3488,3488,52.51,13.18,-140.56,0
3489,3489,52.52,19.6,-127.26,0
3490,3490,52.53,22.44,-124.33,0
3491,3491,52.54,16.69,-114.0,0
3492,3492,52.56,13.83,-97.59,0
3493,3493,52.57,17.26,-86.11,0
3494,3494,52.59,16.33,-84.55,0
3495,3495,52.6,9.09,-90.05,0
3496,3496,52.61,10.68,-92.69,0
3497,3497,52.63,26.8,-85.59,0
3498,3498,52.64,40.69,-67.59,0
3499,3499,52.65,34.65,-45.93,0
3500,3500,52.67,13.85,-32.38,0
3501,3501,52.68,1.04,-23.63,0
3502,3502,52.69,4.25,-13.33,0
3503,3503,52.71,9.11,-6.81,0
3504,3504,52.72,4.23,-3.4,0
3505,3505,52.73,-4.56,4.7,0
3506,3506,52.75,-2.08,13.45,0
3507,3507,52.76,9.43,12.79,0
3508,3508,52.77,8.5,6.62,0
3509,3509,52.79,-6.29,6.31,0
3510,3510,52.8,-16.02,14.95,0
3511,3511,52.81,-14.33,24.41,0
3512,3512,52.83,-7.98,24.73,0
3513,3513,52.84,-4.56,25.41,0
3514,3514,52.85,-6.58,41.11,0
3515,3515,52.87,-10.31,53.32,0
3516,3516,52.88,-11.85,39.88,0
3517,3517,52.89,-7.12,17.9,0
3518,3518,52.9,3.4,16.32,0
3519,3519,52.92,6.19,33.35,0
3520,3520,52.93,-3.71,44.05,0
3521,3521,52.94,-9.36,44.16,0
3522,3522,52.96,-6.01,49.34,0
3523,3523,52.97,-6.12,54.34,0
3524,3524,52.98,-7.38,48.79,0
3525,3525,53.0,-0.56,44.44,0
3526,3526,53.01,8.68,47.77,0
3527,3527,53.02,8.13,49.2,0
3528,3528,53.04,-6.55,47.46,0
3529,3529,53.05,-20.18,46.32,0
3530,3530,53.06,-16.32,41.04,0
3531,3531,53.08,-7.98,34.14,0
3532,3532,53.09,-9.89,37.04,0
3533,3533,53.11,-11.29,47.51,0
3534,3534,53.12,-5.37,49.07,0
3535,3535,53.13,0.06,38.4,0
3536,3536,53.15,2.76,31.44,0
3537,3537,53.16,4.07,37.54,0
3538,3538,53.17,4.38,42.29,0
3539,3539,53.19,6.5,32.82,0
3540,3540,53.2,5.35,20.65,0
3541,3541,53.21,-2.53,20.15,0
3542,3542,53.22,-7.15,25.89,0
3543,3543,53.24,-7.16,27.03,0
3544,3544,53.25,-11.53,25.84,0
3545,3545,53.27,-17.12,28.49,0
3546,3546,53.28,-15.66,31.16,0
3547,3547,53.29,-6.63,30.01,0
3548,3548,53.31,1.23,29.09,0
3549,3549,53.32,-3.96,30.39,0
3550,3550,53.33,-15.43,34.58,0
3551,3551,53.35,-14.58,40.29,0
3552,3552,53.36,-4.04,40.1,0
3553,3553,53.37,4.81,32.44,0
3554,3554,53.38,9.09,20.62,0
3555,3555,53.4,5.32,10.46,0
3556,3556,53.41,-1.49,10.13,0
3557,3557,53.43,-3.85,13.95,0
3558,3558,53.44,-11.19,9.06,0
3559,3559,53.45,-22.88,-2.94,0
3560,3560,53.47,-23.42,-11.0,0
3561,3561,53.48,-13.59,-6.12,0
3562,3562,53.49,-2.7,9.1,0
3563,3563,53.51,7.37,17.27,0
3564,3564,53.52,15.27,8.67,0
3565,3565,53.53,13.78,-5.69,0
3566,3566,53.54,2.96,-9.88,0
3567,3567,53.56,-2.5,-1.86,0
3568,3568,53.57,-2.19,4.54,0
3569,3569,53.58,-8.01,1.95,0
3570,3570,53.6,-10.49,-5.12,0
3571,3571,53.61,1.85,-15.91,0
3572,3572,53.62,14.15,-22.2,0
3573,3573,53.64,13.37,-11.27,0
3574,3574,53.65,8.7,3.31,0
3575,3575,53.66,7.79,-0.84,0
3576,3576,53.68,5.55,-15.11,0
3577,3577,53.69,2.56,-19.63,0
3578,3578,53.7,2.59,-15.23,0
3579,3579,53.72,-1.76,-14.66,0
3580,3580,53.73,-6.34,-22.87,0
3581,3581,53.75,3.53,-30.56,0
3582,3582,53.76,14.95,-27.12,0
3583,3583,53.77,7.42,-17.39,0
3584,3584,53.79,-9.7,-16.34,0
3585,3585,53.8,-16.22,-25.2,0
3586,3586,53.81,-5.04,-24.83,0
3587,3587,53.83,14.25,-12.22,0
3588,3588,53.84,19.98,-11.56,0
3589,3589,53.85,4.56,-22.59,0
3590,3590,53.87,-9.77,-22.25,0
3591,3591,53.88,-2.21,-16.06,0
3592,3592,53.89,13.57,-19.69,0
3593,3593,53.9,14.02,-20.58,0
3594,3594,53.92,0.75,-7.57,0
3595,3595,53.93,-9.96,-0.75,0
3596,3596,53.95,-9.66,-10.89,0
3597,3597,53.96,0.01,-19.23,0
3598,3598,53.97,10.95,-18.41,0
3599,3599,53.99,15.29,-16.27,0
3600,3600,54.0,13.94,-10.97,0
3601,3601,54.01,12.91,-2.92,0
3602,3602,54.03,9.65,-1.64,0
3603,3603,54.04,-0.25,-8.2,0
3604,3604,54.05,-10.41,-12.27,0
3605,3605,54.06,-18.18,-11.85,0
3606,3606,54.08,-25.55,-15.3,0
3607,3607,54.09,-21.09,-21.24,0
3608,3608,54.11,-5.39,-24.18,0
3609,3609,54.12,0.47,-26.17,0
3610,3610,54.13,-4.95,-21.22,0
3611,3611,54.15,-3.91,1.5,0
3612,3612,54.16,12.14,30.26,0
3613,3613,54.17,30.17,38.13,0
3614,3614,54.18,26.25,29.4,0
3615,3615,54.2,4.85,47.36,0
3616,3616,54.21,-11.97,85.78,0
3617,3617,54.22,-19.38,83.84,0
3618,3618,54.24,-10.96,75.66,0
3619,3619,54.25,12.37,123.38,0
3620,3620,54.26,21.15,139.63,0
3621,3621,54.28,7.57,65.49,0
3622,3622,54.29,1.45,5.14,0
3623,3623,54.3,12.86,1.31,0
3624,3624,54.32,14.39,6.16,0
3625,3625,54.33,-15.08,17.5,0
3626,3626,54.34,-38.44,0.94,0
3627,3627,54.36,-5.6,-74.49,0
3628,3628,54.37,48.42,-114.42,0
3629,3629,54.38,55.89,-54.98,0
3630,3630,54.4,23.16,9.38,0
3631,3631,54.41,-7.39,-0.49,0
3632,3632,54.43,-29.77,-48.25,0
3633,3633,54.44,-46.47,-89.08,0
3634,3634,54.45,-34.46,-96.38,0
3635,3635,54.47,2.9,-72.36,0
3636,3636,54.48,19.15,-83.82,0
3637,3637,54.49,3.51,-133.87,0
3638,3638,54.51,-4.08,-143.25,0
3639,3639,54.52,2.97,-131.19,0
3640,3640,54.53,3.29,-136.26,0
3641,3641,54.54,2.89,-102.22,0
3642,3642,54.56,1.05,-43.86,0
3643,3643,54.57,-6.45,-41.91,0
3644,3644,54.59,2.98,-77.53,0
3645,3645,54.6,17.8,-85.64,0
3646,3646,54.61,7.63,-60.39,0
3647,3647,54.63,0.05,-33.74,0
3648,3648,54.64,20.76,-25.45,0
3649,3649,54.65,33.61,-19.8,0
3650,3650,54.67,11.44,-7.35,0
3651,3651,54.68,-14.37,-21.9,0
3652,3652,54.69,-7.72,-59.06,0
3653,3653,54.71,14.62,-46.78,0
3654,3654,54.72,15.19,23.88,0
3655,3655,54.73,-1.94,60.69,0
3656,3656,54.75,-6.89,23.28,0
3657,3657,54.76,5.23,-15.14,0
3658,3658,54.77,10.85,-3.35,0
3659,3659,54.79,-2.73,11.08,0
3660,3660,54.8,-13.75,-8.05,0
3661,3661,54.81,-9.2,-25.48,0
3662,3662,54.82,-7.71,-20.02,0
3663,3663,54.84,-13.66,-28.79,0
3664,3664,54.85,-11.12,-59.96,0
3665,3665,54.86,-4.32,-40.94,0
3666,3666,54.88,-10.04,45.28,0
3667,3667,54.89,-20.85,98.26,0
3668,3668,54.9,-20.76,69.56,0
3669,3669,54.92,-9.07,32.05,0
3670,3670,54.93,8.71,34.49,0
3671,3671,54.94,17.81,50.54,0
3672,3672,54.96,12.34,71.91,0
3673,3673,54.97,5.59,101.97,0
3674,3674,54.98,-2.28,103.12,0
3675,3675,55.0,-10.06,53.47,0
3676,3676,55.01,-8.4,1.74,0
3677,3677,55.02,-9.96,2.25,0
3678,3678,55.04,-13.95,35.24,0
3679,3679,55.05,0.13,46.37,0
3680,3680,55.06,12.76,31.59,0
3681,3681,55.08,2.04,21.76,0
3682,3682,55.09,-7.67,35.95,0
3683,3683,55.11,-5.66,57.17,0
3684,3684,55.12,-10.05,40.61,0
3685,3685,55.13,-19.78,15.55,0
3686,3686,55.15,-20.19,48.67,0
3687,3687,55.16,-14.35,92.31,0
3688,3688,55.17,-11.52,76.83,0
3689,3689,55.19,-7.47,28.0,0
3690,3690,55.2,-1.34,5.58,0
3691,3691,55.21,4.01,32.07,0
3692,3692,55.22,7.09,59.09,0
3693,3693,55.24,6.78,43.15,0
3694,3694,55.25,14.29,18.65,0
3695,3695,55.27,21.32,21.44,0
3696,3696,55.28,4.78,36.01,0
3697,3697,55.29,-12.53,29.07,0
3698,3698,55.31,-4.89,5.16,0
3699,3699,55.32,6.15,1.73,0
3700,3700,55.33,3.53,24.03,0
3701,3701,55.35,0.7,39.73,0
3702,3702,55.36,8.05,19.62,0
3703,3703,55.37,17.29,-13.96,0
3704,3704,55.38,21.46,-19.46,0
3705,3705,55.4,19.47,-9.79,0
3706,3706,55.41,6.32,-2.65,0
3707,3707,55.43,-12.51,11.75,0
3708,3708,55.44,-22.04,23.78,0
3709,3709,55.45,-18.4,25.93,0
3710,3710,55.46,-9.78,33.94,0
3711,3711,55.48,-6.47,45.79,0
3712,3712,55.49,-1.62,44.3,0
3713,3713,55.5,15.11,24.09,0
3714,3714,55.52,23.24,-8.2,0
3715,3715,55.53,8.95,-30.26,0
3716,3716,55.54,-3.72,-38.44,0
3717,3717,55.56,-5.38,-52.87,0
3718,3718,55.57,-7.6,-48.01,0
3719,3719,55.58,-7.77,-1.8,0
3720,3720,55.6,-7.54,29.51,0
3721,3721,55.61,-10.65,16.98,0
3722,3722,55.62,-0.53,1.36,0
3723,3723,55.64,17.13,-16.69,0
3724,3724,55.65,10.28,-44.66,0
3725,3725,55.66,-9.47,-36.09,0
3726,3726,55.68,-7.47,-9.11,0
3727,3727,55.69,-1.02,-15.15,0
3728,3728,55.71,-12.15,-6.26,0
3729,3729,55.72,-12.53,34.43,0
3730,3730,55.73,9.99,33.56,0
3731,3731,55.75,23.75,-11.4,0
3732,3732,55.76,17.94,-21.81,0
3733,3733,55.77,18.38,22.51,0
3734,3734,55.79,22.96,40.69,0
3735,3735,55.8,1.26,-15.76,0
3736,3736,55.81,-26.37,-57.02,0
3737,3737,55.83,-19.04,-23.98,0
3738,3738,55.84,-2.21,-7.9,0
3739,3739,55.85,-8.37,-36.78,0
3740,3740,55.87,-12.88,-30.04,0
3741,3741,55.88,-1.67,-4.0,0
3742,3742,55.89,2.19,-12.24,0
3743,3743,55.9,-6.81,-20.87,0
3744,3744,55.92,-10.15,-10.63,0
3745,3745,55.93,0.59,-3.35,0
3746,3746,55.95,12.32,-3.28,0
3747,3747,55.96,6.8,-8.93,0
3748,3748,55.97,-11.54,-4.57,0
3749,3749,55.99,-13.67,12.56,0
3750,3750,56.0,3.79,0.87,0
3751,3751,56.01,10.08,-27.31,0
3752,3752,56.03,-0.56,-14.8,0
3753,3753,56.04,-5.28,4.13,0
3754,3754,56.05,4.04,-24.74,0
3755,3755,56.06,10.12,-40.27,0
3756,3756,56.08,-3.94,6.08,0
3757,3757,56.09,-20.38,44.44,0
3758,3758,56.1,-8.33,38.54,0
3759,3759,56.12,21.86,28.98,0
3760,3760,56.13,32.77,11.73,0
3761,3761,56.14,14.38,-19.02,0
3762,3762,56.16,-7.65,-7.29,0
3763,3763,56.17,-6.78,38.52,0
3764,3764,56.18,7.89,36.12,0
3765,3765,56.2,6.75,-8.21,0
3766,3766,56.21,-2.93,-23.45,0
3767,3767,56.22,9.61,-1.49,0
3768,3768,56.24,26.3,2.73,0
3769,3769,56.25,14.62,-52.27,0
3770,3770,56.26,2.34,-122.34,0
3771,3771,56.28,19.68,-149.3,0
3772,3772,56.29,38.52,-162.1,0
3773,3773,56.3,27.49,-183.74,0
3774,3774,56.32,-5.87,-182.13,0
3775,3775,56.33,-30.01,-162.45,0
3776,3776,56.35,-23.17,-146.55,0
3777,3777,56.36,-4.41,-118.8,0
3778,3778,56.37,-3.15,-70.12,0
3779,3779,56.38,-7.68,-13.44,0
3780,3780,56.4,2.23,39.4,0
3781,3781,56.41,8.43,78.24,0
3782,3782,56.43,-6.46,97.88,0
3783,3783,56.44,-25.37,105.9,0
3784,3784,56.45,-28.01,110.82,0
3785,3785,56.47,-14.86,111.91,0
3786,3786,56.48,-1.65,109.67,0
3787,3787,56.49,-1.97,115.89,0
3788,3788,56.51,-13.27,131.89,0
3789,3789,56.52,-23.68,131.1,0
3790,3790,56.53,-24.09,104.73,0
3791,3791,56.54,-15.02,83.54,0
3792,3792,56.56,-7.38,73.32,0
3793,3793,56.57,-9.13,55.54,0
3794,3794,56.59,-13.11,42.4,0
3795,3795,56.6,-10.92,43.11,0
3796,3796,56.61,-2.72,34.08,0
3797,3797,56.63,11.59,13.7,0
3798,3798,56.64,22.93,11.51,0
3799,3799,56.65,14.23,26.7,0
3800,3800,56.67,-4.67,26.37,0
3801,3801,56.68,-9.42,10.94,0
3802,3802,56.69,-3.12,11.21,0
3803,3803,56.71,-1.55,26.83,0
3804,3804,56.72,-2.4,34.34,0
3805,3805,56.73,2.69,31.15,0
3806,3806,56.74,7.68,21.92,0
3807,3807,56.76,8.81,1.97,0
3808,3808,56.77,9.62,-17.84,0
3809,3809,56.78,5.25,-15.48,0
3810,3810,56.8,0.14,2.9,0
3811,3811,56.81,7.87,13.43,0
3812,3812,56.82,19.1,10.72,0
3813,3813,56.84,18.74,0.04,0
3814,3814,56.85,11.01,-11.84,0
3815,3815,56.86,2.03,-15.01,0
3816,3816,56.88,-9.53,-12.05,0
3817,3817,56.89,-19.31,-14.62,0
3818,3818,56.9,-16.59,-19.22,0
3819,3819,56.92,-3.93,-16.8,0
3820,3820,56.93,5.97,-14.14,0
3821,3821,56.94,13.12,-21.09,0
3822,3822,56.96,19.75,-31.88,0
3823,3823,56.97,14.48,-31.2,0
3824,3824,56.99,-1.24,-20.47,0
3825,3825,57.0,-4.45,-15.53,0
3826,3826,57.01,12.07,-18.26,0
3827,3827,57.03,24.41,-18.5,0
3828,3828,57.04,12.8,-14.4,0
3829,3829,57.05,-8.98,-15.25,0
3830,3830,57.06,-14.55,-22.42,0
3831,3831,57.08,-3.29,-20.52,0
3832,3832,57.09,3.63,-10.03,0
3833,3833,57.11,-1.43,-11.42,0
3834,3834,57.12,-5.88,-25.24,0
3835,3835,57.13,-1.76,-30.79,0
3836,3836,57.15,2.25,-21.52,0
3837,3837,57.16,-4.09,-12.06,0
3838,3838,57.17,-14.29,-13.88,0
3839,3839,57.19,-14.91,-18.81,0
3840,3840,57.2,-5.35,-15.56,0
3841,3841,57.21,3.2,-12.79,0
3842,3842,57.22,5.33,-19.8,0
3843,3843,57.24,2.1,-25.48,0
3844,3844,57.25,-8.69,-23.65,0
3845,3845,57.27,-20.1,-21.66,0
3846,3846,57.28,-16.12,-14.93,0
3847,3847,57.29,0.76,-0.03,0
3848,3848,57.31,11.15,3.61,0
3849,3849,57.32,7.55,-12.74,0
3850,3850,57.33,0.26,-28.49,0
3851,3851,57.35,-1.2,-27.57,0
3852,3852,57.36,0.69,-18.05,0
3853,3853,57.37,-1.86,-13.49,0
3854,3854,57.38,-9.76,-9.36,0
3855,3855,57.4,-12.77,2.64,0
3856,3856,57.41,-2.55,8.01,0
3857,3857,57.42,12.99,-4.73,0
3858,3858,57.44,15.85,-15.66,0
3859,3859,57.45,6.27,-10.55,0
3860,3860,57.46,6.73,-3.35,0
3861,3861,57.48,14.69,-0.15,0
3862,3862,57.49,4.58,2.23,0
3863,3863,57.5,-11.61,-2.46,0
3864,3864,57.52,-7.66,-8.43,0
3865,3865,57.53,2.34,-4.5,0
3866,3866,57.54,1.52,0.07,0
3867,3867,57.56,3.39,-1.21,0
3868,3868,57.57,13.19,1.53,0
3869,3869,57.58,12.49,10.26,0
3870,3870,57.6,-3.41,9.99,0
3871,3871,57.61,-16.34,-6.54,0
3872,3872,57.625,-12.75,-22.63,0
3873,3873,57.64,2.56,-27.32,0
3874,3874,57.65,12.58,-22.14,0
3875,3875,57.67,11.46,-4.47,0
3876,3876,57.68,9.33,12.23,0
3877,3877,57.69,1.81,10.21,0
3878,3878,57.71,-17.68,2.99,0
3879,3879,57.72,-25.0,6.62,0
3880,3880,57.73,-9.65,12.96,0
3881,3881,57.75,1.5,15.0,0
3882,3882,57.76,0.68,13.96,0
3883,3883,57.77,4.53,5.48,0
3884,3884,57.79,9.08,-5.96,0
3885,3885,57.8,-0.19,-3.47,0
3886,3886,57.81,-8.58,7.85,0
3887,3887,57.83,11.18,9.9,0
3888,3888,57.84,37.97,6.02,0
3889,3889,57.85,27.03,4.48,0
3890,3890,57.87,-6.16,5.77,0
3891,3891,57.88,-14.75,11.78,0
3892,3892,57.89,-2.37,16.2,0
3893,3893,57.9,1.58,13.23,0
3894,3894,57.92,-2.48,11.1,0
3895,3895,57.93,-5.62,12.74,0
3896,3896,57.95,-10.6,6.72,0
3897,3897,57.96,-9.22,-6.79,0
3898,3898,57.97,5.48,-7.88,0
3899,3899,57.99,15.88,7.58,0
3900,3900,58.0,8.84,15.43,0
3901,3901,58.01,0.68,6.32,0
3902,3902,58.02,6.43,0.36,0
3903,3903,58.04,11.8,6.46,0
3904,3904,58.05,1.34,13.91,0
3905,3905,58.06,-13.25,16.05,0
3906,3906,58.08,-21.12,9.74,0
3907,3907,58.09,-22.83,-2.55,0
3908,3908,58.1,-10.64,-6.32,0
3909,3909,58.12,7.83,3.08,0
3910,3910,58.13,11.33,11.66,0
3911,3911,58.14,2.77,11.99,0
3912,3912,58.16,-4.03,10.93,0
3913,3913,58.17,-2.86,8.39,0
3914,3914,58.18,2.31,-0.83,0
3915,3915,58.2,-2.5,-7.73,0
3916,3916,58.21,-13.6,-5.16,0
3917,3917,58.22,-7.74,-0.68,0
3918,3918,58.24,9.37,3.31,0
3919,3919,58.25,12.02,8.86,0
3920,3920,58.26,11.89,12.42,0
3921,3921,58.28,26.89,18.25,0
3922,3922,58.29,29.83,31.6,0
3923,3923,58.31,8.09,37.51,0
3924,3924,58.32,-5.99,11.84,0
3925,3925,58.33,-1.63,-50.82,0
3926,3926,58.35,3.65,-117.0,0
3927,3927,58.36,2.68,-145.02,0
3928,3928,58.37,-3.45,-141.72,0
3929,3929,58.38,-12.21,-133.71,0
3930,3930,58.4,-15.61,-119.54,0
3931,3931,58.41,-10.6,-103.89,0
3932,3932,58.43,-13.5,-107.25,0
3933,3933,58.44,-29.98,-115.53,0
3934,3934,58.45,-28.59,-102.08,0
3935,3935,58.47,0.55,-79.79,0
3936,3936,58.48,25.18,-63.84,0
3937,3937,58.49,34.1,-41.13,0
3938,3938,58.51,39.16,-9.23,0
3939,3939,58.52,37.87,18.53,0
3940,3940,58.53,27.4,43.61,0
3941,3941,58.54,18.73,70.8,0
3942,3942,58.56,18.32,90.87,0
3943,3943,58.57,19.43,100.16,0
3944,3944,58.59,15.6,109.84,0
3945,3945,58.6,8.23,128.65,0
3946,3946,58.61,1.94,149.91,0
3947,3947,58.63,-2.81,159.29,0
3948,3948,58.64,-9.22,157.24,0
3949,3949,58.65,-14.8,158.41,0
3950,3950,58.66,-17.55,162.82,0
3951,3951,58.68,-26.06,159.45,0
3952,3952,58.69,-39.14,149.27,0
3953,3953,58.7,-39.35,138.59,0
3954,3954,58.72,-25.35,130.12,0
3955,3955,58.73,-15.9,123.88,0
3956,3956,58.74,-24.46,112.08,0
3957,3957,58.76,-44.56,90.99,0
3958,3958,58.77,-48.52,72.05,0
3959,3959,58.78,-25.94,63.79,0
3960,3960,58.8,-5.66,57.92,0
3961,3961,58.81,-2.24,45.65,0
3962,3962,58.82,-1.92,34.33,0
3963,3963,58.84,-4.67,29.16,0
3964,3964,58.85,-11.96,22.14,0
3965,3965,58.86,-15.06,12.81,0
3966,3966,58.88,-22.1,6.69,0
3967,3967,58.89,-34.05,2.74,0
3968,3968,58.9,-26.75,1.23,0
3969,3969,58.92,-2.51,-0.65,0
3970,3970,58.93,9.43,-10.63,0
3971,3971,58.95,5.71,-21.62,0
3972,3972,58.96,-1.13,-21.98,0
3973,3973,58.97,-8.45,-20.94,0
3974,3974,58.99,-9.3,-29.17,0
3975,3975,59.0,-2.93,-39.25,0
3976,3976,59.01,-0.28,-45.61,0
3977,3977,59.03,5.92,-52.46,0
3978,3978,59.04,22.57,-57.02,0
3979,3979,59.05,27.99,-53.98,0
3980,3980,59.06,8.69,-49.54,0
3981,3981,59.08,-15.79,-48.07,0
3982,3982,59.09,-17.05,-45.51,0
3983,3983,59.11,6.76,-42.67,0
3984,3984,59.12,23.74,-44.44,0
3985,3985,59.13,15.96,-50.37,0
3986,3986,59.15,4.78,-54.8,0
3987,3987,59.16,6.98,-55.83,0
3988,3988,59.17,7.49,-58.78,0
3989,3989,59.19,-1.38,-59.85,0
3990,3990,59.2,-3.1,-51.04,0
3991,3991,59.21,5.11,-46.66,0
3992,3992,59.22,12.81,-54.69,0
3993,3993,59.24,21.41,-56.47,0
3994,3994,59.25,29.03,-51.67,0
3995,3995,59.27,27.67,-57.28,0
3996,3996,59.28,20.71,-62.2,0
3997,3997,59.29,15.48,-48.78,0
3998,3998,59.3,9.33,-32.78,0
3999,3999,59.32,0.98,-33.34,0
4000,4000,59.33,1.45,-42.72,0
4001,4001,59.34,10.39,-47.39,0
4002,4002,59.36,9.95,-44.99,0
4003,4003,59.37,-1.74,-39.18,0
4004,4004,59.38,-7.16,-36.02,0
4005,4005,59.4,-0.97,-37.38,0
4006,4006,59.41,4.06,-39.16,0
4007,4007,59.42,3.75,-36.36,0
4008,4008,59.44,6.0,-29.73,0
4009,4009,59.45,11.42,-27.65,0
4010,4010,59.46,10.34,-31.89,0
4011,4011,59.48,-0.09,-32.4,0
4012,4012,59.49,-7.65,-27.1,0
4013,4013,59.5,-2.33,-22.67,0
4014,4014,59.52,6.89,-21.74,0
4015,4015,59.53,8.31,-23.38,0
4016,4016,59.54,8.49,-21.77,0
4017,4017,59.56,13.84,-15.27,0
4018,4018,59.57,11.56,-11.6,0
4019,4019,59.59,-1.3,-11.2,0
4020,4020,59.6,-4.51,-11.76,0
4021,4021,59.61,8.27,-14.86,0
4022,4022,59.63,14.38,-12.77,0
4023,4023,59.64,2.79,-2.9,0
4024,4024,59.65,-2.43,3.06,0
4025,4025,59.67,7.34,0.47,0
4026,4026,59.68,5.6,-6.84,0
4027,4027,59.69,-3.59,-11.71,0
4028,4028,59.71,8.59,-8.37,0
4029,4029,59.72,23.64,-4.96,0
4030,4030,59.73,7.44,-5.65,0
4031,4031,59.75,-17.97,-1.59,0
4032,4032,59.76,-13.25,3.91,0
4033,4033,59.77,5.91,4.28,0
4034,4034,59.79,3.9,7.77,0
4035,4035,59.8,-8.54,15.03,0
4036,4036,59.81,-6.1,15.31,0
4037,4037,59.83,1.69,11.58,0
4038,4038,59.84,-2.1,12.73,0
4039,4039,59.85,-5.59,14.64,0
4040,4040,59.87,3.16,13.46,0
4041,4041,59.88,5.46,11.46,0
4042,4042,59.89,-8.05,7.43,0
4043,4043,59.9,-13.16,7.38,0
4044,4044,59.92,-0.78,18.57,0
4045,4045,59.93,10.32,24.58,0
4046,4046,59.94,10.53,9.89,0
4047,4047,59.96,3.87,-1.93,0
4048,4048,59.97,-1.56,14.38,0
4049,4049,59.98,-2.32,38.5,0
4050,4050,60.0,-6.71,38.38,0
4051,4051,60.01,-10.08,20.17,0
4052,4052,60.02,0.11,13.5,0
4053,4053,60.04,6.92,23.12,0
4054,4054,60.05,-3.49,24.02,0
4055,4055,60.06,-13.16,7.23,0
4056,4056,60.08,-17.24,-2.75,0
4057,4057,60.09,-26.0,11.59,0
4058,4058,60.1,-24.58,29.59,0
4059,4059,60.12,-1.31,27.73,0
4060,4060,60.13,19.41,20.07,0
4061,4061,60.14,18.2,25.37,0
4062,4062,60.16,6.28,32.83,0
4063,4063,60.17,-2.41,31.0,0
4064,4064,60.18,-5.23,26.24,0
4065,4065,60.2,-9.56,22.7,0
4066,4066,60.21,-17.76,27.11,0
4067,4067,60.22,-12.68,70.46,0
4068,4068,60.24,1.92,160.79,0
4069,4069,60.25,-0.71,249.76,0
4070,4070,60.27,-0.89,301.38,0
4071,4071,60.28,24.07,312.64,0
4072,4072,60.29,27.37,275.54,0
