,Timestamp,Data1,Data2,Label
0,6.0,6.69,3.97,0
1,6.01,3.69,1.63,0
2,6.03,-1.7,7.01,0
3,6.04,-3.35,6.5,0
4,6.05,6.87,-6.16,0
5,6.07,12.73,-9.68,0
6,6.08,3.05,3.34,0
7,6.09,-3.29,12.05,0
8,6.11,-3.23,5.93,0
9,6.12,-14.89,1.15,0
10,6.13,-26.69,4.73,0
11,6.15,-16.4,-0.15,0
12,6.16,0.41,-6.81,0
13,6.17,1.49,11.74,0
14,6.19,-2.49,29.57,0
15,6.2,4.58,2.34,0
16,6.21,20.19,-8.56,0
17,6.23,26.74,73.79,0
18,6.24,-0.16,89.71,0
19,6.25,-43.37,-178.7,0
20,6.27,-45.77,-449.29,0
21,6.28,-3.24,-248.8,0
22,6.29,32.53,119.01,0
23,6.31,42.39,131.46,0
24,6.32,30.97,145.14,0
25,6.33,-4.84,461.31,0
26,6.35,-35.99,573.91,0
27,6.36,-32.11,316.24,0
28,6.37,-14.42,139.36,0
29,6.39,-0.91,159.44,0
30,6.4,20.5,147.88,0
31,6.41,28.41,104.85,0
32,6.43,1.22,120.71,0
33,6.44,-17.99,82.72,0
34,6.45,-10.05,-23.76,0
35,6.47,-10.45,-40.61,0
36,6.48,-15.45,-13.66,0
37,6.49,0.66,-40.23,0
38,6.51,21.03,-6.17,0
39,6.52,21.37,84.49,0
40,6.53,6.47,58.75,0
41,6.55,-4.11,-58.65,0
42,6.56,3.83,-108.06,0
43,6.57,11.64,-63.68,0
44,6.59,-0.87,-39.23,0
45,6.6,-13.15,-111.94,0
46,6.61,-20.03,-185.0,0
47,6.63,-33.97,-146.55,0
48,6.64,-35.12,-81.66,0
49,6.65,-15.08,-118.4,0
50,6.67,-0.59,-197.05,0
51,6.68,-0.36,-198.54,0
52,6.69,0.74,-138.64,0
53,6.71,2.65,-95.14,0
54,6.72,4.09,-104.0,0
55,6.73,14.41,-146.41,0
56,6.75,16.14,-154.29,0
57,6.76,-2.11,-107.6,0
58,6.77,-6.15,-106.59,0
59,6.79,3.33,-169.89,0
60,6.8,-8.31,-168.57,0
61,6.81,-22.35,-114.48,0
62,6.82,-12.27,-107.1,0
63,6.84,2.59,-104.47,0
64,6.85,4.05,-102.18,0
65,6.86,0.89,-154.56,0
66,6.88,8.17,-178.69,0
67,6.89,23.28,-134.11,0
68,6.91,30.14,-106.26,0
69,6.92,28.89,-89.98,0
70,6.93,28.81,-61.57,0
71,6.95,20.03,-45.47,0
72,6.96,-2.64,-19.68,0
73,6.97,-19.37,-11.27,0
74,6.99,-19.01,-70.1,0
75,7.0,-13.16,-97.94,0
76,7.01,-8.25,-15.01,0
77,7.03,0.83,65.84,0
78,7.04,10.01,46.48,0
79,7.05,14.33,-35.6,0
80,7.07,16.21,-90.5,0
81,7.08,10.7,-61.71,0
82,7.09,-1.2,1.43,0
83,7.11,-6.86,39.19,0
84,7.12,-6.3,60.5,0
85,7.13,-5.12,58.74,0
86,7.15,1.53,23.12,0
87,7.16,7.91,-5.16,0
88,7.17,-1.38,-3.91,0
89,7.19,-14.98,8.99,0
90,7.2,-9.74,33.58,0
91,7.21,4.52,45.07,0
92,7.23,3.28,22.35,0
93,7.24,-7.35,24.88,0
94,7.25,-7.22,66.73,0
95,7.27,0.13,86.33,0
96,7.28,2.44,93.87,0
97,7.29,2.49,122.61,0
98,7.31,3.78,125.04,0
99,7.32,3.41,87.29,0
100,7.33,5.1,80.86,0
101,7.35,8.85,107.3,0
102,7.36,2.38,97.31,0
103,7.37,-7.2,71.73,0
104,7.39,0.67,81.95,0
105,7.4,7.8,95.76,0
106,7.41,-10.7,81.74,0
107,7.43,-23.28,73.46,0
108,7.44,-4.08,100.04,0
109,7.45,10.0,109.34,0
110,7.47,-2.81,62.14,0
111,7.48,-9.34,35.65,0
112,7.49,7.97,73.47,0
113,7.51,21.67,91.16,0
114,7.52,11.73,33.55,0
115,7.53,-5.9,-11.71,0
116,7.55,-7.64,51.61,0
117,7.56,6.54,142.59,0
118,7.57,15.08,140.59,0
119,7.59,5.28,74.57,0
120,7.6,-11.83,21.75,0
121,7.61,-13.52,20.95,0
122,7.63,7.05,63.29,0
123,7.64,17.04,101.89,0
124,7.65,-5.33,111.25,0
125,7.67,-22.76,77.34,0
126,7.68,-10.43,14.59,0
127,7.69,0.64,-8.32,0
128,7.71,-9.14,10.69,0
129,7.72,-16.91,6.52,0
130,7.73,-3.6,2.33,0
131,7.75,11.62,40.27,0
132,7.76,6.95,75.52,0
133,7.77,-0.47,77.91,0
134,7.79,4.28,57.48,0
135,7.8,-2.22,36.48,0
136,7.81,-21.7,53.37,0
137,7.83,-14.61,83.69,0
138,7.84,10.19,58.86,0
139,7.85,6.53,-3.22,0
140,7.87,-7.91,-36.6,0
141,7.88,3.3,-25.87,0
142,7.89,18.13,7.81,0
143,7.91,10.16,27.87,0
144,7.92,-1.96,19.89,0
145,7.93,0.89,13.84,0
146,7.95,5.74,16.23,0
147,7.96,2.88,-7.51,0
148,7.97,-0.41,-58.85,0
149,7.99,-3.31,-71.3,0
150,8.0,-2.68,-12.61,0
151,8.01,11.09,23.95,0
152,8.03,29.67,-19.02,0
153,8.04,29.95,-41.21,0
154,8.05,4.63,-8.08,0
155,8.07,-23.08,-5.2,0
156,8.08,-25.84,-16.71,0
157,8.09,-7.9,13.25,0
158,8.1,3.0,30.64,0
159,8.12,0.81,-17.68,0
160,8.13,4.25,-75.01,0
161,8.15,11.39,-67.93,0
162,8.16,2.41,-28.35,0
163,8.17,-16.67,-21.65,0
164,8.19,-21.32,-26.47,0
165,8.2,-7.83,-8.71,0
166,8.21,13.27,-19.33,0
167,8.23,31.63,-86.65,0
168,8.24,30.07,-123.54,0
169,8.25,8.49,-84.21,0
170,8.27,-8.81,-62.62,0
171,8.28,-12.75,-132.9,0
172,8.29,-15.86,-232.66,0
173,8.31,-19.19,-262.3,0
174,8.32,-14.04,-218.02,0
175,8.33,-5.59,-168.15,0
176,8.35,-0.02,-139.14,0
177,8.36,5.7,-98.3,0
178,8.37,5.08,-27.49,0
179,8.39,-5.31,45.11,0
180,8.4,-9.57,86.5,0
181,8.41,-0.05,95.21,0
182,8.43,9.43,83.68,0
183,8.44,6.54,62.39,0
184,8.45,-2.97,50.52,0
185,8.47,-8.3,57.95,0
186,8.48,-7.45,65.62,0
187,8.49,-1.4,53.66,0
188,8.51,7.28,31.09,0
189,8.52,11.69,19.42,0
190,8.53,8.93,19.75,0
191,8.55,4.5,20.1,0
192,8.56,2.57,25.04,0
193,8.57,-0.87,37.16,0
194,8.59,-4.14,40.99,0
195,8.6,1.29,38.62,0
196,8.61,5.43,42.8,0
197,8.63,-2.5,42.12,0
198,8.64,-5.44,33.45,0
199,8.65,1.35,33.16,0
200,8.67,-0.7,34.39,0
201,8.68,-11.65,24.64,0
202,8.69,-16.13,19.77,0
203,8.71,-6.09,30.35,0
204,8.72,8.21,38.82,0
205,8.73,5.09,33.3,0
206,8.75,-14.25,26.62,0
207,8.76,-25.29,27.18,0
208,8.77,-18.82,21.44,0
209,8.78,-2.96,7.36,0
210,8.8,9.18,6.88,0
211,8.81,3.8,20.73,0
212,8.82,-9.11,22.14,0
213,8.84,-12.05,10.34,0
214,8.85,-11.93,6.99,0
215,8.864999999999998,-11.17,6.94,0
216,8.88,-0.3,-2.32,0
217,8.89,12.37,-8.59,0
218,8.91,15.32,-5.22,0
219,8.92,10.03,-2.99,0
220,8.93,1.56,-2.61,0
221,8.95,-3.71,0.09,0
222,8.96,-0.37,-1.52,0
223,8.97,7.18,-10.72,0
224,8.99,7.08,-20.11,0
225,9.0,2.94,-24.31,0
226,9.01,9.41,-23.21,0
227,9.03,15.87,-18.47,0
228,9.04,6.06,-17.35,0
229,9.05,-5.36,-24.44,0
230,9.07,0.89,-32.46,0
231,9.08,13.07,-36.48,0
232,9.09,9.98,-38.8,0
233,9.11,-1.78,-39.56,0
234,9.12,-2.55,-39.05,0
235,9.13,0.17,-40.08,0
236,9.15,-8.94,-42.79,0
237,9.16,-16.78,-41.73,0
238,9.17,-9.95,-36.01,0
239,9.19,-0.72,-34.14,0
240,9.2,0.17,-41.76,0
241,9.21,-4.82,-47.18,0
242,9.23,-6.36,-35.14,0
243,9.24,1.38,-17.42,0
244,9.25,7.69,-18.76,0
245,9.27,4.98,-32.79,0
246,9.28,1.84,-32.04,0
247,9.29,2.3,-18.96,0
248,9.31,0.17,-16.12,0
249,9.32,-3.48,-16.47,0
250,9.33,-0.14,-5.49,0
251,9.35,5.57,2.16,0
252,9.36,3.65,-8.62,0
253,9.37,4.2,-26.49,0
254,9.39,13.12,-26.47,0
255,9.4,11.47,-3.6,0
256,9.41,-4.15,11.72,0
257,9.43,-11.1,0.29,0
258,9.44,-4.35,-17.76,0
259,9.45,-2.36,-21.55,0
260,9.47,-6.86,-11.33,0
261,9.48,-2.84,1.28,0
262,9.49,6.63,5.13,0
263,9.51,9.76,4.55,0
264,9.52,13.56,7.12,0
265,9.53,20.72,6.47,0
266,9.55,21.75,0.75,0
267,9.56,15.28,1.71,0
268,9.57,0.32,11.21,0
269,9.59,-16.19,13.06,0
270,9.6,-21.19,4.48,0
271,9.61,-16.78,0.34,0
272,9.63,-3.6,-0.56,0
273,9.64,18.06,-4.97,0
274,9.65,24.86,-0.48,0
275,9.67,1.75,16.81,0
276,9.68,-26.83,25.75,0
277,9.69,-28.37,12.77,0
278,9.71,-4.5,-8.88,0
279,9.72,15.46,-17.53,0
280,9.73,13.84,-3.3,0
281,9.75,2.97,17.42,0
282,9.76,1.67,15.84,0
283,9.77,5.2,-3.07,0
284,9.79,1.6,-8.55,0
285,9.8,-3.85,-1.4,0
286,9.81,-4.57,-0.22,0
287,9.83,0.99,-0.49,0
288,9.84,9.07,3.88,0
289,9.85,7.57,8.65,0
290,9.87,-2.93,15.32,0
291,9.88,-10.04,20.01,0
292,9.89,-12.54,15.01,0
293,9.91,-13.5,8.31,0
294,9.92,-9.78,7.53,0
295,9.93,-1.82,6.35,0
296,9.95,5.15,4.0,0
297,9.96,6.84,7.34,0
298,9.97,1.55,13.03,0
299,9.99,-8.94,11.42,0
300,10.0,-15.04,2.64,0
301,10.01,-7.12,-1.27,0
302,10.02,5.36,8.78,0
303,10.04,3.76,19.38,0
304,10.05,-7.3,10.02,0
305,10.06,-7.2,-6.91,0
306,10.08,2.83,-4.24,0
307,10.09,6.6,8.22,0
308,10.1,6.86,5.56,0
309,10.12,10.43,-1.78,0
310,10.13,8.02,9.22,0
311,10.15,-1.87,23.16,0
312,10.16,-5.32,13.76,0
313,10.17,2.13,0.76,0
314,10.19,9.88,12.99,0
315,10.2,10.62,24.04,0
316,10.21,4.32,-14.23,0
317,10.23,-7.71,-87.81,0
318,10.24,-13.16,-133.22,0
319,10.25,2.14,-134.05,0
320,10.27,25.19,-127.94,0
321,10.28,28.45,-131.78,0
322,10.29,10.69,-132.99,0
323,10.31,-2.45,-120.95,0
324,10.32,-0.83,-97.5,0
325,10.33,1.82,-79.83,0
326,10.35,0.24,-72.48,0
327,10.36,-2.8,-50.62,0
328,10.37,-10.61,-7.52,0
329,10.39,-19.67,32.79,0
330,10.4,-19.19,59.83,0
331,10.41,-9.76,83.8,0
332,10.43,-3.1,112.02,0
333,10.44,-7.05,141.39,0
334,10.45,-15.95,164.89,0
335,10.47,-13.93,176.11,0
336,10.48,2.74,173.3,0
337,10.49,11.27,167.03,0
338,10.51,-2.39,167.88,0
339,10.52,-14.12,168.62,0
340,10.53,-4.54,157.5,0
341,10.55,9.29,138.49,0
342,10.56,7.5,122.07,0
343,10.57,-1.63,107.64,0
344,10.59,-1.38,90.09,0
345,10.6,6.86,74.93,0
346,10.61,10.84,66.91,0
347,10.63,8.36,55.45,0
348,10.64,11.95,31.04,0
349,10.65,25.65,5.15,0
350,10.67,29.17,-6.33,0
351,10.68,10.35,-1.7,0
352,10.69,-10.73,12.38,0
353,10.71,-14.96,19.93,0
354,10.72,-12.75,9.91,0
355,10.73,-18.89,-3.43,0
356,10.75,-23.48,-10.07,0
357,10.76,-16.69,-18.28,0
358,10.77,-10.21,-23.76,0
359,10.78,-10.5,-19.33,0
360,10.8,-13.51,-13.74,0
361,10.81,-19.82,-10.78,0
362,10.83,-24.71,-8.27,0
363,10.84,-14.75,-12.77,0
364,10.85,8.31,-26.83,0
365,10.87,19.24,-40.43,0
366,10.88,7.08,-43.58,0
367,10.89,-6.78,-35.32,0
368,10.91,-7.52,-25.02,0
369,10.92,-2.66,-23.82,0
370,10.93,1.78,-30.59,0
371,10.95,5.51,-36.62,0
372,10.96,7.49,-39.07,0
373,10.97,9.87,-42.31,0
374,10.99,11.97,-47.96,0
375,11.0,6.55,-46.99,0
376,11.01,-1.09,-35.92,0
377,11.03,0.66,-28.85,0
378,11.04,6.3,-32.87,0
379,11.05,6.62,-37.05,0
380,11.07,3.93,-35.53,0
381,11.08,-0.38,-33.25,0
382,11.09,-6.93,-32.31,0
383,11.11,-8.4,-31.79,0
384,11.12,0.64,-33.78,0
385,11.13,10.27,-40.28,0
386,11.15,7.56,-48.1,0
387,11.16,-4.15,-51.51,0
388,11.17,-12.02,-46.23,0
389,11.19,-8.16,-33.79,0
390,11.2,6.25,-22.14,0
391,11.21,16.53,-19.56,0
392,11.23,11.33,-25.79,0
393,11.24,3.74,-31.83,0
394,11.25,6.53,-33.19,0
395,11.27,7.29,-33.9,0
396,11.28,-1.23,-34.75,0
397,11.29,-2.31,-30.96,0
398,11.31,8.56,-25.96,0
399,11.32,12.77,-22.39,0
400,11.33,5.85,-13.32,0
401,11.35,2.52,-8.05,0
402,11.36,5.87,-19.1,0
403,11.37,7.37,-28.04,0
404,11.39,3.3,-21.3,0
405,11.4,-2.8,-15.12,0
406,11.41,-1.75,-14.99,0
407,11.43,7.31,-11.52,0
408,11.44,10.39,-9.63,0
409,11.45,5.89,-14.57,0
410,11.47,4.27,-18.13,0
411,11.48,2.85,-15.29,0
412,11.49,1.34,-10.67,0
413,11.51,8.18,-9.59,0
414,11.52,11.18,-11.59,0
415,11.53,-4.81,-13.31,0
416,11.55,-20.24,-12.45,0
417,11.56,-13.85,-3.39,0
418,11.57,2.31,9.38,0
419,11.59,9.66,7.21,0
420,11.6,4.39,-3.15,0
421,11.61,-6.67,4.01,0
422,11.63,-11.12,18.36,0
423,11.64,-5.33,16.34,0
424,11.65,4.55,9.88,0
425,11.67,13.99,12.4,0
426,11.68,15.84,10.86,0
427,11.69,2.63,2.6,0
428,11.71,-16.83,-0.43,0
429,11.72,-23.42,-1.64,0
430,11.73,-8.48,-6.81,0
431,11.75,13.64,-8.32,0
432,11.76,19.03,-5.18,0
433,11.77,7.84,-0.44,0
434,11.79,-1.39,10.53,0
435,11.8,-4.31,17.79,0
436,11.81,-7.19,7.78,0
437,11.83,-6.19,-5.77,0
438,11.84,2.67,-4.68,0
439,11.85,2.97,10.34,0
440,11.87,-14.0,27.75,0
441,11.88,-20.61,34.68,0
442,11.89,-3.76,28.34,0
443,11.91,5.36,19.79,0
444,11.92,-6.22,18.65,0
445,11.93,-12.65,19.84,0
446,11.94,-3.7,15.31,0
447,11.96,0.89,9.01,0
448,11.97,-10.92,8.12,0
449,11.98,-23.1,10.77,0
450,12.0,-17.11,10.54,0
451,12.01,-3.37,10.57,0
452,12.02,2.36,17.18,0
453,12.04,2.63,24.08,0
454,12.05,2.64,23.01,0
455,12.06,7.93,18.84,0
456,12.08,20.56,17.16,0
457,12.09,27.9,19.67,0
458,12.1,21.97,46.22,0
459,12.12,16.87,121.29,0
460,12.13,24.89,223.58,0
461,12.15,30.44,297.71,0
462,12.16,12.14,313.16,0
463,12.17,-24.37,279.76,0
464,12.19,-58.34,214.7,0
465,12.2,-75.2,125.27,0
466,12.21,-69.82,29.8,0
467,12.23,-43.61,-44.86,0
468,12.24,-11.34,-97.63,0
469,12.25,3.83,-148.24,0
470,12.27,2.44,-193.51,0
471,12.28,2.71,-208.73,0
472,12.29,6.96,-195.47,0
473,12.31,9.86,-176.97,0
474,12.32,13.21,-159.25,0
475,12.33,17.87,-140.02,0
476,12.35,21.17,-120.32,0
477,12.36,21.62,-97.98,0
478,12.37,19.51,-80.94,0
479,12.39,11.06,-79.56,0
480,12.4,-3.02,-81.08,0
481,12.41,-11.24,-73.07,0
482,12.43,-1.61,-62.43,0
483,12.44,26.15,-55.04,0
484,12.45,44.53,-47.56,0
485,12.47,29.32,-37.95,0
486,12.48,8.96,-30.84,0
487,12.49,9.15,-31.15,0
488,12.51,4.79,-26.11,0
489,12.52,-6.57,-15.59,0
490,12.53,4.18,-24.08,0
491,12.55,18.99,-40.43,0
492,12.56,8.92,-38.55,0
493,12.57,-2.49,-26.53,0
494,12.59,4.89,-9.84,0
495,12.6,12.26,9.99,0
496,12.61,7.35,19.97,0
497,12.63,-2.93,20.76,0
498,12.64,-9.25,18.37,0
499,12.65,-8.34,12.87,0
500,12.67,-5.1,10.13,0
501,12.68,-3.91,10.28,0
502,12.69,-3.63,8.37,0
503,12.71,-4.95,6.0,0
504,12.72,-9.28,7.58,0
505,12.73,-11.34,16.43,0
506,12.75,-9.34,25.64,0
507,12.76,-9.36,28.8,0
508,12.77,-10.01,35.07,0
509,12.79,-5.7,43.08,0
510,12.8,-0.72,37.84,0
511,12.81,-3.18,28.6,0
512,12.83,-10.96,33.71,0
513,12.84,-14.51,44.3,0
514,12.85,-10.81,44.73,0
515,12.87,-3.82,38.92,0
516,12.88,2.83,32.34,0
517,12.89,6.68,24.97,0
518,12.91,5.34,25.57,0
519,12.92,-1.82,37.91,0
520,12.93,-5.12,45.96,0
521,12.95,3.52,35.25,0
522,12.96,10.46,16.91,0
523,12.97,3.64,17.9,0
524,12.99,-4.61,38.93,0
525,13.0,-6.09,45.87,0
526,13.01,-8.46,27.67,0
527,13.03,-8.36,16.08,0
528,13.04,0.21,23.81,0
529,13.05,2.77,28.86,0
530,13.07,-7.37,25.15,0
531,13.08,-12.91,20.81,0
532,13.09,-7.04,12.2,0
533,13.11,-0.62,4.54,0
534,13.12,3.08,11.71,0
535,13.13,5.25,28.77,0
536,13.15,3.84,35.5,0
537,13.16,2.07,19.83,0
538,13.17,5.06,-3.01,0
539,13.19,10.58,-1.74,0
540,13.2,9.72,21.65,0
541,13.21,1.62,31.56,0
542,13.23,0.71,17.43,0
543,13.24,10.91,6.23,0
544,13.25,16.6,15.99,0
545,13.27,7.55,25.74,0
546,13.28,-9.26,12.89,0
547,13.29,-17.76,-5.37,0
548,13.31,-11.76,-2.96,0
549,13.32,-3.35,14.72,0
550,13.33,0.24,24.08,0
551,13.35,1.88,13.37,0
552,13.36,-2.88,-2.55,0
553,13.37,-12.23,-0.4,0
554,13.39,-12.63,12.18,0
555,13.4,-6.21,6.29,0
556,13.41,-3.19,-18.44,0
557,13.43,0.09,-30.59,0
558,13.44,5.13,-15.22,0
559,13.45,3.27,2.62,0
560,13.47,-3.61,1.96,0
561,13.48,-3.74,0.85,0
562,13.49,-0.17,9.49,0
563,13.51,-2.71,3.57,0
564,13.52,-4.63,-20.99,0
565,13.53,-0.02,-34.32,0
566,13.55,3.61,-27.15,0
567,13.56,4.43,-19.59,0
568,13.57,4.46,-17.89,0
569,13.59,2.05,-10.33,0
570,13.6,-0.94,1.11,0
571,13.61,0.28,5.26,0
572,13.63,7.03,-0.85,0
573,13.64,12.72,-16.21,0
574,13.65,8.58,-26.26,0
575,13.67,2.81,-14.83,0
576,13.68,7.2,-2.48,0
577,13.69,10.64,-9.62,0
578,13.71,4.33,-12.09,0
579,13.72,0.42,4.88,0
580,13.73,1.7,13.48,0
581,13.75,0.65,1.72,0
582,13.76,-0.37,-6.23,0
583,13.77,-1.26,-4.05,0
584,13.79,-6.5,-7.62,0
585,13.8,-8.62,-13.2,0
586,13.81,-2.86,-13.08,0
587,13.83,1.64,-11.79,0
588,13.84,3.87,-9.06,0
589,13.85,8.97,-11.28,0
590,13.86,10.14,-23.72,0
591,13.88,5.23,-24.69,0
592,13.89,4.15,-8.14,0
593,13.9,8.16,-2.53,0
594,13.92,6.46,-12.59,0
595,13.93,-2.91,-14.73,0
596,13.94,-6.17,-6.18,0
597,13.96,1.48,-4.89,0
598,13.97,5.59,-17.33,0
599,13.98,-1.31,-28.15,0
600,14.0,-9.25,-21.07,0
601,14.01,-13.06,-6.99,0
602,14.02,-17.72,-5.86,0
603,14.04,-19.78,-7.56,0
604,14.05,-11.42,3.47,0
605,14.07,0.14,7.91,0
606,14.08,2.34,-13.02,0
607,14.09,-0.25,-35.74,0
608,14.11,0.74,-31.22,0
609,14.12,-1.67,-11.51,0
610,14.13,-8.48,-6.16,0
611,14.15,-6.62,-14.11,0
612,14.16,1.47,-9.08,0
613,14.17,1.87,9.75,0
614,14.19,-3.15,3.63,0
615,14.2,-4.13,-37.03,0
616,14.21,-4.8,-47.48,0
617,14.23,-10.97,15.04,0
618,14.24,-11.62,104.05,0
619,14.25,-1.66,155.64,0
620,14.27,2.36,150.5,0
621,14.28,5.55,118.31,0
622,14.29,24.81,103.03,0
623,14.31,36.65,110.31,0
624,14.32,23.51,102.23,0
625,14.33,11.48,72.14,0
626,14.35,9.29,53.89,0
627,14.36,1.01,35.63,0
628,14.37,-9.31,-7.94,0
629,14.39,-10.76,-58.47,0
630,14.4,-0.69,-83.11,0
631,14.41,14.37,-61.43,0
632,14.43,10.96,-13.41,0
633,14.44,-10.14,5.48,0
634,14.45,-12.35,-47.38,0
635,14.47,2.65,-119.97,0
636,14.48,5.62,-112.22,0
637,14.49,6.8,-58.89,0
638,14.51,12.12,-54.25,0
639,14.52,4.67,-97.21,0
640,14.53,-3.0,-137.63,0
641,14.55,5.63,-117.32,0
642,14.56,11.23,-57.96,0
643,14.57,-0.6,-41.31,0
644,14.59,-6.48,-50.88,0
645,14.6,10.52,-46.58,0
646,14.61,22.29,-49.66,0
647,14.63,5.17,-68.16,0
648,14.64,-19.82,-82.04,0
649,14.65,-28.25,-75.66,0
650,14.67,-24.25,-58.43,0
651,14.68,-19.96,-49.07,0
652,14.69,-19.14,-25.23,0
653,14.71,-15.96,15.55,0
654,14.72,-6.3,4.31,0
655,14.73,0.87,-36.53,0
656,14.75,-1.47,-5.44,0
657,14.76,-8.99,66.06,0
658,14.77,-13.91,71.78,0
659,14.79,-4.66,-5.33,0
660,14.8,13.18,-71.91,0
661,14.81,16.99,-37.01,0
662,14.83,10.81,41.07,0
663,14.84,8.96,43.65,0
664,14.85,0.96,-17.05,0
665,14.87,-13.92,-33.2,0
666,14.88,-11.51,10.49,0
667,14.89,10.63,13.81,0
668,14.91,22.89,-26.83,0
669,14.92,15.13,-21.12,0
670,14.93,7.65,6.99,0
671,14.95,7.98,3.84,0
672,14.96,9.03,1.19,0
673,14.97,9.54,17.91,0
674,14.99,6.45,39.26,0
675,15.0,0.79,61.71,0
676,15.01,-3.32,69.48,0
677,15.03,-10.83,41.9,0
678,15.04,-18.79,16.05,0
679,15.05,-15.71,28.16,0
680,15.07,-3.76,25.29,0
681,15.08,6.89,-16.55,0
682,15.09,6.82,-20.47,0
683,15.11,-4.22,26.98,0
684,15.12,-13.08,49.64,0
685,15.13,-12.48,48.22,0
686,15.15,-3.29,63.5,0
687,15.16,7.85,66.85,0
688,15.17,9.01,28.74,0
689,15.19,2.64,-29.31,0
690,15.2,0.75,-50.91,0
691,15.21,2.11,-10.51,0
692,15.23,-3.84,24.77,0
693,15.24,-15.4,9.7,0
694,15.25,-12.15,-1.18,0
695,15.27,8.4,33.35,0
696,15.28,14.9,68.97,0
697,15.29,-0.46,52.42,0
698,15.31,-4.77,8.31,0
699,15.32,8.71,-3.02,0
700,15.33,13.82,22.22,0
701,15.35,9.0,42.77,0
702,15.36,7.5,38.24,0
703,15.37,0.35,19.57,0
704,15.39,-13.08,9.71,0
705,15.4,-11.65,27.64,0
706,15.41,4.99,46.22,0
707,15.43,15.04,16.06,0
708,15.44,8.01,-25.24,0
709,15.45,-2.83,-17.01,0
710,15.47,2.96,-11.31,0
711,15.48,18.13,-32.58,0
712,15.49,17.99,-11.7,0
713,15.51,6.75,22.24,0
714,15.52,-0.64,6.51,0
715,15.53,-9.38,-4.5,0
716,15.55,-13.95,10.93,0
717,15.56,-1.61,-5.53,0
718,15.57,6.23,-39.67,0
719,15.59,-8.06,-27.79,0
720,15.6,-18.14,19.49,0
721,15.61,-9.01,35.45,0
722,15.63,-2.33,7.01,0
723,15.64,-3.73,-15.82,0
724,15.65,-2.57,-8.42,0
725,15.67,-2.26,7.11,0
726,15.68,-3.18,8.22,0
727,15.69,-2.65,9.65,0
728,15.71,-6.08,26.15,0
729,15.72,-7.01,17.28,0
730,15.73,0.82,-25.16,0
731,15.75,4.81,-26.54,0
732,15.76,2.36,24.46,0
733,15.77,4.04,49.57,0
734,15.78,4.38,31.16,0
735,15.8,-2.36,20.36,0
736,15.81,-6.76,39.2,0
737,15.82,-6.14,62.79,0
738,15.84,-7.53,46.09,0
739,15.85,-10.37,-11.21,0
740,15.86,-8.88,-14.46,0
741,15.88,-6.73,54.86,0
742,15.89,-5.85,61.61,0
743,15.9,2.19,-5.24,0
744,15.92,10.14,-17.9,0
745,15.93,2.14,15.83,0
746,15.94,-12.05,22.81,0
747,15.96,-17.88,22.97,0
748,15.97,-16.63,30.4,0
749,15.98,-3.85,14.21,0
750,16.0,13.73,-23.2,0
751,16.01,13.77,-42.62,0
752,16.03,1.7,-18.61,0
753,16.04,-3.66,16.64,0
754,16.05,-3.6,23.05,0
755,16.07,-1.88,7.79,0
756,16.08,2.32,-18.98,0
757,16.09,6.2,-44.75,0
758,16.11,6.76,-52.18,0
759,16.12,5.98,-41.07,0
760,16.13,6.81,-14.51,0
761,16.15,5.98,2.83,0
762,16.16,2.91,-10.12,0
763,16.17,7.03,-28.29,0
764,16.19,17.1,-55.19,0
765,16.2,14.39,-115.23,0
766,16.21,-2.66,-151.32,0
767,16.23,-9.69,-110.89,0
768,16.24,-2.36,-43.06,0
769,16.25,-3.56,-13.21,0
770,16.27,-9.16,-37.35,0
771,16.28,4.71,-95.24,0
772,16.29,21.59,-145.69,0
773,16.31,13.97,-152.93,0
774,16.32,-3.4,-118.78,0
775,16.33,-9.15,-76.15,0
776,16.35,-10.89,-44.76,0
777,16.36,-13.8,-17.69,0
778,16.37,-11.3,12.7,0
779,16.39,-6.13,41.89,0
780,16.4,2.02,62.99,0
781,16.41,14.04,75.23,0
782,16.42,15.42,78.34,0
783,16.44,4.57,71.29,0
784,16.45,-4.89,60.89,0
785,16.46,-11.12,54.92,0
786,16.48,-10.88,57.66,0
787,16.49,1.24,67.4,0
788,16.5,9.33,70.13,0
789,16.52,2.59,61.41,0
790,16.53,-0.72,55.01,0
791,16.54,9.35,57.04,0
792,16.56,16.53,55.36,0
793,16.57,13.21,44.53,0
794,16.58,11.32,41.75,0
795,16.6,13.68,49.67,0
796,16.61,12.91,46.92,0
797,16.62,11.96,40.4,0
798,16.64,8.64,49.64,0
799,16.65,-4.5,55.97,0
800,16.67,-18.1,40.85,0
801,16.68,-20.75,25.1,0
802,16.69,-15.07,29.33,0
803,16.71,-12.69,40.87,0
804,16.72,-18.02,39.92,0
805,16.73,-17.75,29.21,0
806,16.75,-7.2,21.24,0
807,16.76,0.28,15.79,0
808,16.77,4.47,8.98,0
809,16.79,15.22,10.87,0
810,16.8,25.64,25.13,0
811,16.81,17.91,30.25,0
812,16.83,-4.36,16.16,0
813,16.84,-11.6,1.98,0
814,16.85,2.4,-0.64,0
815,16.87,5.76,3.84,0
816,16.88,-10.6,9.82,0
817,16.89,-15.65,8.1,0
818,16.91,-2.58,-2.69,0
819,16.92,2.77,-7.49,0
820,16.93,-1.94,-2.15,0
821,16.95,-3.48,-4.57,0
822,16.96,-1.53,-18.3,0
823,16.97,1.99,-26.19,0
824,16.99,2.31,-26.05,0
825,17.0,-4.14,-23.93,0
826,17.01,-7.91,-18.35,0
827,17.03,-3.34,-15.93,0
828,17.04,3.66,-19.76,0
829,17.05,7.32,-23.55,0
830,17.06,3.04,-27.18,0
831,17.08,-5.53,-29.97,0
832,17.09,-4.57,-29.54,0
833,17.1,1.97,-28.05,0
834,17.12,-2.49,-23.72,0
835,17.13,-8.42,-17.18,0
836,17.14,-1.29,-19.29,0
837,17.16,3.23,-27.67,0
838,17.17,-5.28,-23.22,0
839,17.18,-8.64,-10.1,0
840,17.2,2.52,-11.42,0
841,17.21,9.68,-21.12,0
842,17.22,0.48,-19.04,0
843,17.24,-6.85,-11.78,0
844,17.25,-2.16,-13.31,0
845,17.26,0.77,-18.1,0
846,17.28,-0.99,-14.88,0
847,17.29,1.06,-11.66,0
848,17.3,1.92,-22.58,0
849,17.32,-6.04,-33.38,0
850,17.33,-12.8,-24.6,0
851,17.35,-7.71,-9.98,0
852,17.36,4.06,-10.43,0
853,17.37,12.23,-21.59,0
854,17.39,11.23,-25.16,0
855,17.4,4.59,-17.54,0
856,17.41,-1.68,-14.92,0
857,17.43,-5.09,-21.9,0
858,17.44,-4.86,-21.68,0
859,17.45,-1.16,-10.15,0
860,17.47,5.06,-4.52,0
861,17.48,12.26,-9.82,0
862,17.49,14.54,-12.01,0
863,17.51,8.62,-8.48,0
864,17.52,2.66,-8.66,0
865,17.53,1.4,-12.69,0
866,17.55,2.71,-14.48,0
867,17.56,7.5,-13.33,0
868,17.57,9.2,-15.61,0
869,17.59,1.11,-20.72,0
870,17.6,-5.1,-17.35,0
871,17.61,-3.75,-5.82,0
872,17.63,-4.08,0.91,0
873,17.64,-4.52,-0.69,0
874,17.65,-3.38,-3.8,0
875,17.67,-10.05,-5.53,0
876,17.68,-13.24,-8.17,0
877,17.69,4.06,-10.16,0
878,17.7,20.57,-7.58,0
879,17.72,13.38,-5.56,0
880,17.73,-1.86,-9.89,0
881,17.75,-3.06,-10.65,0
882,17.76,4.84,-2.72,0
883,17.77,5.2,3.5,0
884,17.78,-1.64,7.41,0
885,17.8,-4.64,10.97,0
886,17.81,0.36,4.02,0
887,17.82,4.27,-8.45,0
888,17.84,-3.88,-6.7,0
889,17.85,-11.21,5.55,0
890,17.86,-2.4,9.95,0
891,17.88,8.53,7.91,0
892,17.89,7.85,9.14,0
893,17.9,6.44,8.48,0
894,17.92,11.74,-1.25,0
895,17.93,14.55,-8.93,0
896,17.94,9.96,-5.08,0
897,17.96,4.75,-4.14,0
898,17.97,4.72,-13.95,0
899,17.99,4.05,-13.31,0
900,18.0,-4.81,3.54,0
901,18.01,-12.65,6.06,0
902,18.03,-10.41,-11.59,0
903,18.04,-2.04,-14.45,0
904,18.05,4.21,5.02,0
905,18.07,-0.75,16.56,0
906,18.08,-11.39,5.68,0
907,18.09,-12.09,-11.5,0
908,18.11,-4.91,-16.3,0
909,18.12,-3.12,-8.96,0
910,18.13,-9.08,3.69,0
911,18.15,-13.77,19.12,0
912,18.16,-15.2,29.6,0
913,18.17,-17.75,26.07,0
914,18.19,-16.31,14.57,0
915,18.2,-7.48,6.02,0
916,18.21,1.49,1.77,0
917,18.23,9.94,1.24,0
918,18.24,19.02,-6.99,0
919,18.25,17.1,-42.74,0
920,18.27,-3.51,-91.59,0
921,18.28,-25.92,-117.09,0
922,18.29,-23.22,-122.85,0
923,18.31,2.68,-136.74,0
924,18.32,21.41,-150.87,0
925,18.33,17.84,-141.71,0
926,18.34,2.14,-118.38,0
927,18.36,-8.28,-99.4,0
928,18.37,1.38,-81.3,0
929,18.38,20.16,-56.22,0
930,18.4,20.23,-27.33,0
931,18.41,4.13,4.89,0
932,18.42,-3.85,42.07,0
933,18.44,2.95,71.99,0
934,18.45,14.82,84.24,0
935,18.46,15.89,93.07,0
936,18.48,-2.54,116.24,0
937,18.49,-25.08,147.24,0
938,18.5,-30.67,168.79,0
939,18.52,-21.6,176.52,0
940,18.53,-11.71,177.91,0
941,18.54,-4.47,179.76,0
942,18.56,1.96,175.73,0
943,18.57,3.59,163.62,0
944,18.58,-1.14,155.55,0
945,18.6,-3.17,147.55,0
946,18.61,0.06,128.37,0
947,18.63,-3.06,105.7,0
948,18.64,-9.7,89.89,0
949,18.65,-8.62,84.09,0
950,18.67,-7.69,86.05,0
951,18.68,-7.27,83.28,0
952,18.69,4.56,67.35,0
953,18.71,14.64,47.65,0
954,18.72,7.38,34.75,0
955,18.73,-2.7,27.99,0
956,18.75,-2.05,26.14,0
957,18.76,-0.55,26.83,0
958,18.77,-6.72,21.24,0
959,18.79,-10.9,7.84,0
960,18.8,-3.41,-6.71,0
961,18.81,9.01,-16.11,0
962,18.83,13.67,-13.82,0
963,18.84,11.15,-9.92,0
964,18.85,9.35,-23.75,0
965,18.87,6.94,-41.28,0
966,18.88,2.71,-38.58,0
967,18.89,3.2,-28.66,0
968,18.91,7.29,-30.04,0
969,18.92,6.25,-32.7,0
970,18.93,-3.56,-27.76,0
971,18.95,-16.03,-27.26,0
972,18.96,-22.39,-34.38,0
973,18.97,-20.78,-35.95,0
974,18.98,-14.3,-35.94,0
975,19.0,-3.09,-44.2,0
976,19.01,14.44,-49.36,0
977,19.02,30.46,-42.97,0
978,19.04,31.48,-37.58,0
979,19.05,17.37,-45.37,0
980,19.06,2.89,-53.73,0
981,19.08,-0.59,-46.72,0
982,19.09,3.98,-38.87,0
983,19.1,6.42,-43.98,0
984,19.12,-1.28,-48.06,0
985,19.13,-8.05,-44.83,0
986,19.14,3.59,-42.35,0
987,19.16,17.14,-43.31,0
988,19.17,12.06,-46.08,0
989,19.18,5.61,-46.13,0
990,19.2,10.17,-41.82,0
991,19.21,12.07,-40.54,0
992,19.22,8.2,-46.41,0
993,19.24,3.56,-49.7,0
994,19.25,-4.6,-41.59,0
995,19.27,-9.63,-31.73,0
996,19.28,-6.73,-32.59,0
997,19.29,-5.82,-39.38,0
998,19.31,-7.55,-40.49,0
999,19.32,-4.09,-35.4,0
1000,19.33,2.39,-29.59,0
1001,19.35,4.77,-26.28,0
1002,19.36,0.88,-29.25,0
1003,19.37,-3.9,-36.92,0
1004,19.39,-2.21,-38.21,0
1005,19.4,3.37,-29.64,0
1006,19.41,1.4,-20.46,0
1007,19.43,-9.82,-18.26,0
1008,19.44,-14.94,-21.56,0
1009,19.45,-5.74,-20.77,0
1010,19.47,6.71,-12.01,0
1011,19.48,11.77,-8.22,0
1012,19.49,8.71,-16.25,0
1013,19.51,-1.82,-21.82,0
1014,19.52,-12.28,-15.61,0
1015,19.53,-11.97,-9.8,0
1016,19.55,-5.08,-17.6,0
1017,19.56,-0.85,-28.79,0
1018,19.57,-3.32,-21.62,0
1019,19.59,-7.74,-0.14,0
1020,19.6,-2.2,8.5,0
1021,19.61,3.58,0.39,0
1022,19.62,-2.35,-4.61,0
1023,19.64,-5.13,-0.11,0
1024,19.65,-0.5,4.33,0
1025,19.67,0.24,1.8,0
1026,19.68,-3.08,-4.44,0
1027,19.69,-5.13,-3.22,0
1028,19.7,0.01,5.62,0
1029,19.72,11.0,9.45,0
1030,19.73,15.56,6.78,0
1031,19.75,8.68,5.77,0
1032,19.76,0.06,10.68,0
1033,19.77,0.14,20.01,0
1034,19.78,3.96,25.0,0
1035,19.8,-3.43,16.81,0
1036,19.81,-17.96,4.56,0
1037,19.82,-17.46,7.81,0
1038,19.84,-2.37,20.92,0
1039,19.85,6.41,25.54,0
1040,19.86,3.6,25.04,0
1041,19.88,-6.35,24.36,0
1042,19.89,-15.24,18.73,0
1043,19.9,-9.61,10.68,0
1044,19.92,3.75,7.58,0
1045,19.93,4.53,12.93,0
1046,19.95,-3.44,18.94,0
1047,19.96,-0.04,14.91,0
1048,19.97,12.51,10.06,0
1049,19.99,12.15,12.78,0
1050,20.0,-4.4,8.76,0
1051,20.01,-18.84,-2.3,0
1052,20.03,-22.13,-1.09,0
1053,20.04,-18.64,9.97,0
1054,20.05,-12.64,12.39,0
1055,20.07,-6.05,8.09,0
1056,20.08,1.16,13.37,0
1057,20.09,7.05,28.22,0
1058,20.11,9.29,33.78,0
1059,20.12,11.72,24.12,0
1060,20.13,13.46,15.86,0
1061,20.15,6.4,13.17,0
1062,20.16,-4.7,9.67,0
1063,20.17,-6.92,22.07,0
1064,20.19,-2.22,65.37,0
1065,20.2,5.41,131.5,0
1066,20.21,18.7,208.81,0
1067,20.23,24.02,269.08,0
1068,20.24,13.22,274.31,0
1069,20.25,7.8,229.77,0
1070,20.26,13.37,174.92,0
1071,20.28,9.63,123.45,0
1072,20.29,-2.96,66.3,0
1073,20.3,-6.09,6.86,0
1074,20.32,3.57,-47.4,0
1075,20.33,15.46,-97.19,0
1076,20.34,16.02,-137.54,0
1077,20.36,-1.02,-166.13,0
1078,20.37,-21.58,-186.52,0
1079,20.38,-25.87,-189.05,0
1080,20.4,-17.83,-167.46,0
1081,20.41,-10.31,-138.83,0
1082,20.42,-2.07,-121.08,0
1083,20.44,3.89,-110.26,0
1084,20.45,-4.03,-101.68,0
1085,20.46,-16.39,-101.46,0
1086,20.48,-6.09,-101.14,0
1087,20.49,18.78,-90.3,0
1088,20.5,21.8,-76.23,0
1089,20.52,3.84,-60.55,0
1090,20.53,-6.36,-51.94,0
1091,20.54,-7.36,-65.12,0
1092,20.56,-12.57,-81.14,0
1093,20.57,-14.93,-72.98,0
1094,20.59,-2.3,-50.48,0
1095,20.6,14.89,-36.49,0
1096,20.61,19.66,-29.68,0
1097,20.63,15.36,-19.96,0
1098,20.64,12.93,-11.56,0
1099,20.65,5.29,-3.22,0
1100,20.67,-12.87,10.5,0
1101,20.68,-20.7,18.28,0
1102,20.69,-7.72,14.5,0
1103,20.71,7.06,8.79,0
1104,20.72,9.9,8.46,0
1105,20.73,5.89,18.62,0
1106,20.75,4.96,32.53,0
1107,20.76,6.18,30.99,0
1108,20.77,2.82,16.72,0
1109,20.79,3.36,12.36,0
1110,20.8,12.89,18.08,0
1111,20.81,15.1,23.69,0
1112,20.83,7.09,30.15,0
1113,20.84,4.69,34.79,0
1114,20.85,8.14,34.46,0
1115,20.87,6.75,32.16,0
1116,20.88,-4.49,31.03,0
1117,20.89,-21.81,33.02,0
1118,20.9,-26.41,35.72,0
1119,20.92,-9.72,41.0,0
1120,20.93,5.53,52.95,0
1121,20.94,2.99,58.6,0
1122,20.96,-8.22,47.97,0
1123,20.97,-14.89,34.21,0
1124,20.98,-7.61,32.19,0
1125,21.0,6.15,41.42,0
1126,21.01,4.16,45.36,0
1127,21.02,-10.33,35.79,0
1128,21.04,-12.27,27.64,0
1129,21.05,-0.88,27.19,0
1130,21.06,5.72,24.67,0
1131,21.08,5.37,19.81,0
1132,21.09,6.32,15.38,0
1133,21.1,5.43,15.94,0
1134,21.12,-6.45,28.38,0
1135,21.13,-18.7,37.02,0
1136,21.14,-9.89,22.77,0
1137,21.16,8.55,3.67,0
1138,21.17,12.28,8.61,0
1139,21.18,6.62,26.88,0
1140,21.2,-0.41,26.3,0
1141,21.21,-8.72,11.63,0
1142,21.23,-6.63,11.02,0
1143,21.24,5.37,17.18,0
1144,21.25,7.65,12.75,0
1145,21.27,-1.21,11.31,0
1146,21.28,-2.62,17.33,0
1147,21.29,5.72,10.79,0
1148,21.31,3.75,-6.32,0
1149,21.32,-9.85,-9.2,0
1150,21.33,-10.14,3.43,0
1151,21.35,-0.81,9.97,0
1152,21.36,-11.26,3.52,0
1153,21.37,-29.5,-0.68,0
1154,21.39,-22.44,6.6,0
1155,21.4,-1.87,11.26,0
1156,21.41,6.44,1.99,0
1157,21.43,10.25,-9.42,0
1158,21.44,20.54,-10.83,0
1159,21.45,23.79,-3.24,0
1160,21.47,10.59,3.49,0
1161,21.48,-1.79,3.14,0
1162,21.49,4.75,6.39,0
1163,21.51,15.82,15.43,0
1164,21.52,10.6,13.35,0
1165,21.53,1.48,0.35,0
1166,21.54,2.3,-8.28,0
1167,21.56,4.08,-10.17,0
1168,21.57,1.97,-6.86,0
1169,21.58,-5.31,2.61,0
1170,21.6,-16.6,7.17,0
1171,21.61,-18.27,0.32,0
1172,21.62,-11.14,-6.98,0
1173,21.64,-9.33,-10.79,0
1174,21.65,-7.12,-13.59,0
1175,21.67,0.66,-10.78,0
1176,21.68,-0.24,-6.32,0
1177,21.69,-13.74,-6.79,0
1178,21.7,-20.79,-5.09,0
1179,21.72,-6.79,2.58,0
1180,21.73,11.05,7.0,0
1181,21.75,6.82,-1.69,0
1182,21.76,-5.16,-19.37,0
1183,21.77,3.11,-24.5,0
1184,21.78,14.74,-11.49,0
1185,21.8,2.05,-3.45,0
1186,21.81,-17.75,-8.91,0
1187,21.82,-19.41,-15.15,0
1188,21.84,-7.49,-18.55,0
1189,21.85,7.36,-22.31,0
1190,21.87,16.96,-21.92,0
1191,21.88,15.99,-16.75,0
1192,21.89,13.27,-17.36,0
1193,21.91,17.26,-24.96,0
1194,21.92,25.32,-23.69,0
1195,21.93,24.34,-10.35,0
1196,21.95,6.69,-6.5,0
1197,21.96,-6.86,-17.29,0
1198,21.97,-0.84,-18.49,0
1199,21.99,2.48,-5.41,0
1200,22.0,-7.35,-2.88,0
1201,22.01,-6.8,-15.85,0
1202,22.03,4.6,-19.87,0
1203,22.04,1.91,-8.36,0
1204,22.05,-10.23,-0.59,0
1205,22.07,-13.38,-3.56,0
1206,22.08,-11.38,-9.27,0
1207,22.09,-4.86,-13.55,0
1208,22.11,12.49,-15.23,0
1209,22.12,24.55,-16.05,0
1210,22.13,17.35,-17.41,0
1211,22.15,6.34,-13.14,0
1212,22.16,2.74,7.99,0
1213,22.17,5.91,56.25,0
1214,22.18,25.63,127.83,0
1215,22.2,48.02,202.05,0
1216,22.21,36.47,261.49,0
1217,22.22,5.84,229.22,0
1218,22.24,-0.76,33.18,0
1219,22.25,3.9,-151.55,0
1220,22.26,-11.65,-134.36,0
1221,22.28,-35.21,-39.11,0
1222,22.29,-39.35,-42.78,0
1223,22.3,-23.9,-148.57,0
1224,22.32,-9.19,-228.42,0
1225,22.33,5.84,-119.21,0
1226,22.34,16.83,97.36,0
1227,22.36,-8.76,132.56,0
1228,22.37,-45.93,3.7,0
1229,22.38,-43.44,-29.34,0
1230,22.4,-21.63,25.37,0
1231,22.41,-9.27,22.61,0
1232,22.42,-9.28,-16.67,0
1233,22.44,-32.95,-41.09,0
1234,22.45,-58.78,-51.63,0
1235,22.46,-44.94,-18.29,0
1236,22.48,-8.15,33.13,0
1237,22.49,17.86,-30.84,0
1238,22.5,38.79,-196.54,0
1239,22.52,45.27,-228.35,0
1240,22.53,16.93,-73.22,0
1241,22.55,-18.78,22.18,0
1242,22.56,-24.03,-26.54,0
1243,22.57,-4.66,-51.3,0
1244,22.59,13.12,-15.22,0
1245,22.6,16.68,-3.91,0
1246,22.61,8.19,-14.44,0
1247,22.63,2.82,2.6,0
1248,22.64,9.83,33.14,0
1249,22.65,13.11,11.66,0
1250,22.67,2.45,-19.43,0
1251,22.68,0.81,16.49,0
1252,22.69,14.93,45.1,0
1253,22.71,15.37,25.56,0
1254,22.72,-0.76,16.64,0
1255,22.73,-7.14,-3.22,0
1256,22.75,-1.0,-40.53,0
1257,22.76,8.35,-16.22,0
1258,22.77,20.69,37.65,0
1259,22.79,28.18,13.5,0
1260,22.8,23.45,-45.51,0
1261,22.81,13.41,-42.59,0
1262,22.82,3.04,-1.21,0
1263,22.84,-4.4,21.3,0
1264,22.85,-0.72,13.83,0
1265,22.86,4.9,-1.77,0
1266,22.88,0.22,-0.96,0
1267,22.89,0.37,1.77,0
1268,22.9,10.99,-6.12,0
1269,22.92,11.23,-4.69,0
1270,22.93,-0.31,-5.49,0
1271,22.94,-6.12,-32.72,0
1272,22.96,-2.9,-52.96,0
1273,22.97,2.51,-32.31,0
1274,22.98,5.56,-2.45,0
1275,23.0,5.29,-6.5,0
1276,23.01,2.4,-38.95,0
1277,23.02,-1.97,-49.37,0
1278,23.04,-3.27,-19.88,0
1279,23.05,-0.56,-4.19,0
1280,23.06,1.7,-9.17,0
1281,23.08,3.36,13.96,0
1282,23.09,2.21,31.38,0
1283,23.1,-6.91,3.25,0
1284,23.12,-15.87,-10.03,0
1285,23.13,-12.36,20.97,0
1286,23.14,-0.82,30.38,0
1287,23.16,3.69,-11.87,0
1288,23.17,-3.76,-38.38,0
1289,23.19,-14.64,-2.87,0
1290,23.2,-20.84,33.6,0
1291,23.21,-15.5,20.35,0
1292,23.23,-0.15,2.23,0
1293,23.24,6.21,14.97,0
1294,23.25,-2.27,33.7,0
1295,23.27,-9.36,35.3,0
1296,23.28,-10.3,23.82,0
1297,23.29,-6.27,17.8,0
1298,23.31,3.63,29.19,0
1299,23.32,6.58,42.96,0
1300,23.33,-1.65,49.63,0
1301,23.35,-9.26,60.36,0
1302,23.36,-9.43,60.63,0
1303,23.37,-0.02,34.34,0
1304,23.39,10.23,2.64,0
1305,23.4,9.96,-12.87,0
1306,23.41,9.09,-5.0,0
1307,23.43,13.67,20.94,0
1308,23.44,10.11,46.17,0
1309,23.45,1.3,56.93,0
1310,23.46,2.23,53.72,0
1311,23.48,4.88,49.52,0
1312,23.49,-2.23,47.08,0
1313,23.5,-8.45,43.76,0
1314,23.52,-2.5,38.69,0
1315,23.53,7.09,20.92,0
1316,23.54,7.87,5.18,0
1317,23.56,3.3,13.61,0
1318,23.57,2.64,22.95,0
1319,23.58,1.69,22.86,0
1320,23.6,-6.58,40.24,0
1321,23.61,-11.58,68.48,0
1322,23.62,-6.44,65.4,0
1323,23.64,-4.2,20.48,0
1324,23.65,-6.77,-12.5,0
1325,23.67,-1.25,9.11,0
1326,23.68,5.6,42.48,0
1327,23.69,-3.73,41.07,0
1328,23.7,-19.53,31.72,0
1329,23.72,-19.58,36.11,0
1330,23.73,-9.76,27.07,0
1331,23.75,-6.81,0.02,0
1332,23.76,-5.22,-18.64,0
1333,23.77,0.26,-24.01,0
1334,23.78,0.02,-7.71,0
1335,23.8,-4.35,26.21,0
1336,23.81,-5.88,32.94,0
1337,23.83,-7.2,17.66,0
1338,23.84,-3.32,12.51,0
1339,23.85,6.96,-0.41,0
1340,23.87,8.34,-9.79,0
1341,23.88,2.48,5.71,0
1342,23.89,5.86,7.91,0
1343,23.91,13.06,-21.35,0
1344,23.92,11.87,-54.11,0
1345,23.93,7.12,-55.9,0
1346,23.95,1.51,-12.35,0
1347,23.96,-6.56,23.89,0
1348,23.97,-8.36,7.1,0
1349,23.99,-1.1,-7.37,0
1350,24.0,4.94,10.02,0
1351,24.01,6.04,-5.21,0
1352,24.03,4.74,-41.14,0
1353,24.04,-4.2,-22.53,0
1354,24.05,-16.9,11.08,0
1355,24.07,-13.86,-3.73,0
1356,24.08,0.26,-20.21,0
1357,24.09,0.42,-6.14,0
1358,24.1,-3.99,-7.44,0
1359,24.12,9.67,-25.93,0
1360,24.13,24.66,-18.87,0
1361,24.14,20.17,8.0,0
1362,24.16,7.57,22.85,0
1363,24.17,1.77,17.08,0
1364,24.18,2.71,-0.1,0
1365,24.2,4.22,-3.45,0
1366,24.21,2.61,29.81,0
1367,24.22,2.66,72.19,0
1368,24.24,3.28,65.7,0
1369,24.25,1.05,13.86,0
1370,24.26,2.15,-25.47,0
1371,24.28,4.7,-46.62,0
1372,24.29,6.8,-92.85,0
1373,24.3,15.13,-170.31,0
1374,24.32,18.86,-239.98,0
1375,24.33,5.7,-270.21,0
1376,24.34,-11.16,-259.36,0
1377,24.36,-18.39,-217.7,0
1378,24.37,-17.15,-164.88,0
1379,24.38,-10.67,-124.01,0
1380,24.4,-3.11,-91.74,0
1381,24.41,-0.23,-44.62,0
1382,24.42,-5.21,15.61,0
1383,24.44,-7.34,58.9,0
1384,24.45,6.36,73.67,0
1385,24.46,17.13,73.57,0
1386,24.48,4.28,73.98,0
1387,24.49,-11.99,85.74,0
1388,24.51,-14.21,100.91,0
1389,24.52,-11.61,99.9,0
1390,24.53,-5.7,83.85,0
1391,24.55,0.03,67.6,0
1392,24.56,-8.78,61.28,0
1393,24.57,-20.0,67.31,0
1394,24.59,-6.58,77.11,0
1395,24.6,16.74,80.06,0
1396,24.61,17.14,71.39,0
1397,24.63,2.58,56.22,0
1398,24.64,-3.59,51.38,0
1399,24.65,-3.38,57.89,0
1400,24.67,-5.68,57.86,0
1401,24.68,-3.7,50.05,0
1402,24.69,7.16,41.99,0
1403,24.71,15.33,32.16,0
1404,24.72,18.66,23.38,0
1405,24.73,16.41,17.95,0
1406,24.75,-3.66,12.57,0
1407,24.76,-22.84,15.53,0
1408,24.77,-9.07,31.39,0
1409,24.78,18.1,36.01,0
1410,24.8,21.53,15.01,0
1411,24.81,8.57,-4.72,0
1412,24.82,4.68,-4.16,0
1413,24.84,7.9,-2.51,0
1414,24.85,2.07,-8.94,0
1415,24.86,-4.33,-5.85,0
1416,24.88,10.38,4.3,0
1417,24.89,31.46,2.39,0
1418,24.9,25.65,-2.58,0
1419,24.92,0.85,4.82,0
1420,24.93,-21.57,7.67,0
1421,24.94,-39.23,-5.95,0
1422,24.96,-35.28,-16.47,0
1423,24.97,-7.45,-15.57,0
1424,24.98,8.95,-19.19,0
1425,25.0,5.39,-28.39,0
1426,25.01,5.3,-26.57,0
1427,25.02,10.36,-14.38,0
1428,25.04,6.38,-9.63,0
1429,25.05,-4.87,-17.8,0
1430,25.06,-8.52,-27.87,0
1431,25.08,0.93,-30.94,0
1432,25.09,13.21,-27.69,0
1433,25.1,13.72,-24.65,0
1434,25.12,-2.12,-24.15,0
1435,25.13,-21.63,-21.61,0
1436,25.15,-24.94,-17.64,0
1437,25.16,-12.39,-19.55,0
1438,25.17,-7.92,-24.69,0
1439,25.19,-16.29,-23.76,0
1440,25.2,-11.82,-19.87,0
1441,25.21,8.57,-21.68,0
1442,25.23,13.54,-24.61,0
1443,25.24,-4.41,-22.16,0
1444,25.25,-18.91,-19.49,0
1445,25.27,-16.23,-17.02,0
1446,25.28,-7.74,-11.15,0
1447,25.29,-1.43,-9.88,0
1448,25.31,8.53,-14.19,0
1449,25.32,17.92,-13.54,0
1450,25.33,13.75,-11.11,0
1451,25.35,2.23,-13.56,0
1452,25.36,-2.99,-13.74,0
1453,25.37,-3.36,-12.52,0
1454,25.38,-2.09,-18.78,0
1455,25.4,5.39,-20.14,0
1456,25.41,12.77,-5.69,0
1457,25.42,3.76,5.4,0
1458,25.44,-12.0,-2.39,0
1459,25.45,-9.82,-15.72,0
1460,25.46,1.68,-16.61,0
1461,25.48,3.58,-7.58,0
1462,25.49,4.95,-8.98,0
1463,25.5,10.13,-21.28,0
1464,25.52,10.52,-18.01,0
1465,25.53,9.0,-3.1,0
1466,25.54,6.55,-6.85,0
1467,25.56,2.34,-17.62,0
1468,25.57,2.95,-9.01,0
1469,25.58,2.72,2.4,0
1470,25.6,-6.28,0.32,0
1471,25.61,-12.44,-1.51,0
1472,25.62,-9.58,0.11,0
1473,25.64,-7.28,0.43,0
1474,25.65,-4.83,5.51,0
1475,25.67,1.12,11.6,0
1476,25.68,2.48,7.09,0
1477,25.69,-0.83,-4.77,0
1478,25.7,-0.44,-10.0,0
1479,25.72,-0.0,-2.19,0
1480,25.73,-3.17,7.1,0
1481,25.75,-3.49,3.34,0
1482,25.76,-1.35,-5.05,0
1483,25.77,-2.22,-2.53,0
1484,25.79,-4.96,3.07,0
1485,25.8,-4.7,0.64,0
1486,25.81,-1.25,-2.7,0
1487,25.83,-1.78,-3.74,0
1488,25.84,-5.86,-4.81,0
1489,25.85,-1.96,-3.12,0
1490,25.87,9.61,-0.42,0
1491,25.88,13.37,5.59,0
1492,25.89,4.24,19.32,0
1493,25.91,-6.05,25.91,0
1494,25.92,-6.05,17.59,0
1495,25.93,-0.1,10.81,0
1496,25.95,-1.61,9.32,0
1497,25.96,-3.39,6.82,0
1498,25.97,8.33,13.18,0
1499,25.99,16.55,26.09,0
1500,26.0,6.12,26.25,0
1501,26.01,-3.07,15.17,0
1502,26.02,0.75,4.7,0
1503,26.04,4.04,0.49,0
1504,26.05,3.54,10.38,0
1505,26.06,3.48,24.11,0
1506,26.08,0.7,19.33,0
1507,26.09,-0.9,6.55,0
1508,26.1,-0.26,9.29,0
1509,26.12,-4.02,17.01,0
1510,26.13,-4.96,12.15,0
1511,26.14,4.06,3.74,0
1512,26.16,12.06,3.14,0
1513,26.17,10.1,5.47,0
1514,26.18,2.62,4.53,0
1515,26.2,-1.01,-3.64,0
1516,26.21,-0.59,-32.35,0
1517,26.22,-2.4,-80.4,0
1518,26.24,3.26,-111.37,0
1519,26.25,21.61,-106.42,0
1520,26.26,26.42,-96.26,0
1521,26.28,7.48,-111.05,0
1522,26.29,-7.68,-139.32,0
1523,26.3,-9.85,-144.81,0
1524,26.32,-13.6,-113.96,0
1525,26.33,-13.84,-76.65,0
1526,26.34,-5.04,-59.51,0
1527,26.36,0.49,-45.31,0
1528,26.37,0.89,-14.0,0
1529,26.38,1.64,20.36,0
1530,26.4,2.62,40.81,0
1531,26.41,3.63,51.95,0
1532,26.43,0.23,68.49,0
1533,26.44,-6.54,94.16,0
1534,26.45,-7.4,117.14,0
1535,26.47,-3.98,128.06,0
1536,26.48,-4.21,131.48,0
1537,26.49,-2.62,136.77,0
1538,26.51,6.93,146.14,0
1539,26.52,6.61,154.68,0
1540,26.53,-11.39,157.09,0
1541,26.55,-18.14,150.3,0
1542,26.56,-5.65,130.85,0
1543,26.57,-0.85,105.5,0
1544,26.59,-6.5,91.56,0
1545,26.6,-2.78,92.23,0
1546,26.61,7.77,97.81,0
1547,26.63,7.91,99.27,0
1548,26.64,-2.64,87.73,0
1549,26.65,-10.81,65.28,0
1550,26.67,-11.93,48.32,0
1551,26.68,-10.24,47.56,0
1552,26.69,-6.37,53.19,0
1553,26.7,-0.57,46.74,0
1554,26.72,-0.54,28.14,0
1555,26.73,-10.3,17.59,0
1556,26.75,-17.39,16.28,0
1557,26.76,-11.77,5.01,0
1558,26.77,-2.99,-10.65,0
1559,26.78,0.0,-9.8,0
1560,26.8,4.84,0.77,0
1561,26.81,15.01,1.93,0
1562,26.82,16.38,-6.33,0
1563,26.84,1.74,-15.18,0
1564,26.85,-10.13,-22.99,0
1565,26.86,-6.48,-28.85,0
1566,26.88,3.05,-30.71,0
1567,26.89,13.4,-31.85,0
1568,26.9,19.39,-34.9,0
1569,26.92,10.74,-35.79,0
1570,26.93,-1.15,-34.15,0
1571,26.94,0.51,-36.65,0
1572,26.96,5.96,-41.61,0
1573,26.97,-1.58,-42.76,0
1574,26.98,-10.45,-44.75,0
1575,27.0,1.1,-53.51,0
1576,27.01,16.29,-63.43,0
1577,27.02,7.14,-63.57,0
1578,27.04,-5.49,-54.71,0
1579,27.05,3.47,-48.85,0
1580,27.065,10.8,-52.0,0
1581,27.08,2.48,-61.5,0
1582,27.09,-1.74,-66.9,0
1583,27.11,4.23,-59.45,0
1584,27.12,6.35,-48.44,0
1585,27.13,-3.57,-44.98,0
1586,27.15,-15.27,-42.84,0
1587,27.16,-11.59,-41.08,0
1588,27.17,0.25,-50.04,0
1589,27.19,3.07,-59.45,0
1590,27.2,3.92,-53.88,0
1591,27.21,10.18,-43.48,0
1592,27.23,11.32,-37.41,0
1593,27.24,2.62,-36.27,0
1594,27.25,-2.62,-39.96,0
1595,27.27,4.73,-38.74,0
1596,27.28,10.39,-29.52,0
1597,27.29,1.57,-20.43,0
1598,27.3,-13.45,-19.84,0
1599,27.32,-20.08,-29.99,0
1600,27.33,-8.65,-36.1,0
1601,27.34,9.56,-29.15,0
1602,27.36,8.1,-22.34,0
1603,27.37,-8.55,-22.09,0
1604,27.38,-13.45,-19.86,0
1605,27.4,-0.49,-14.47,0
1606,27.41,13.14,-13.07,0
1607,27.42,9.2,-16.71,0
1608,27.44,-2.1,-19.23,0
1609,27.45,1.01,-17.91,0
1610,27.46,4.39,-21.08,0
1611,27.48,-8.24,-29.1,0
1612,27.49,-14.75,-22.84,0
1613,27.5,-4.41,-1.84,0
1614,27.52,1.12,4.44,0
1615,27.53,-4.08,-9.6,0
1616,27.54,-4.68,-15.0,0
1617,27.56,0.37,-0.7,0
1618,27.57,-0.04,12.15,0
1619,27.58,-2.1,7.95,0
1620,27.6,5.0,-3.18,0
1621,27.61,9.4,-3.21,0
1622,27.62,-3.34,4.56,0
1623,27.64,-13.69,3.76,0
1624,27.65,-4.32,0.78,0
1625,27.67,5.73,6.82,0
1626,27.68,4.1,9.5,0
1627,27.69,2.82,-0.38,0
1628,27.7,5.26,-9.89,0
1629,27.72,4.21,-6.5,0
1630,27.73,0.09,4.36,0
1631,27.75,-0.84,9.77,0
1632,27.76,-0.46,11.99,0
1633,27.77,-2.56,21.6,0
1634,27.79,-0.93,32.76,0
1635,27.8,4.4,29.85,0
1636,27.81,3.27,13.61,0
1637,27.83,2.37,0.52,0
1638,27.84,11.11,2.34,0
1639,27.85,16.0,13.94,0
1640,27.87,11.59,20.63,0
1641,27.88,7.57,16.01,0
1642,27.89,3.66,10.01,0
1643,27.91,-3.82,12.68,0
1644,27.92,-11.56,17.86,0
1645,27.93,-15.83,13.49,0
1646,27.94,-14.15,4.16,0
1647,27.96,-5.07,4.7,0
1648,27.97,6.37,15.18,0
1649,27.98,5.32,25.63,0
1650,28.0,-10.92,31.78,0
1651,28.01,-18.4,30.5,0
1652,28.02,-5.4,21.48,0
1653,28.04,7.22,15.42,0
1654,28.05,6.93,20.02,0
1655,28.06,3.08,27.48,0
1656,28.08,-0.56,27.41,0
1657,28.09,-2.16,23.45,0
1658,28.1,5.55,25.38,0
1659,28.12,11.89,33.77,0
1660,28.13,3.98,40.22,0
1661,28.14,-0.7,37.56,0
1662,28.16,10.18,31.07,0
1663,28.17,17.99,29.16,0
1664,28.18,10.3,25.11,0
1665,28.2,-1.79,11.54,0
1666,28.21,-4.1,5.12,0
1667,28.22,1.7,35.07,0
1668,28.24,4.07,112.29,0
1669,28.25,4.46,209.36,0
1670,28.26,4.82,275.55,0
1671,28.28,-5.99,288.85,0
1672,28.29,-18.75,259.4,0
1673,28.3,-16.54,192.5,0
1674,28.32,-13.79,113.55,0
1675,28.33,-14.84,62.96,0
1676,28.34,-1.46,26.25,0
1677,28.36,9.58,-34.14,0
1678,28.37,-3.93,-105.52,0
1679,28.39,-17.55,-155.09,0
1680,28.4,-10.93,-175.37,0
1681,28.41,-2.88,-175.84,0
1682,28.43,-6.76,-167.28,0
1683,28.44,-9.31,-157.56,0
1684,28.45,1.72,-149.39,0
1685,28.47,18.61,-141.37,0
1686,28.48,25.16,-131.76,0
1687,28.49,18.34,-120.8,0
1688,28.51,7.1,-106.78,0
1689,28.52,-3.17,-93.45,0
1690,28.53,-8.69,-93.98,0
1691,28.55,-5.34,-103.96,0
1692,28.56,5.98,-99.73,0
1693,28.57,17.57,-76.21,0
1694,28.58,17.83,-54.24,0
1695,28.6,4.94,-50.45,0
1696,28.61,-6.61,-57.21,0
1697,28.62,-1.35,-59.54,0
1698,28.64,11.85,-56.45,0
1699,28.65,8.86,-49.7,0
1700,28.67,-1.67,-35.51,0
1701,28.68,6.57,-19.53,0
1702,28.69,19.32,-12.79,0
1703,28.7,10.77,-14.92,0
1704,28.72,-6.07,-17.96,0
1705,28.73,-14.25,-18.94,0
1706,28.75,-17.29,-15.61,0
1707,28.76,-10.92,-3.44,0
1708,28.77,6.68,12.98,0
1709,28.78,12.36,20.26,0
1710,28.8,-4.29,16.24,0
1711,28.81,-18.14,13.03,0
1712,28.82,-14.18,14.63,0
1713,28.84,-8.86,17.42,0
1714,28.85,-12.24,24.92,0
1715,28.86,-13.0,33.11,0
1716,28.88,-5.75,33.58,0
1717,28.89,0.26,31.58,0
1718,28.9,-3.35,30.7,0
1719,28.92,-11.53,25.71,0
1720,28.93,-7.38,21.1,0
1721,28.94,4.44,25.1,0
1722,28.96,1.35,34.06,0
1723,28.97,-4.89,39.0,0
1724,28.98,6.07,35.65,0
1725,29.0,14.84,27.94,0
1726,29.01,6.72,23.95,0
1727,29.03,-1.95,28.1,0
1728,29.04,-2.97,34.01,0
1729,29.05,-3.2,32.83,0
1730,29.07,-2.17,29.92,0
1731,29.08,1.86,35.11,0
1732,29.09,2.64,40.58,0
1733,29.11,0.15,32.18,0
1734,29.12,3.1,20.36,0
1735,29.13,6.71,26.71,0
1736,29.15,-0.68,39.19,0
1737,29.16,-7.6,31.41,0
1738,29.17,2.16,20.0,0
1739,29.19,11.45,30.03,0
1740,29.2,0.25,45.27,0
1741,29.21,-16.05,44.92,0
1742,29.22,-17.07,38.38,0
1743,29.24,-10.99,33.29,0
1744,29.25,-10.08,22.46,0
1745,29.26,-6.75,10.51,0
1746,29.28,2.12,11.78,0
1747,29.29,6.75,23.12,0
1748,29.3,5.47,28.82,0
1749,29.32,1.22,24.61,0
1750,29.33,-3.4,22.11,0
1751,29.34,-3.41,26.89,0
1752,29.36,-0.72,25.52,0
1753,29.37,1.77,11.73,0
1754,29.38,4.79,0.7,0
1755,29.4,0.6,0.62,0
1756,29.41,-10.88,6.76,0
1757,29.42,-13.61,13.24,0
1758,29.44,-8.26,15.27,0
1759,29.45,-6.57,15.16,0
1760,29.46,-1.88,13.17,0
1761,29.48,8.92,4.57,0
1762,29.49,12.15,-1.46,0
1763,29.5,3.6,6.0,0
1764,29.52,-3.19,14.67,0
1765,29.53,-2.48,10.01,0
1766,29.54,-5.39,0.26,0
1767,29.56,-7.66,-1.66,0
1768,29.57,2.71,0.85,0
1769,29.58,8.29,2.04,0
1770,29.6,-2.76,3.19,0
1771,29.61,-7.9,-0.11,0
1772,29.62,3.04,-8.44,0
1773,29.64,14.24,-9.24,0
1774,29.65,14.78,-3.66,0
1775,29.67,7.84,-5.99,0
1776,29.68,4.13,-10.81,0
1777,29.69,7.56,-5.46,0
1778,29.71,11.63,-0.73,0
1779,29.72,14.17,-9.64,0
1780,29.73,14.08,-18.49,0
1781,29.75,8.4,-13.34,0
1782,29.76,2.95,-7.67,0
1783,29.77,1.19,-14.04,0
1784,29.79,-2.55,-18.72,0
1785,29.8,-5.92,-12.0,0
1786,29.81,-0.12,-5.22,0
1787,29.83,9.48,-9.07,0
1788,29.84,9.05,-17.98,0
1789,29.85,3.39,-15.99,0
1790,29.86,5.47,-5.78,0
1791,29.88,7.47,-8.06,0
1792,29.89,-3.2,-16.76,0
1793,29.9,-14.31,-14.07,0
1794,29.92,-7.81,-13.94,0
1795,29.93,9.01,-25.32,0
1796,29.94,17.04,-27.37,0
1797,29.96,12.92,-14.71,0
1798,29.97,7.57,-7.38,0
1799,29.98,5.55,-14.61,0
1800,30.0,1.83,-20.22,0
1801,30.01,-3.55,-13.59,0
1802,30.02,-7.86,-7.86,0
1803,30.04,-12.15,-6.91,0
1804,30.05,-16.66,-5.05,0
1805,30.06,-22.57,-8.82,0
1806,30.08,-25.32,-19.9,0
1807,30.09,-10.81,-26.11,0
1808,30.1,13.27,-22.65,0
1809,30.12,17.62,-15.62,0
1810,30.13,5.99,-7.13,0
1811,30.14,3.09,-0.92,0
1812,30.16,4.33,-3.21,0
1813,30.17,1.12,-3.48,0
1814,30.18,-5.03,3.85,0
1815,30.2,-19.76,-11.14,0
1816,30.21,-30.44,-60.65,0
1817,30.22,-17.84,-92.73,0
1818,30.24,0.38,-68.04,0
1819,30.25,8.01,1.71,0
1820,30.26,21.89,83.31,0
1821,30.28,39.56,124.79,0
1822,30.29,36.77,122.04,0
1823,30.3,13.25,117.37,0
1824,30.32,-15.22,131.65,0
1825,30.33,-26.17,183.28,0
1826,30.35,-7.9,219.23,0
1827,30.36,12.2,136.61,0
1828,30.37,12.26,10.96,0
1829,30.39,12.36,-23.54,0
1830,30.4,23.56,-32.4,0
1831,30.41,16.06,-69.94,0
1832,30.43,-10.95,-56.43,0
1833,30.44,-15.12,-11.92,0
1834,30.45,0.87,-29.87,0
1835,30.47,-0.89,-87.04,0
1836,30.48,-24.15,-98.24,0
1837,30.49,-44.84,-69.8,0
1838,30.5,-40.83,-75.86,0
1839,30.52,-14.48,-100.41,0
1840,30.53,11.42,-62.79,0
1841,30.54,21.66,13.23,0
1842,30.56,17.56,58.36,0
1843,30.57,8.89,49.38,0
1844,30.58,-7.03,-36.25,0
1845,30.6,-30.54,-133.98,0
1846,30.61,-30.59,-127.72,0
1847,30.62,2.42,-71.5,0
1848,30.64,25.47,-85.0,0
1849,30.65,10.86,-131.24,0
1850,30.67,-16.38,-122.19,0
1851,30.68,-21.81,-84.23,0
1852,30.69,-3.61,-70.95,0
1853,30.7,18.14,-53.14,0
1854,30.72,31.15,-28.09,0
1855,30.73,35.06,-45.85,0
1856,30.75,23.85,-55.05,0
1857,30.76,-3.78,-5.47,0
1858,30.77,-21.96,8.35,0
1859,30.78,-13.05,-45.93,0
1860,30.8,-2.32,-52.39,0
1861,30.81,-9.23,8.03,0
1862,30.82,-13.54,20.2,0
1863,30.84,-2.94,-27.41,0
1864,30.85,6.9,-28.73,0
1865,30.86,5.27,21.08,0
1866,30.88,-2.5,16.41,0
1867,30.89,-9.25,-48.93,0
1868,30.9,-15.6,-62.98,0
1869,30.92,-14.4,3.15,0
1870,30.93,11.69,43.82,0
1871,30.94,40.55,-8.4,0
1872,30.96,28.01,-77.31,0
1873,30.97,-7.0,-60.66,0
1874,30.99,-14.29,17.02,0
1875,31.0,1.13,53.16,0
1876,31.01,9.94,23.79,0
1877,31.03,15.73,-11.57,0
1878,31.04,24.9,-3.66,0
1879,31.05,19.71,41.54,0
1880,31.07,-5.54,61.68,0
1881,31.08,-24.63,32.45,0
1882,31.09,-17.96,28.9,0
1883,31.11,-1.91,64.72,0
1884,31.12,2.66,50.11,0
1885,31.13,0.01,0.83,0
1886,31.14,2.58,11.81,0
1887,31.16,8.31,51.52,0
1888,31.17,4.53,37.59,0
1889,31.18,-10.94,5.36,0
1890,31.2,-24.55,13.17,0
1891,31.21,-23.76,25.28,0
1892,31.22,-9.02,18.88,0
1893,31.24,5.2,22.11,0
1894,31.25,8.09,36.84,0
1895,31.26,6.35,53.7,0
1896,31.28,-0.35,57.54,0
1897,31.29,-16.22,33.04,0
1898,31.3,-21.76,23.49,0
1899,31.32,-10.43,65.56,0
1900,31.33,-6.62,84.16,0
1901,31.34,-13.05,38.58,0
1902,31.36,-2.18,21.52,0
1903,31.37,29.13,54.81,0
1904,31.38,41.58,39.18,0
1905,31.4,14.93,-35.41,0
1906,31.41,-12.74,-38.16,0
1907,31.42,-10.24,63.02,0
1908,31.44,-0.54,114.18,0
1909,31.45,-9.35,62.95,0
1910,31.46,-21.54,32.43,0
1911,31.48,-16.65,71.07,0
1912,31.49,-9.67,107.74,0
1913,31.5,-12.86,77.54,0
1914,31.52,-5.27,0.88,0
1915,31.53,21.16,-24.19,0
1916,31.54,37.81,30.28,0
1917,31.56,19.69,50.74,0
1918,31.57,-10.97,-17.36,0
1919,31.58,-11.18,-42.12,0
1920,31.6,10.09,32.9,0
1921,31.61,16.18,64.8,0
1922,31.63,8.99,12.99,0
1923,31.64,-0.74,-23.17,0
1924,31.65,-16.79,-18.89,0
1925,31.67,-26.76,8.29,0
1926,31.68,-14.51,9.56,0
1927,31.69,6.49,-58.42,0
1928,31.71,12.34,-84.77,0
1929,31.72,3.54,1.96,0
1930,31.73,-5.46,63.06,0
1931,31.75,-6.39,10.64,0
1932,31.76,-2.06,-55.84,0
1933,31.77,3.76,-46.66,0
1934,31.78,9.49,-0.58,0
1935,31.8,-1.85,25.4,0
1936,31.81,-29.8,19.41,0
1937,31.82,-34.69,-17.37,0
1938,31.84,-8.31,-52.52,0
1939,31.85,13.03,-33.25,0
1940,31.86,20.07,28.74,0
1941,31.88,28.66,46.21,0
1942,31.89,32.82,16.92,0
1943,31.9,28.49,21.58,0
1944,31.92,26.8,14.41,0
1945,31.93,21.08,-58.23,0
1946,31.94,4.12,-78.72,0
1947,31.96,-12.51,-7.85,0
1948,31.97,-25.95,28.67,0
1949,31.98,-34.37,4.89,0
1950,32.0,-18.66,-8.2,0
1951,32.01,17.26,6.6,0
1952,32.03,32.33,36.87,0
1953,32.04,13.56,50.43,0
1954,32.05,-9.71,15.61,0
1955,32.06,-15.92,-18.95,0
1956,32.08,-1.4,-14.79,0
1957,32.09,14.58,-19.89,0
1958,32.11,5.67,-49.43,0
1959,32.12,-11.85,-62.03,0
1960,32.13,-7.5,-27.86,0
1961,32.15,1.88,25.84,0
1962,32.16,-15.02,19.86,0
1963,32.17,-40.01,-49.73,0
1964,32.19,-28.16,-118.45,0
1965,32.2,12.28,-166.6,0
1966,32.21,29.96,-179.82,0
1967,32.22,10.61,-138.08,0
1968,32.24,-14.57,-69.18,0
1969,32.25,-22.36,-19.97,0
1970,32.27,-16.19,-20.23,0
1971,32.28,-3.43,-66.57,0
1972,32.29,15.79,-111.38,0
1973,32.31,26.49,-104.55,0
1974,32.32,6.85,-56.63,0
1975,32.33,-20.61,-21.01,0
1976,32.35,-11.45,-7.76,0
1977,32.36,19.61,11.0,0
1978,32.37,30.47,33.48,0
1979,32.39,22.22,46.96,0
1980,32.4,10.0,57.45,0
1981,32.41,-1.99,62.7,0
1982,32.43,-7.61,55.15,0
1983,32.44,-3.48,48.48,0
1984,32.45,11.22,58.19,0
1985,32.47,24.48,68.87,0
1986,32.48,11.79,63.88,0
1987,32.49,-19.66,52.94,0
1988,32.51,-29.49,44.55,0
1989,32.52,-8.33,39.72,0
1990,32.53,9.34,50.71,0
1991,32.54,6.84,80.75,0
1992,32.56,-1.79,101.27,0
1993,32.57,-9.53,83.85,0
1994,32.59,-16.48,43.03,0
1995,32.6,-17.19,20.75,0
1996,32.61,-9.7,28.5,0
1997,32.63,-0.38,36.92,0
1998,32.64,2.4,27.88,0
1999,32.65,-0.97,19.21,0
2000,32.67,-2.74,26.47,0
2001,32.68,1.56,36.83,0
2002,32.69,9.46,34.49,0
2003,32.71,10.86,26.22,0
2004,32.72,1.55,26.83,0
2005,32.73,-6.68,32.08,0
2006,32.75,-5.35,25.16,0
2007,32.76,1.65,7.94,0
2008,32.77,7.38,-4.66,0
2009,32.79,6.74,-10.4,0
2010,32.8,5.04,-11.73,0
2011,32.81,7.41,-4.81,0
2012,32.83,6.82,8.02,0
2013,32.84,1.3,15.96,0
2014,32.85,-2.77,13.26,0
2015,32.87,-8.33,3.25,0
2016,32.88,-18.43,-8.64,0
2017,32.89,-15.06,-12.05,0
2018,32.9,9.98,-0.41,0
2019,32.92,27.04,13.98,0
2020,32.93,20.51,13.3,0
2021,32.95,13.98,-2.55,0
2022,32.96,17.76,-11.93,0
2023,32.97,11.95,-0.12,0
2024,32.99,-11.39,14.3,0
2025,33.0,-31.49,10.18,0
2026,33.01,-25.52,-1.28,0
2027,33.03,5.94,-2.43,0
2028,33.04,29.96,-1.07,0
2029,33.05,14.56,-8.44,0
2030,33.06,-14.36,-16.84,0
2031,33.08,-8.56,-20.25,0
2032,33.09,14.18,-21.69,0
2033,33.11,9.97,-18.54,0
2034,33.12,-5.31,-14.24,0
2035,33.13,1.7,-19.82,0
2036,33.15,15.87,-29.39,0
2037,33.16,4.26,-27.26,0
2038,33.17,-24.94,-18.45,0
2039,33.19,-31.82,-20.59,0
2040,33.2,-10.0,-26.05,0
2041,33.21,10.92,-14.08,0
2042,33.22,20.4,-1.56,0
2043,33.24,25.24,-17.36,0
2044,33.25,17.01,-41.19,0
2045,33.27,-7.37,-41.71,0
2046,33.28,-23.21,-29.15,0
2047,33.29,-14.78,-24.69,0
2048,33.31,0.33,-27.32,0
2049,33.32,3.32,-21.56,0
2050,33.33,-1.85,-5.66,0
2051,33.35,-4.95,-4.39,0
2052,33.36,-7.92,-24.9,0
2053,33.37,-17.0,-33.38,0
2054,33.38,-27.68,-16.93,0
2055,33.4,-22.73,-5.6,0
2056,33.41,2.11,-13.99,0
2057,33.43,22.05,-24.09,0
2058,33.44,17.38,-22.4,0
2059,33.45,-1.03,-14.02,0
2060,33.47,-10.93,-10.82,0
2061,33.48,-10.76,-15.36,0
2062,33.49,-15.11,-15.25,0
2063,33.51,-18.23,-7.83,0
2064,33.52,-7.76,-9.74,0
2065,33.53,2.66,-23.42,0
2066,33.54,0.31,-29.87,0
2067,33.56,-6.15,-22.75,0
2068,33.57,-7.25,-15.9,0
2069,33.59,-0.93,-14.82,0
2070,33.6,7.52,-14.34,0
2071,33.61,9.38,-15.46,0
2072,33.63,3.66,-17.97,0
2073,33.64,-2.51,-15.92,0
2074,33.65,0.7,-9.3,0
2075,33.67,12.5,-7.19,0
2076,33.68,15.41,-10.85,0
2077,33.69,2.21,-12.32,0
2078,33.71,-12.84,-13.35,0
2079,33.72,-14.34,-16.13,0
2080,33.73,-0.34,-11.69,0
2081,33.75,12.46,-0.76,0
2082,33.76,8.93,-0.16,0
2083,33.77,1.19,-13.21,0
2084,33.79,2.52,-10.8,0
2085,33.8,5.46,12.96,0
2086,33.81,5.68,17.02,0
2087,33.83,8.04,-1.3,0
2088,33.84,9.22,-5.71,0
2089,33.85,5.85,-0.55,0
2090,33.87,5.51,-2.59,0
2091,33.88,10.16,2.22,0
2092,33.89,10.16,18.31,0
2093,33.9,-0.58,24.88,0
2094,33.92,-13.98,15.69,0
2095,33.93,-15.99,6.03,0
2096,33.95,-2.65,7.05,0
2097,33.96,11.93,14.36,0
2098,33.97,7.46,17.29,0
2099,33.99,-10.39,15.51,0
2100,34.0,-13.11,13.96,0
2101,34.01,1.21,7.75,0
2102,34.03,7.24,-2.47,0
2103,34.04,-0.42,-3.71,0
2104,34.05,-8.9,6.48,0
2105,34.06,-14.43,16.58,0
2106,34.08,-15.82,16.94,0
2107,34.09,-8.14,8.29,0
2108,34.11,3.94,3.09,0
2109,34.12,9.14,7.31,0
2110,34.13,7.67,15.58,0
2111,34.15,4.95,23.47,0
2112,34.16,1.8,23.41,0
2113,34.17,0.78,10.74,0
2114,34.19,4.73,-0.47,0
2115,34.2,12.26,-4.3,0
2116,34.21,15.26,-28.01,0
2117,34.23,6.93,-79.67,0
2118,34.24,-1.35,-120.98,0
2119,34.25,2.31,-133.45,0
2120,34.27,8.7,-135.04,0
2121,34.28,13.45,-136.91,0
2122,34.29,16.27,-134.69,0
2123,34.31,4.01,-119.55,0
2124,34.32,-12.91,-90.6,0
2125,34.33,-6.48,-57.1,0
2126,34.35,14.51,-26.08,0
2127,34.36,17.87,0.64,0
2128,34.37,-1.06,25.51,0
2129,34.38,-21.97,53.02,0
2130,34.4,-32.46,78.44,0
2131,34.41,-26.69,91.64,0
2132,34.43,-4.11,98.14,0
2133,34.44,17.16,118.07,0
2134,34.45,18.62,154.01,0
2135,34.47,4.75,178.12,0
2136,34.48,-4.2,173.67,0
2137,34.49,4.63,159.25,0
2138,34.51,22.31,147.5,0
2139,34.52,25.69,131.48,0
2140,34.53,4.29,115.31,0
2141,34.54,-18.77,108.56,0
2142,34.56,-17.03,105.18,0
2143,34.57,-6.02,94.3,0
2144,34.59,-7.29,78.48,0
2145,34.6,-6.0,68.89,0
2146,34.61,4.16,57.59,0
2147,34.63,3.45,26.32,0
2148,34.64,-9.25,-12.54,0
2149,34.65,-11.55,-32.93,0
2150,34.67,2.53,-26.17,0
2151,34.68,11.98,0.22,0
2152,34.69,5.9,21.15,0
2153,34.71,-1.5,23.33,0
2154,34.72,-0.7,21.94,0
2155,34.73,-3.52,24.48,0
2156,34.75,-13.49,26.06,0
2157,34.76,-15.11,25.53,0
2158,34.77,-3.62,22.94,0
2159,34.79,3.56,15.07,0
2160,34.8,-8.59,0.34,0
2161,34.81,-23.34,-8.33,0
2162,34.83,-15.7,-2.06,0
2163,34.84,1.43,-1.14,0
2164,34.85,7.15,-16.26,0
2165,34.87,7.65,-24.1,0
2166,34.88,10.97,-13.68,0
2167,34.89,11.04,-6.59,0
2168,34.91,-0.26,-17.66,0
2169,34.92,-13.45,-32.72,0
2170,34.93,-9.85,-37.46,0
2171,34.95,2.07,-37.51,0
2172,34.96,8.72,-38.65,0
2173,34.97,15.77,-38.37,0
2174,34.99,15.13,-39.73,0
2175,35.0,-6.91,-42.25,0
2176,35.01,-32.86,-35.78,0
2177,35.03,-34.4,-26.88,0
2178,35.04,-9.26,-30.99,0
2179,35.05,16.43,-37.77,0
2180,35.06,19.21,-34.14,0
2181,35.08,9.63,-31.47,0
2182,35.09,9.88,-38.5,0
2183,35.11,16.8,-50.16,0
2184,35.12,18.91,-61.07,0
2185,35.13,15.98,-66.42,0
2186,35.15,6.56,-63.77,0
2187,35.16,-8.84,-54.66,0
2188,35.17,-19.18,-40.08,0
2189,35.19,-14.93,-22.35,0
2190,35.2,-1.78,-14.21,0
2191,35.21,4.56,-22.74,0
2192,35.22,-0.92,-29.25,0
2193,35.24,-7.02,-21.27,0
2194,35.25,-4.57,-10.95,0
2195,35.27,2.5,-9.85,0
2196,35.28,1.19,-19.24,0
2197,35.29,-14.43,-28.9,0
2198,35.31,-20.38,-23.82,0
2199,35.32,-0.21,-14.34,0
2200,35.33,14.43,-22.21,0
2201,35.35,7.07,-34.31,0
2202,35.36,3.71,-27.77,0
2203,35.37,5.94,-12.11,0
2204,35.38,-2.85,-6.04,0
2205,35.4,-7.86,-9.42,0
2206,35.41,0.45,-11.65,0
2207,35.43,-5.05,-11.22,0
2208,35.44,-27.47,-15.82,0
2209,35.45,-27.57,-24.96,0
2210,35.47,2.36,-26.94,0
2211,35.48,22.15,-18.6,0
2212,35.49,12.66,-8.07,0
2213,35.51,-1.33,-2.93,0
2214,35.52,-1.49,-7.1,0
2215,35.53,2.55,-16.41,0
2216,35.55,4.8,-19.54,0
2217,35.56,4.44,-13.89,0
2218,35.57,-1.04,-8.22,0
2219,35.59,-0.16,-7.41,0
2220,35.6,9.63,-8.48,0
2221,35.61,10.29,-7.48,0
2222,35.63,0.6,-0.03,0
2223,35.64,-3.58,9.06,0
2224,35.65,-0.21,6.64,0
2225,35.67,-0.32,-2.05,0
2226,35.68,-5.99,0.4,0
2227,35.69,-8.33,8.48,0
2228,35.71,-6.16,10.0,0
2229,35.72,-1.84,10.33,0
2230,35.73,4.36,9.9,0
2231,35.75,4.35,4.19,0
2232,35.76,3.22,-0.12,0
2233,35.77,19.02,2.44,0
2234,35.79,32.33,7.86,0
2235,35.8,9.84,10.51,0
2236,35.81,-23.45,11.75,0
2237,35.83,-23.9,13.99,0
2238,35.84,-0.98,12.45,0
2239,35.85,12.37,6.26,0
2240,35.87,6.75,5.28,0
2241,35.88,-3.87,11.12,0
2242,35.89,-4.27,14.03,0
2243,35.9,1.22,15.6,0
2244,35.92,4.82,20.17,0
2245,35.93,13.48,16.68,0
2246,35.95,20.77,4.27,0
2247,35.96,10.7,-2.02,0
2248,35.97,-7.42,1.11,0
2249,35.99,-14.85,8.48,0
2250,36.0,-10.21,16.96,0
2251,36.01,-3.64,20.74,0
2252,36.03,-3.35,19.65,0
2253,36.04,-9.0,18.12,0
2254,36.05,-9.47,13.98,0
2255,36.06,5.57,7.16,0
2256,36.08,21.79,3.6,0
2257,36.09,14.16,7.34,0
2258,36.11,-3.51,16.16,0
2259,36.12,2.69,23.03,0
2260,36.13,19.12,24.24,0
2261,36.15,10.64,19.56,0
2262,36.16,-8.78,12.3,0
2263,36.17,-9.59,13.4,0
2264,36.19,-1.8,22.91,0
2265,36.2,-0.93,23.84,0
2266,36.21,1.41,11.7,0
2267,36.23,8.27,2.5,0
2268,36.24,7.35,3.9,0
2269,36.25,0.6,11.87,0
2270,36.27,2.61,22.95,0
2271,36.28,7.0,33.93,0
2272,36.29,0.24,62.51,0
2273,36.31,-4.28,135.99,0
2274,36.32,3.15,232.6,0
2275,36.33,5.33,290.09,0
2276,36.35,-1.95,279.93,0
2277,36.36,-3.63,230.35,0
2278,36.37,-0.19,171.89,0
2279,36.38,-0.72,105.6,0
2280,36.4,-3.59,32.42,0
2281,36.41,-7.61,-31.17,0
2282,36.43,-15.74,-74.32,0
2283,36.44,-20.78,-104.7,0
2284,36.45,-13.98,-134.38,0
2285,36.47,-9.36,-159.44,0
2286,36.48,-16.99,-169.96,0
2287,36.49,-13.73,-169.29,0
2288,36.51,7.23,-164.63,0
2289,36.52,13.73,-154.33,0
2290,36.53,-2.28,-140.76,0
2291,36.54,-14.3,-127.14,0
2292,36.56,-12.7,-110.65,0
2293,36.57,-6.63,-97.48,0
2294,36.59,1.8,-96.13,0
2295,36.6,13.53,-95.25,0
2296,36.61,20.53,-81.51,0
2297,36.63,16.22,-62.55,0
2298,36.64,8.89,-51.85,0
2299,36.65,3.58,-51.82,0
2300,36.67,-3.54,-56.17,0
2301,36.68,-2.76,-58.19,0
2302,36.69,12.39,-51.62,0
2303,36.71,19.08,-38.65,0
2304,36.72,5.28,-34.98,0
2305,36.73,-4.1,-42.59,0
2306,36.75,4.9,-42.92,0
2307,36.76,12.12,-27.25,0
2308,36.77,5.19,-6.71,0
2309,36.79,-3.03,1.72,0
2310,36.8,-1.22,-5.71,0
2311,36.81,2.94,-10.81,0
2312,36.83,-1.4,2.39,0
2313,36.84,-8.67,17.28,0
2314,36.85,-9.76,11.65,0
2315,36.87,-6.68,0.42,0
2316,36.88,-5.12,5.13,0
2317,36.89,-10.47,13.12,0
2318,36.9,-17.17,11.82,0
2319,36.92,-8.82,12.34,0
2320,36.93,10.56,19.11,0
2321,36.95,20.65,24.76,0
2322,36.96,15.3,27.32,0
2323,36.97,1.96,28.82,0
2324,36.99,-4.97,28.85,0
2325,37.0,3.13,26.76,0
2326,37.01,6.41,27.75,0
2327,37.03,-8.39,37.64,0
2328,37.04,-17.84,53.15,0
2329,37.05,-7.66,61.91,0
2330,37.06,4.47,53.54,0
2331,37.08,3.28,31.8,0
2332,37.09,-4.56,16.67,0
2333,37.11,-6.78,22.11,0
2334,37.12,-2.92,36.71,0
2335,37.13,2.42,42.99,0
2336,37.15,3.72,40.19,0
2337,37.16,-1.9,35.59,0
2338,37.17,-8.41,31.98,0
2339,37.19,-9.21,30.64,0
2340,37.2,-2.53,33.13,0
2341,37.21,7.89,35.65,0
2342,37.22,11.04,33.87,0
2343,37.24,0.57,28.73,0
2344,37.25,-13.14,22.74,0
2345,37.27,-11.69,18.27,0
2346,37.28,3.12,18.37,0
2347,37.29,7.4,24.47,0
2348,37.31,-2.62,30.75,0
2349,37.32,-8.3,29.46,0
2350,37.33,-10.22,24.38,0
2351,37.35,-16.7,20.48,0
2352,37.36,-15.97,17.35,0
2353,37.37,-3.0,17.29,0
2354,37.38,9.09,20.44,0
2355,37.4,15.95,18.31,0
2356,37.41,20.31,8.43,0
2357,37.43,17.83,2.21,0
2358,37.44,10.32,3.68,0
2359,37.45,6.68,8.54,0
2360,37.47,3.2,19.02,0
2361,37.48,-6.11,29.07,0
2362,37.49,-14.37,26.14,0
2363,37.51,-12.02,14.38,0
2364,37.52,0.29,7.56,0
2365,37.53,7.34,7.49,0
2366,37.54,0.94,8.19,0
2367,37.56,-3.54,7.04,0
2368,37.57,3.12,4.26,0
2369,37.59,5.7,1.87,0
2370,37.6,-4.94,-0.05,0
2371,37.61,-10.68,-1.41,0
2372,37.63,4.59,2.66,0
2373,37.64,20.51,8.28,0
2374,37.65,11.24,2.02,0
2375,37.67,-8.98,-10.1,0
2376,37.68,-14.4,-8.06,0
2377,37.69,-8.64,5.0,0
2378,37.71,-6.72,11.43,0
2379,37.72,-7.45,8.55,0
2380,37.73,-5.29,0.89,0
2381,37.75,-6.7,-7.87,0
2382,37.76,-11.17,-8.88,0
2383,37.77,-5.55,-5.63,0
2384,37.79,6.66,-12.71,0
2385,37.8,10.42,-21.28,0
2386,37.81,4.45,-16.01,0
2387,37.83,-1.37,-6.5,0
2388,37.84,-0.23,-1.9,0
2389,37.85,3.43,2.56,0
2390,37.87,1.33,6.04,0
2391,37.88,-2.44,-0.53,0
2392,37.89,-1.18,-14.87,0
2393,37.9,-1.05,-19.94,0
2394,37.92,-3.57,-14.25,0
2395,37.93,-1.42,-12.43,0
2396,37.95,1.1,-11.42,0
2397,37.96,-2.98,-5.62,0
2398,37.97,-8.63,-9.41,0
2399,37.99,-10.43,-25.36,0
2400,38.0,-5.03,-35.03,0
2401,38.01,7.0,-30.58,0
2402,38.03,14.48,-18.38,0
2403,38.04,13.37,-5.58,0
2404,38.05,13.15,-2.54,0
2405,38.06,13.69,-11.08,0
2406,38.08,7.93,-17.85,0
2407,38.09,-2.15,-18.31,0
2408,38.11,-6.68,-18.17,0
2409,38.12,0.01,-16.59,0
2410,38.13,7.24,-14.25,0
2411,38.15,4.21,-16.11,0
2412,38.16,-1.49,-21.17,0
2413,38.17,-1.11,-19.57,0
2414,38.19,0.71,-7.79,0
2415,38.2,0.34,0.13,0
2416,38.21,3.54,-3.12,0
2417,38.22,10.8,-7.18,0
2418,38.24,12.53,6.53,0
2419,38.25,8.57,43.65,0
2420,38.27,14.77,64.15,0
2421,38.28,25.7,44.12,0
2422,38.29,10.05,32.01,0
2423,38.31,-26.91,45.81,0
2424,38.32,-37.22,57.42,0
2425,38.33,-6.22,88.88,0
2426,38.35,19.94,130.97,0
2427,38.36,5.23,99.8,0
2428,38.37,-22.81,-16.03,0
2429,38.38,-21.8,-102.72,0
2430,38.4,18.21,-30.14,0
2431,38.41,62.53,114.49,0
2432,38.43,37.88,92.18,0
2433,38.44,-34.89,-61.37,0
2434,38.45,-37.93,-112.84,0
2435,38.47,9.43,-52.55,0
2436,38.48,4.77,-30.29,0
2437,38.49,-19.92,-57.38,0
2438,38.51,-12.5,-54.94,0
2439,38.52,-6.0,-43.11,0
2440,38.53,-9.63,-62.13,0
2441,38.54,-2.76,-92.64,0
2442,38.56,2.4,-127.02,0
2443,38.57,-0.81,-144.32,0
2444,38.59,7.26,-122.65,0
2445,38.6,18.95,-93.48,0
2446,38.61,4.93,-74.18,0
2447,38.63,-21.67,-47.15,0
2448,38.64,-26.44,-20.65,0
2449,38.65,-14.9,-22.46,0
2450,38.67,-10.81,-30.92,0
2451,38.68,-16.07,-7.13,0
2452,38.69,-17.24,8.04,0
2453,38.71,-3.04,-9.59,0
2454,38.72,21.05,-8.47,0
2455,38.73,31.31,6.38,0
2456,38.75,14.81,-7.51,0
2457,38.76,-5.57,-29.91,0
2458,38.77,-9.01,-23.63,0
2459,38.79,-8.11,2.09,0
2460,38.8,-5.04,12.24,0
2461,38.81,8.89,-4.41,0
2462,38.83,14.12,-33.58,0
2463,38.84,-0.14,-50.91,0
2464,38.85,-13.68,-40.25,0
2465,38.87,-17.98,-15.48,0
2466,38.88,-16.11,14.1,0
2467,38.89,1.05,36.43,0
2468,38.9,26.36,21.7,0
2469,38.92,25.72,14.26,0
2470,38.93,0.63,54.15,0
2471,38.95,-8.73,74.12,0
2472,38.96,1.27,39.14,0
2473,38.97,7.03,-22.16,0
2474,38.99,9.54,-70.22,0
2475,39.0,17.7,-45.96,0
2476,39.01,24.8,24.97,0
2477,39.03,12.08,41.37,0
2478,39.04,-16.84,-3.55,0
2479,39.05,-27.65,-36.0,0
2480,39.06,-12.52,-19.2,0
2481,39.08,2.73,23.06,0
2482,39.09,5.23,40.1,0
2483,39.11,0.01,19.77,0
2484,39.12,-2.01,-0.19,0
2485,39.13,0.97,11.31,0
2486,39.15,0.33,46.22,0
2487,39.16,0.54,64.72,0
2488,39.17,5.01,34.08,0
2489,39.19,3.57,-12.38,0
2490,39.2,1.74,-7.97,0
2491,39.21,7.11,25.74,0
2492,39.22,1.59,27.54,0
2493,39.24,-18.7,18.67,0
2494,39.25,-19.4,21.82,0
2495,39.27,12.02,14.92,0
2496,39.28,30.42,17.44,0
2497,39.29,5.27,39.18,0
2498,39.31,-24.62,41.73,0
2499,39.32,-13.68,32.13,0
2500,39.33,16.08,33.44,0
2501,39.35,11.37,23.23,0
2502,39.36,-18.29,-5.09,0
2503,39.37,-15.93,-6.63,0
2504,39.38,14.44,37.74,0
2505,39.4,17.82,61.74,0
2506,39.41,-5.68,30.43,0
2507,39.43,-7.21,13.13,0
2508,39.44,9.96,34.64,0
2509,39.45,2.14,31.33,0
2510,39.47,-17.07,-4.39,0
2511,39.48,-12.72,-13.07,0
2512,39.49,-3.14,6.41,0
2513,39.51,-8.41,4.18,0
2514,39.52,-10.1,-8.16,0
2515,39.53,0.44,-5.59,0
2516,39.54,4.31,-31.64,0
2517,39.56,-7.07,-56.47,0
2518,39.57,-19.31,6.19,0
2519,39.59,-20.23,77.82,0
2520,39.6,-7.09,70.9,0
2521,39.61,12.6,58.07,0
2522,39.63,20.79,61.56,0
2523,39.64,17.56,27.15,0
2524,39.65,17.12,-2.03,0
2525,39.67,16.92,19.68,0
2526,39.68,8.47,12.04,0
2527,39.69,-8.11,-49.23,0
2528,39.71,-15.97,-58.29,0
2529,39.72,1.4,-12.53,0
2530,39.73,19.58,-8.24,0
2531,39.75,12.98,-26.26,0
2532,39.76,0.37,-5.71,0
2533,39.77,1.68,14.22,0
2534,39.79,6.19,15.32,0
2535,39.8,-4.13,42.55,0
2536,39.81,-21.56,61.18,0
2537,39.83,-19.92,29.39,0
2538,39.84,-2.36,10.18,0
2539,39.85,-0.27,24.16,0
2540,39.87,-12.06,15.92,0
2541,39.88,-6.91,-1.31,0
2542,39.89,7.67,17.58,0
2543,39.9,-3.22,36.27,0
2544,39.92,-25.95,1.01,0
2545,39.93,-15.95,-47.55,0
2546,39.95,19.31,-32.03,0
2547,39.96,35.05,26.22,0
2548,39.97,25.69,44.29,0
2549,39.99,15.31,18.68,0
2550,40.0,6.95,8.03,0
2551,40.01,-8.08,29.35,0
2552,40.03,-20.57,32.16,0
2553,40.04,-18.08,-24.05,0
2554,40.05,-6.76,-69.28,0
2555,40.07,2.32,-37.31,0
2556,40.08,6.18,12.18,0
2557,40.09,1.66,16.1,0
2558,40.11,-8.69,-25.1,0
2559,40.12,-11.71,-52.08,0
2560,40.13,-4.18,2.04,0
2561,40.15,-3.37,68.0,0
2562,40.16,-14.95,49.72,0
2563,40.17,-18.81,5.64,0
2564,40.19,-7.84,-5.98,0
2565,40.2,5.44,-26.51,0
2566,40.21,10.15,-54.52,0
2567,40.22,2.88,-61.89,0
2568,40.24,1.3,-91.05,0
2569,40.25,16.02,-142.47,0
2570,40.27,16.72,-135.98,0
2571,40.28,-6.38,-90.66,0
2572,40.29,-14.88,-105.98,0
2573,40.31,1.66,-170.08,0
2574,40.32,16.46,-197.98,0
2575,40.33,15.16,-170.15,0
2576,40.35,0.78,-119.34,0
2577,40.36,-8.66,-64.45,0
2578,40.37,-3.93,-11.56,0
2579,40.38,0.3,25.22,0
2580,40.4,4.77,43.18,0
2581,40.41,18.28,58.35,0
2582,40.43,21.78,73.92,0
2583,40.44,2.95,79.64,0
2584,40.45,-12.37,77.39,0
2585,40.47,-6.14,78.85,0
2586,40.48,3.6,85.88,0
2587,40.49,3.29,89.83,0
2588,40.51,-0.52,87.31,0
2589,40.52,0.53,82.62,0
2590,40.53,7.81,81.43,0
2591,40.54,10.34,79.65,0
2592,40.56,0.78,67.88,0
2593,40.57,-7.51,55.68,0
2594,40.59,-6.92,54.7,0
2595,40.6,-4.33,52.68,0
2596,40.61,2.62,43.65,0
2597,40.63,13.45,40.64,0
2598,40.64,9.86,44.47,0
2599,40.65,-4.32,43.37,0
2600,40.67,0.6,37.29,0
2601,40.68,18.52,32.07,0
2602,40.69,16.88,27.32,0
2603,40.71,0.52,23.14,0
2604,40.72,-6.43,19.04,0
2605,40.73,-5.88,11.79,0
2606,40.75,-6.67,7.26,0
2607,40.76,-6.06,12.23,0
2608,40.77,-4.77,18.01,0
2609,40.79,-5.69,16.1,0
2610,40.8,-4.96,12.47,0
2611,40.81,-1.08,10.36,0
2612,40.83,-1.75,3.17,0
2613,40.84,-7.72,-5.76,0
2614,40.85,-7.14,-5.49,0
2615,40.87,-2.91,-1.25,0
2616,40.88,-3.25,-1.53,0
2617,40.89,3.31,0.49,0
2618,40.9,12.0,7.48,0
2619,40.92,2.19,9.69,0
2620,40.93,-12.26,2.52,0
2621,40.95,-10.25,-8.97,0
2622,40.96,-4.16,-13.59,0
2623,40.97,-5.19,-8.22,0
2624,40.99,-5.14,-8.47,0
2625,41.0,-0.52,-17.26,0
2626,41.01,4.77,-16.06,0
2627,41.03,6.79,-8.95,0
2628,41.04,4.96,-16.05,0
2629,41.05,8.02,-27.33,0
2630,41.06,14.54,-20.97,0
2631,41.08,6.83,-6.94,0
2632,41.09,-9.66,-10.23,0
2633,41.11,-12.34,-22.98,0
2634,41.12,-3.17,-17.8,0
2635,41.13,1.67,-2.63,0
2636,41.15,-4.46,-4.69,0
2637,41.16,-14.21,-17.03,0
2638,41.17,-14.7,-16.6,0
2639,41.19,-7.27,-7.37,0
2640,41.2,1.54,-9.4,0
2641,41.21,9.33,-22.41,0
2642,41.22,5.3,-31.55,0
2643,41.24,-8.5,-35.54,0
2644,41.25,-8.94,-34.92,0
2645,41.27,6.07,-26.72,0
2646,41.28,11.75,-22.21,0
2647,41.29,4.04,-28.62,0
2648,41.31,2.53,-34.61,0
2649,41.32,9.49,-34.56,0
2650,41.33,10.8,-32.18,0
2651,41.35,5.16,-26.19,0
2652,41.36,1.69,-17.3,0
2653,41.37,3.08,-12.38,0
2654,41.38,5.91,-12.75,0
2655,41.4,6.46,-12.98,0
2656,41.41,0.52,-13.08,0
2657,41.43,-7.97,-17.87,0
2658,41.44,-7.11,-21.69,0
2659,41.45,3.07,-16.31,0
2660,41.47,6.66,-9.75,0
2661,41.48,-4.73,-10.79,0
2662,41.49,-16.06,-11.3,0
2663,41.51,-12.46,-9.27,0
2664,41.52,-3.35,-13.64,0
2665,41.53,0.67,-17.6,0
2666,41.54,3.6,-14.16,0
2667,41.56,5.68,-12.77,0
2668,41.57,6.38,-10.65,0
2669,41.59,11.73,-3.65,0
2670,41.6,13.11,-8.52,0
2671,41.61,-1.76,-19.57,0
2672,41.63,-15.23,-7.68,0
2673,41.64,-10.32,12.35,0
2674,41.65,-3.02,5.3,0
2675,41.67,-3.87,-12.45,0
2676,41.68,1.37,-11.34,0
2677,41.69,15.58,-1.46,0
2678,41.71,17.6,3.88,0
2679,41.72,-2.31,5.49,0
2680,41.73,-23.36,0.65,0
2681,41.75,-27.5,-5.45,0
2682,41.76,-18.65,-4.57,0
2683,41.77,-6.67,1.1,0
2684,41.79,3.26,6.69,0
2685,41.8,11.52,5.21,0
2686,41.81,15.0,-4.36,0
2687,41.83,8.22,-11.38,0
2688,41.84,-4.49,-6.9,0
2689,41.85,-12.74,6.91,0
2690,41.87,-10.22,12.61,0
2691,41.88,0.22,1.53,0
2692,41.89,9.2,-4.77,0
2693,41.9,9.4,4.49,0
2694,41.92,2.33,11.1,0
2695,41.93,-3.63,9.54,0
2696,41.95,-6.71,8.24,0
2697,41.96,-9.96,6.64,0
2698,41.97,-8.04,6.46,0
2699,41.99,1.65,12.09,0
2700,42.0,7.55,17.64,0
2701,42.01,1.68,15.58,0
2702,42.03,-6.13,7.43,0
2703,42.04,-4.44,-2.52,0
2704,42.05,0.7,-9.88,0
2705,42.06,0.22,-8.38,0
2706,42.08,1.62,-0.39,0
2707,42.09,7.89,4.46,0
2708,42.11,3.54,7.56,0
2709,42.12,-10.99,12.97,0
2710,42.13,-14.58,13.41,0
2711,42.15,-6.77,3.87,0
2712,42.16,-4.24,-7.75,0
2713,42.17,-6.81,-12.63,0
2714,42.19,-6.51,-28.88,0
2715,42.2,-2.52,-79.64,0
2716,42.21,8.19,-131.82,0
2717,42.22,24.32,-141.89,0
2718,42.24,29.9,-132.34,0
2719,42.25,24.29,-143.05,0
2720,42.27,29.97,-160.1,0
2721,42.28,41.8,-142.39,0
2722,42.29,33.25,-92.84,0
2723,42.31,14.26,-53.3,0
2724,42.32,7.25,-31.21,0
2725,42.33,5.51,-1.34,0
2726,42.35,-3.74,32.78,0
2727,42.36,-17.02,49.04,0
2728,42.37,-23.05,53.65,0
2729,42.38,-19.04,68.07,0
2730,42.4,-11.69,95.32,0
2731,42.41,-9.69,121.13,0
2732,42.43,-17.68,132.46,0
2733,42.44,-25.24,128.69,0
2734,42.45,-23.64,125.72,0
2735,42.47,-19.99,142.4,0
2736,42.48,-16.39,168.04,0
2737,42.49,-12.02,172.19,0
2738,42.51,-12.21,153.82,0
2739,42.52,-10.05,137.81,0
2740,42.53,1.24,131.44,0
2741,42.54,7.5,124.14,0
2742,42.56,-1.32,112.79,0
2743,42.57,-12.09,100.06,0
2744,42.59,-11.0,85.59,0
2745,42.6,1.25,73.9,0
2746,42.61,14.13,68.1,0
2747,42.63,17.15,63.45,0
2748,42.64,12.58,54.89,0
2749,42.65,10.04,42.8,0
2750,42.66,10.12,34.79,0
2751,42.68,9.83,32.59,0
2752,42.69,7.38,27.92,0
2753,42.71,-0.23,20.42,0
2754,42.72,-9.97,15.4,0
2755,42.73,-14.44,10.31,0
2756,42.75,-9.18,2.77,0
2757,42.76,3.16,-5.61,0
2758,42.77,10.58,-13.96,0
2759,42.79,7.0,-20.02,0
2760,42.8,5.71,-24.17,0
2761,42.81,11.57,-34.02,0
2762,42.83,7.52,-47.82,0
2763,42.84,-1.93,-51.42,0
2764,42.85,9.99,-45.25,0
2765,42.87,34.92,-39.04,0
2766,42.88,39.34,-31.79,0
2767,42.89,18.5,-27.13,0
2768,42.9,-5.55,-31.49,0
2769,42.92,-15.36,-35.0,0
2770,42.93,-7.49,-33.53,0
2771,42.95,5.65,-36.79,0
2772,42.96,6.19,-41.56,0
2773,42.97,-4.36,-40.66,0
2774,42.99,-9.46,-37.65,0
2775,43.0,-5.63,-35.28,0
2776,43.01,-3.75,-38.0,0
2777,43.03,-12.42,-44.47,0
2778,43.04,-20.72,-42.61,0
2779,43.05,-8.31,-34.47,0
2780,43.06,12.91,-30.59,0
2781,43.08,12.72,-31.63,0
2782,43.09,-3.0,-39.29,0
2783,43.11,-9.19,-51.96,0
2784,43.12,-7.78,-55.98,0
2785,43.13,-12.01,-49.97,0
2786,43.15,-15.98,-45.54,0
2787,43.16,-4.76,-41.56,0
2788,43.17,15.69,-37.12,0
2789,43.19,20.63,-42.86,0
2790,43.2,6.14,-50.49,0
2791,43.21,-6.01,-40.7,0
2792,43.22,-7.96,-24.57,0
2793,43.24,-11.37,-23.69,0
2794,43.25,-17.35,-32.92,0
2795,43.27,-13.27,-38.52,0
2796,43.28,3.65,-38.22,0
2797,43.29,17.39,-34.71,0
2798,43.3,13.11,-30.45,0
2799,43.32,-0.38,-25.97,0
2800,43.33,-5.13,-22.76,0
2801,43.35,-2.23,-23.99,0
2802,43.36,-3.98,-27.33,0
2803,43.37,-11.57,-25.33,0
2804,43.38,-13.48,-16.76,0
2805,43.4,-7.46,-11.34,0
2806,43.41,-6.73,-20.05,0
2807,43.43,-9.7,-33.94,0
2808,43.44,0.75,-28.51,0
2809,43.45,15.59,-7.86,0
2810,43.47,11.64,-1.03,0
2811,43.48,-0.05,-11.03,0
2812,43.49,-0.64,-14.97,0
2813,43.51,1.55,-4.28,0
2814,43.52,5.82,3.88,0
2815,43.53,16.86,0.76,0
2816,43.54,14.34,-0.78,0
2817,43.56,-5.04,1.5,0
2818,43.57,-12.65,1.35,0
2819,43.59,-3.51,3.27,0
2820,43.6,0.05,8.99,0
2821,43.61,-5.57,13.18,0
2822,43.63,-6.19,10.07,0
2823,43.64,-7.03,0.53,0
2824,43.65,-15.21,-2.73,0
2825,43.67,-10.33,4.15,0
2826,43.68,7.35,8.68,0
2827,43.69,7.7,7.91,0
2828,43.71,-4.79,7.88,0
2829,43.72,-4.48,5.54,0
2830,43.73,4.15,0.33,0
2831,43.75,6.53,0.46,0
2832,43.76,5.88,6.08,0
2833,43.77,8.75,7.64,0
2834,43.79,13.27,3.54,0
2835,43.8,13.31,4.38,0
2836,43.81,5.6,11.84,0
2837,43.83,-3.75,12.99,0
2838,43.84,-6.93,6.48,0
2839,43.85,-5.13,2.89,0
2840,43.87,-4.4,3.8,0
2841,43.88,-4.72,6.56,0
2842,43.89,4.0,10.12,0
2843,43.9,22.21,11.47,0
2844,43.92,29.16,14.13,0
2845,43.93,14.65,21.15,0
2846,43.94,-4.71,24.79,0
2847,43.96,-10.47,21.69,0
2848,43.97,-3.35,19.27,0
2849,43.99,-0.35,23.35,0
2850,44.0,-7.28,29.34,0
2851,44.01,-11.61,27.21,0
2852,44.03,-7.45,19.19,0
2853,44.04,1.72,18.55,0
2854,44.05,9.4,23.67,0
2855,44.06,4.69,22.0,0
2856,44.08,-9.13,17.0,0
2857,44.09,-13.7,20.59,0
2858,44.11,-5.91,35.04,0
2859,44.12,1.52,66.29,0
2860,44.13,4.47,132.47,0
2861,44.15,5.45,227.26,0
2862,44.16,8.2,302.1,0
2863,44.17,18.1,317.17,0
2864,44.19,23.1,273.26,0
2865,44.2,7.1,196.16,0
2866,44.21,-18.61,122.89,0
2867,44.22,-36.38,68.65,0
2868,44.24,-45.07,10.14,0
2869,44.25,-46.1,-54.93,0
2870,44.27,-36.3,-97.23,0
2871,44.28,-17.55,-120.05,0
2872,44.29,0.16,-147.57,0
2873,44.31,11.2,-178.07,0
2874,44.32,14.22,-190.08,0
2875,44.33,7.06,-172.26,0
2876,44.35,-1.07,-149.41,0
2877,44.36,4.45,-153.56,0
2878,44.37,19.23,-164.53,0
2879,44.38,25.68,-143.73,0
2880,44.4,19.23,-108.65,0
2881,44.41,11.1,-98.62,0
2882,44.43,8.83,-104.06,0
2883,44.44,10.33,-93.75,0
2884,44.45,15.3,-71.16,0
2885,44.47,18.52,-60.97,0
2886,44.48,8.77,-67.9,0
2887,44.49,-0.13,-73.75,0
2888,44.51,12.43,-67.51,0
2889,44.52,25.64,-56.66,0
2890,44.53,15.37,-49.07,0
2891,44.54,-2.11,-42.66,0
2892,44.56,-8.64,-34.27,0
2893,44.57,-7.71,-25.46,0
2894,44.58,-3.89,-17.06,0
2895,44.6,-0.61,-10.27,0
2896,44.61,-4.44,-9.26,0
2897,44.625,-11.83,-11.54,0
2898,44.64,-12.37,-7.74,0
2899,44.65,-5.72,6.77,0
2900,44.67,1.11,23.61,0
2901,44.68,8.85,28.55,0
2902,44.69,16.21,23.07,0
2903,44.71,8.86,21.34,0
2904,44.72,-12.13,24.09,0
2905,44.73,-22.46,20.44,0
2906,44.75,-12.43,14.96,0
2907,44.76,0.87,20.68,0
2908,44.77,6.27,31.94,0
2909,44.79,10.49,37.33,0
2910,44.8,14.75,41.8,0
2911,44.81,11.1,47.47,0
2912,44.83,-0.29,45.78,0
2913,44.84,-9.72,38.86,0
2914,44.85,-11.71,36.95,0
2915,44.87,-10.84,37.53,0
2916,44.88,-8.54,36.47,0
2917,44.89,-3.48,37.19,0
2918,44.9,-3.38,38.85,0
2919,44.92,-6.94,39.33,0
2920,44.93,-3.03,40.61,0
2921,44.95,2.39,42.99,0
2922,44.96,-1.8,41.85,0
2923,44.97,-5.96,33.61,0
2924,44.99,-0.63,23.69,0
2925,45.0,1.73,21.72,0
2926,45.01,-5.65,29.27,0
2927,45.03,-5.07,39.04,0
2928,45.04,7.97,38.56,0
2929,45.05,10.94,28.54,0
2930,45.06,0.11,24.55,0
2931,45.08,-6.36,29.11,0
2932,45.09,-5.77,33.07,0
2933,45.11,-3.26,33.92,0
2934,45.12,2.28,32.12,0
2935,45.13,7.3,30.72,0
2936,45.15,5.78,31.41,0
2937,45.16,0.33,26.8,0
2938,45.17,-2.33,16.32,0
2939,45.19,-2.69,12.63,0
2940,45.2,-5.06,20.34,0
2941,45.21,-4.23,28.44,0
2942,45.22,4.43,26.93,0
2943,45.24,10.66,20.29,0
2944,45.25,5.25,16.57,0
2945,45.26,-3.33,13.75,0
2946,45.28,-6.41,8.43,0
2947,45.29,-9.02,4.13,0
2948,45.31,-13.81,3.89,0
2949,45.32,-13.43,4.13,0
2950,45.33,-9.22,3.63,0
2951,45.35,-10.38,5.89,0
2952,45.36,-12.42,6.41,0
2953,45.37,-3.66,1.94,0
2954,45.38,12.47,1.47,0
2955,45.4,21.64,8.8,0
2956,45.41,21.11,13.39,0
2957,45.43,19.16,9.94,0
2958,45.44,15.86,5.61,0
2959,45.45,5.76,0.68,0
2960,45.47,-7.82,-6.94,0
2961,45.48,-10.0,-7.5,0
2962,45.49,3.09,-3.47,0
2963,45.51,8.89,-4.4,0
2964,45.52,-5.24,-2.98,0
2965,45.53,-18.62,0.84,0
2966,45.54,-17.88,-4.62,0
2967,45.56,-11.49,-12.75,0
2968,45.57,-3.26,-11.54,0
2969,45.59,4.92,-8.6,0
2970,45.6,5.4,-13.2,0
2971,45.61,-2.45,-18.76,0
2972,45.63,-10.44,-17.25,0
2973,45.64,-9.66,-12.59,0
2974,45.65,1.67,-13.87,0
2975,45.67,11.41,-20.37,0
2976,45.68,4.7,-22.0,0
2977,45.69,-9.41,-15.58,0
2978,45.71,-10.47,-7.8,0
2979,45.72,-3.61,-6.21,0
2980,45.73,-4.99,-11.54,0
2981,45.75,-7.68,-16.36,0
2982,45.76,-1.35,-18.02,0
2983,45.77,4.98,-18.9,0
2984,45.79,4.02,-13.59,0
2985,45.8,0.45,-5.24,0
2986,45.81,-1.51,-9.45,0
2987,45.83,-0.75,-18.61,0
2988,45.84,5.49,-14.89,0
2989,45.85,12.9,-9.19,0
2990,45.86,4.6,-12.69,0
2991,45.88,-17.12,-14.12,0
2992,45.89,-21.26,-7.91,0
2993,45.9,-1.87,-5.76,0
2994,45.92,8.5,-18.36,0
2995,45.93,-2.75,-30.16,0
2996,45.95,-10.84,-22.6,0
2997,45.96,-3.16,-12.99,0
2998,45.97,1.17,-16.0,0
2999,45.99,-7.45,-20.17,0
3000,46.0,-4.58,-20.86,0
3001,46.01,15.71,-16.55,0
3002,46.03,20.36,-9.82,0
3003,46.04,8.67,-10.46,0
3004,46.05,7.6,-9.76,0
3005,46.06,6.34,-5.24,0
3006,46.08,-5.18,-15.23,0
3007,46.09,-8.83,-28.74,0
3008,46.11,-3.71,-21.58,0
3009,46.12,1.9,-5.49,0
3010,46.13,7.95,0.37,0
3011,46.15,5.61,-2.29,0
3012,46.16,-4.97,-9.72,0
3013,46.17,-4.07,-17.77,0
3014,46.19,11.85,-18.2,0
3015,46.2,23.69,-8.9,0
3016,46.21,16.16,10.88,0
3017,46.22,-6.29,43.1,0
3018,46.24,-17.55,50.57,0
3019,46.25,-0.67,9.1,0
3020,46.27,27.93,53.32,0
3021,46.28,44.8,241.65,0
3022,46.29,42.64,329.35,0
3023,46.31,21.5,171.72,0
3024,46.32,-16.25,-29.97,0
3025,46.33,-53.25,-38.42,0
3026,46.35,-44.84,78.42,0
3027,46.36,16.77,64.64,0
3028,46.37,39.77,-56.08,0
3029,46.38,-9.37,-78.07,0
3030,46.4,-28.5,-39.62,0
3031,46.41,-1.89,-75.44,0
3032,46.43,-3.0,-158.34,0
3033,46.44,-16.23,-185.48,0
3034,46.45,-10.75,-143.84,0
3035,46.47,-4.28,-102.82,0
3036,46.48,3.08,-70.88,0
3037,46.49,18.47,-23.8,0
3038,46.5,27.06,2.48,0
3039,46.52,12.29,-23.46,0
3040,46.53,-10.52,-81.53,0
3041,46.54,-16.9,-112.24,0
3042,46.56,-10.67,-60.38,0
3043,46.57,-0.9,21.34,0
3044,46.59,4.38,26.9,0
3045,46.6,-2.31,-20.67,0
3046,46.61,-6.71,-36.78,0
3047,46.63,-5.05,-29.64,0
3048,46.64,-10.49,-32.23,0
3049,46.65,-6.88,-33.21,0
3050,46.67,9.57,-15.11,0
3051,46.68,3.19,17.43,0
3052,46.69,-14.46,23.63,0
3053,46.71,1.07,-23.49,0
3054,46.72,28.34,-65.28,0
3055,46.73,23.98,-44.46,0
3056,46.75,-0.95,3.39,0
3057,46.76,-14.48,35.02,0
3058,46.77,-5.83,37.44,0
3059,46.79,6.82,-3.82,0
3060,46.8,3.76,-56.09,0
3061,46.81,-3.97,-68.25,0
3062,46.83,-6.04,-47.01,0
3063,46.84,-4.67,-20.72,0
3064,46.85,4.8,2.68,0
3065,46.87,8.9,25.51,0
3066,46.88,-10.79,29.91,0
3067,46.89,-31.99,16.43,0
3068,46.9,-22.11,50.03,0
3069,46.92,9.36,111.04,0
3070,46.93,24.18,81.64,0
3071,46.95,7.2,-8.18,0
3072,46.96,-19.21,-24.55,0
3073,46.97,-21.75,14.53,0
3074,46.99,6.11,12.39,0
3075,47.0,28.23,-5.27,0
3076,47.01,20.53,17.37,0
3077,47.03,5.21,30.66,0
3078,47.04,-1.76,3.55,0
3079,47.05,-9.65,-12.27,0
3080,47.06,-15.9,-5.39,0
3081,47.08,-4.53,4.45,0
3082,47.09,16.38,19.5,0
3083,47.11,17.8,15.81,0
3084,47.12,1.18,-17.98,0
3085,47.13,-6.27,-27.64,0
3086,47.14,-3.17,4.1,0
3087,47.16,-3.48,5.62,0
3088,47.17,-3.39,-28.92,0
3089,47.18,-0.58,-18.17,0
3090,47.2,4.39,27.7,0
3091,47.21,19.01,34.23,0
3092,47.22,26.16,10.54,0
3093,47.24,0.32,14.74,0
3094,47.25,-29.54,43.78,0
3095,47.27,-22.84,34.42,0
3096,47.28,3.32,-7.3,0
3097,47.29,17.95,1.36,0
3098,47.31,16.45,34.81,0
3099,47.32,2.43,-4.19,0
3100,47.33,-11.38,-61.53,0
3101,47.35,-7.65,-17.03,0
3102,47.36,10.06,75.23,0
3103,47.37,17.04,73.81,0
3104,47.38,-0.96,4.21,0
3105,47.4,-21.83,-6.91,0
3106,47.41,-18.09,28.06,0
3107,47.43,1.5,17.29,0
3108,47.44,13.0,-12.12,0
3109,47.45,12.43,10.11,0
3110,47.47,10.72,43.24,0
3111,47.48,6.75,23.56,0
3112,47.49,-6.0,-21.78,0
3113,47.51,-15.9,-27.07,0
3114,47.52,-14.1,34.51,0
3115,47.53,-10.9,96.58,0
3116,47.54,-10.27,73.07,0
3117,47.56,-9.14,25.29,0
3118,47.57,-6.34,43.14,0
3119,47.59,7.44,59.41,0
3120,47.6,20.04,18.44,0
3121,47.61,4.34,-29.08,0
3122,47.63,-19.38,-37.97,0
3123,47.64,-16.78,13.7,0
3124,47.65,4.7,71.07,0
3125,47.67,19.49,44.56,0
3126,47.68,8.51,-10.24,0
3127,47.69,-16.83,-7.91,0
3128,47.71,-20.66,-4.46,0
3129,47.72,-3.26,-27.34,0
3130,47.73,3.95,-7.67,0
3131,47.75,-5.78,48.51,0
3132,47.76,-12.52,65.59,0
3133,47.77,-7.44,26.08,0
3134,47.78,-4.0,-13.31,0
3135,47.8,-1.75,-11.55,0
3136,47.81,11.21,5.63,0
3137,47.82,21.32,8.5,0
3138,47.84,11.83,8.65,0
3139,47.85,-6.58,17.49,0
3140,47.86,-14.38,24.06,0
3141,47.88,-6.72,27.39,0
3142,47.89,4.71,26.22,0
3143,47.9,9.4,25.17,0
3144,47.92,6.1,41.42,0
3145,47.93,-2.65,29.32,0
3146,47.95,-12.38,-48.56,0
3147,47.96,-17.16,-98.9,0
3148,47.97,-9.51,-48.65,0
3149,47.99,9.45,17.55,0
3150,48.0,23.15,13.51,0
3151,48.01,15.21,-15.63,0
3152,48.03,-4.7,-16.78,0
3153,48.04,-8.31,-16.71,0
3154,48.05,8.24,-14.52,0
3155,48.06,17.02,20.98,0
3156,48.08,-0.41,58.66,0
3157,48.09,-24.93,55.8,0
3158,48.11,-24.34,0.46,0
3159,48.12,-6.07,-72.93,0
3160,48.13,-5.1,-70.6,0
3161,48.15,-14.37,0.25,0
3162,48.16,-3.76,18.15,0
3163,48.17,7.9,-20.76,0
3164,48.19,-2.69,-46.21,0
3165,48.2,-9.63,-64.4,0
3166,48.21,2.34,-68.01,0
3167,48.22,9.16,-44.05,0
3168,48.24,2.66,-58.15,0
3169,48.25,4.26,-129.87,0
3170,48.27,15.06,-183.92,0
3171,48.28,14.12,-180.65,0
3172,48.29,8.72,-144.53,0
3173,48.31,16.53,-109.4,0
3174,48.32,23.07,-88.77,0
3175,48.33,15.13,-61.32,0
3176,48.35,9.36,-12.34,0
3177,48.36,16.86,31.96,0
3178,48.37,21.25,49.67,0
3179,48.38,11.62,53.93,0
3180,48.4,-2.11,59.9,0
3181,48.41,-15.19,63.81,0
3182,48.42,-23.47,60.11,0
3183,48.44,-15.92,53.73,0
3184,48.45,-0.33,47.42,0
3185,48.46,5.6,37.06,0
3186,48.48,2.43,31.33,0
3187,48.49,2.79,42.54,0
3188,48.5,12.41,58.24,0
3189,48.52,17.16,61.63,0
3190,48.53,4.73,57.42,0
3191,48.54,-9.89,53.86,0
3192,48.56,-12.2,47.1,0
3193,48.57,-5.42,30.28,0
3194,48.59,1.73,15.16,0
3195,48.6,3.28,20.64,0
3196,48.61,7.43,35.58,0
3197,48.63,11.5,39.87,0
3198,48.64,-3.57,41.07,0
3199,48.65,-25.2,48.29,0
3200,48.67,-31.22,51.67,0
3201,48.68,-21.94,42.71,0
3202,48.69,-2.31,32.0,0
3203,48.71,10.32,32.13,0
3204,48.72,0.38,36.68,0
3205,48.73,-12.63,38.75,0
3206,48.75,-3.4,39.62,0
3207,48.76,8.73,36.63,0
3208,48.77,-5.48,31.81,0
3209,48.79,-23.45,27.28,0
3210,48.8,-13.78,19.07,0
3211,48.81,7.17,9.81,0
3212,48.83,11.59,4.14,0
3213,48.84,3.36,2.89,0
3214,48.85,-2.91,5.56,0
3215,48.87,-6.3,9.19,0
3216,48.88,-3.5,11.97,0
3217,48.89,6.65,9.54,0
3218,48.9,8.19,-1.51,0
3219,48.92,-2.88,-9.04,0
3220,48.93,-9.15,-6.25,0
3221,48.95,-5.14,-6.55,0
3222,48.96,3.88,-12.89,0
3223,48.97,17.36,-12.56,0
3224,48.99,23.5,-6.22,0
3225,49.0,9.97,-6.3,0
3226,49.01,-7.85,-11.0,0
3227,49.03,-11.99,-9.11,0
3228,49.04,-4.79,-5.5,0
3229,49.05,2.76,-13.25,0
3230,49.06,0.38,-25.45,0
3231,49.08,-8.11,-27.94,0
3232,49.09,-6.45,-27.1,0
3233,49.1,8.29,-30.15,0
3234,49.12,21.51,-28.02,0
3235,49.13,18.22,-20.71,0
3236,49.14,2.25,-18.54,0
3237,49.16,-4.7,-21.83,0
3238,49.17,-1.41,-27.33,0
3239,49.19,-3.14,-32.69,0
3240,49.2,2.08,-31.94,0
3241,49.21,16.43,-25.22,0
3242,49.22,7.56,-20.47,0
3243,49.24,-17.43,-20.76,0
3244,49.25,-18.85,-22.18,0
3245,49.27,-3.65,-22.56,0
3246,49.28,-1.57,-25.48,0
3247,49.29,-10.77,-32.39,0
3248,49.31,-14.61,-35.17,0
3249,49.32,-6.21,-28.77,0
3250,49.33,5.32,-21.52,0
3251,49.35,7.02,-16.24,0
3252,49.36,10.28,-10.2,0
3253,49.37,22.23,-11.18,0
3254,49.38,15.84,-19.06,0
3255,49.4,-9.01,-18.59,0
3256,49.41,-20.08,-11.8,0
3257,49.43,-19.02,-12.85,0
3258,49.44,-11.56,-15.67,0
3259,49.45,14.01,-12.88,0
3260,49.47,31.95,-16.59,0
3261,49.48,16.04,-29.16,0
3262,49.49,-3.63,-31.41,0
3263,49.51,-3.91,-17.44,0
3264,49.52,-1.3,-7.43,0
3265,49.53,-5.36,-11.49,0
3266,49.54,-10.53,-11.51,0
3267,49.56,-11.66,1.45,0
3268,49.57,-6.91,7.44,0
3269,49.59,-1.99,-0.88,0
3270,49.6,-3.09,-4.56,0
3271,49.61,-6.5,-2.08,0
3272,49.63,-2.82,-6.86,0
3273,49.64,5.85,-12.92,0
3274,49.65,8.96,-10.19,0
3275,49.67,6.52,-6.82,0
3276,49.68,-1.36,-12.15,0
3277,49.69,-12.27,-15.72,0
3278,49.7,-8.24,-6.68,0
3279,49.72,9.69,1.61,0
3280,49.73,16.99,-1.3,0
3281,49.74,13.9,-1.85,0
3282,49.76,14.27,4.6,0
3283,49.77,10.78,2.87,0
3284,49.78,1.17,-9.93,0
3285,49.8,1.35,-18.19,0
3286,49.81,8.45,-12.09,0
3287,49.83,3.08,1.78,0
3288,49.84,-5.23,11.67,0
3289,49.85,5.38,11.91,0
3290,49.87,16.06,9.11,0
3291,49.88,2.26,13.49,0
3292,49.89,-15.05,18.24,0
3293,49.9,-12.75,11.83,0
3294,49.92,-4.03,2.77,0
3295,49.93,0.15,1.96,0
3296,49.95,3.11,4.23,0
3297,49.96,1.29,6.07,0
3298,49.97,-2.05,11.03,0
3299,49.99,-1.12,17.46,0
3300,50.0,-8.46,21.4,0
3301,50.01,-17.35,17.23,0
3302,50.03,-5.69,4.06,0
3303,50.04,12.75,-3.57,0
3304,50.05,16.54,1.8,0
3305,50.06,10.35,6.76,0
3306,50.08,-2.93,6.9,0
3307,50.09,-16.23,11.27,0
3308,50.11,-14.88,15.16,0
3309,50.12,-6.07,10.1,0
3310,50.13,-2.84,6.36,0
3311,50.15,-3.63,9.56,0
3312,50.16,-3.96,0.16,0
3313,50.17,-0.49,-36.12,0
3314,50.19,3.56,-81.96,0
3315,50.2,3.61,-111.59,0
3316,50.21,8.3,-122.54,0
3317,50.22,19.74,-132.2,0
3318,50.24,24.93,-143.01,0
3319,50.25,18.28,-134.66,0
3320,50.27,10.34,-105.95,0
3321,50.28,16.78,-83.54,0
3322,50.29,27.99,-71.82,0
3323,50.31,16.19,-51.28,0
3324,50.32,-8.13,-22.72,0
3325,50.33,-11.43,2.54,0
3326,50.34,-2.33,26.1,0
3327,50.36,-7.76,48.02,0
3328,50.37,-19.95,62.55,0
3329,50.38,-18.94,72.17,0
3330,50.4,-10.62,87.7,0
3331,50.41,-13.13,110.78,0
3332,50.42,-25.92,123.97,0
3333,50.44,-28.49,114.4,0
3334,50.45,-10.14,103.19,0
3335,50.46,6.18,115.48,0
3336,50.48,-3.09,134.11,0
3337,50.49,-20.14,132.41,0
3338,50.51,-21.32,116.94,0
3339,50.52,-15.55,105.66,0
3340,50.53,-16.27,105.6,0
3341,50.54,-18.95,116.95,0
3342,50.56,-12.69,128.75,0
3343,50.57,1.46,124.14,0
3344,50.59,6.73,106.0,0
3345,50.6,-2.36,92.02,0
3346,50.61,-7.79,84.58,0
3347,50.63,-3.97,77.07,0
3348,50.64,-3.15,69.04,0
3349,50.65,-5.28,58.4,0
3350,50.67,-7.02,45.87,0
3351,50.68,-8.38,37.87,0
3352,50.69,-0.19,33.09,0
3353,50.71,14.03,25.03,0
3354,50.72,18.36,14.34,0
3355,50.73,14.77,7.84,0
3356,50.75,9.35,6.77,0
3357,50.76,1.75,2.66,0
3358,50.77,2.62,-6.6,0
3359,50.79,8.96,-13.59,0
3360,50.8,-1.31,-16.2,0
3361,50.81,-17.64,-14.33,0
3362,50.83,-14.91,-14.12,0
3363,50.84,-4.92,-26.38,0
3364,50.85,-6.27,-37.67,0
3365,50.87,-7.21,-26.3,0
3366,50.88,5.19,-8.39,0
3367,50.89,22.59,-9.71,0
3368,50.9,34.25,-22.85,0
3369,50.92,30.97,-35.99,0
3370,50.93,8.01,-52.5,0
3371,50.95,-11.2,-65.22,0
3372,50.96,-0.51,-61.71,0
3373,50.97,20.35,-49.07,0
3374,50.98,16.22,-41.55,0
3375,51.0,-3.06,-41.97,0
3376,51.01,-3.56,-48.46,0
3377,51.02,9.62,-55.95,0
3378,51.04,8.69,-57.67,0
3379,51.05,-1.94,-57.22,0
3380,51.06,-3.03,-59.08,0
3381,51.08,4.08,-57.95,0
3382,51.09,9.28,-54.17,0
3383,51.1,9.9,-52.15,0
3384,51.12,7.91,-49.09,0
3385,51.13,1.76,-44.82,0
3386,51.15,-8.02,-46.11,0
3387,51.16,-12.12,-53.11,0
3388,51.17,-7.94,-56.71,0
3389,51.19,-4.22,-52.72,0
3390,51.2,-5.6,-47.85,0
3391,51.21,-6.31,-48.21,0
3392,51.22,-0.61,-48.73,0
3393,51.24,6.1,-40.05,0
3394,51.25,8.66,-26.54,0
3395,51.27,6.19,-22.44,0
3396,51.28,-2.22,-27.99,0
3397,51.29,-3.77,-29.88,0
3398,51.31,6.92,-26.43,0
3399,51.32,8.08,-28.96,0
3400,51.33,-7.87,-33.52,0
3401,51.35,-22.79,-26.88,0
3402,51.36,-20.17,-19.52,0
3403,51.37,2.65,-26.45,0
3404,51.38,24.26,-34.06,0
3405,51.4,20.04,-26.03,0
3406,51.41,0.79,-12.39,0
3407,51.43,-3.15,-5.91,0
3408,51.44,12.29,-1.82,0
3409,51.45,19.67,4.27,0
3410,51.47,4.98,3.9,0
3411,51.48,-11.87,-4.27,0
3412,51.49,-15.11,-4.8,0
3413,51.51,-9.58,6.26,0
3414,51.52,-1.73,9.26,0
3415,51.53,3.82,-2.03,0
3416,51.54,3.92,-8.61,0
3417,51.56,2.16,-4.1,0
3418,51.57,3.39,-2.75,0
3419,51.59,7.82,-5.81,0
3420,51.6,7.23,-1.93,0
3421,51.61,-5.42,3.84,0
3422,51.62,-16.45,5.77,0
3423,51.64,-11.99,7.88,0
3424,51.65,-4.89,4.04,0
3425,51.66,-7.45,-2.15,0
3426,51.68,-9.34,3.58,0
3427,51.69,-0.6,11.89,0
3428,51.7,9.81,11.64,0
3429,51.72,14.07,14.8,0
3430,51.73,15.14,23.97,0
3431,51.74,9.9,20.92,0
3432,51.76,-1.59,6.21,0
3433,51.77,-9.42,5.28,0
3434,51.79,-14.5,20.89,0
3435,51.8,-18.08,27.04,0
3436,51.81,-11.83,17.45,0
3437,51.83,1.62,16.75,0
3438,51.84,9.35,28.51,0
3439,51.85,5.76,25.71,0
3440,51.87,-1.73,10.83,0
3441,51.88,0.01,9.9,0
3442,51.89,10.57,19.12,0
3443,51.9,14.48,21.25,0
3444,51.92,5.31,15.26,0
3445,51.93,-5.03,11.08,0
3446,51.95,-4.67,16.2,0
3447,51.96,6.41,19.57,0
3448,51.97,19.13,11.92,0
3449,51.99,19.87,7.15,0
3450,52.0,5.49,11.64,0
3451,52.01,-6.3,14.4,0
3452,52.03,-5.97,14.12,0
3453,52.04,-8.83,20.45,0
3454,52.05,-16.55,31.54,0
3455,52.06,-13.88,31.37,0
3456,52.08,-7.33,17.52,0
3457,52.09,-8.54,6.98,0
3458,52.11,-8.62,4.96,0
3459,52.12,-2.47,4.37,0
3460,52.13,5.9,8.92,0
3461,52.15,15.25,18.9,0
3462,52.16,15.88,19.89,0
3463,52.17,-0.12,9.82,0
3464,52.19,-14.36,13.47,0
3465,52.2,-6.85,62.8,0
3466,52.21,9.84,162.14,0
3467,52.22,9.95,267.39,0
3468,52.24,-4.65,314.76,0
3469,52.25,-6.71,283.19,0
3470,52.26,4.22,210.48,0
3471,52.28,0.24,136.62,0
3472,52.29,-12.8,70.54,0
3473,52.3,-11.43,13.3,0
3474,52.32,-6.94,-35.58,0
3475,52.33,-11.96,-79.16,0
3476,52.34,-15.06,-119.22,0
3477,52.36,-18.41,-156.94,0
3478,52.37,-30.56,-183.46,0
3479,52.38,-33.47,-186.71,0
3480,52.4,-15.98,-172.07,0
3481,52.41,0.87,-152.98,0
3482,52.43,3.73,-140.37,0
3483,52.44,-1.56,-139.71,0
3484,52.45,-9.0,-136.92,0
3485,52.47,-4.76,-116.51,0
3486,52.48,15.83,-93.18,0
3487,52.49,26.2,-85.52,0
3488,52.51,15.83,-81.17,0
3489,52.52,9.87,-67.47,0
3490,52.53,16.77,-55.6,0
3491,52.54,21.71,-53.12,0
3492,52.56,18.39,-52.72,0
3493,52.57,10.46,-45.84,0
3494,52.59,8.32,-30.77,0
3495,52.6,16.97,-18.3,0
3496,52.61,22.46,-20.68,0
3497,52.63,18.3,-31.01,0
3498,52.64,15.67,-30.47,0
3499,52.65,14.51,-17.99,0
3500,52.67,7.35,-10.64,0
3501,52.68,-0.97,-17.28,0
3502,52.69,-4.29,-25.84,0
3503,52.71,-2.59,-18.25,0
3504,52.72,0.87,2.61,0
3505,52.73,-0.02,15.98,0
3506,52.75,-1.64,13.5,0
3507,52.76,3.27,6.58,0
3508,52.77,3.01,8.55,0
3509,52.79,-4.58,22.19,0
3510,52.8,-3.18,36.22,0
3511,52.81,4.24,36.75,0
3512,52.83,5.62,28.83,0
3513,52.84,1.66,28.51,0
3514,52.85,-5.43,34.4,0
3515,52.87,-13.23,32.2,0
3516,52.88,-16.96,22.79,0
3517,52.89,-14.98,22.51,0
3518,52.9,-5.22,35.33,0
3519,52.92,7.75,45.25,0
3520,52.93,9.87,42.57,0
3521,52.94,-0.9,36.96,0
3522,52.96,-9.38,35.8,0
3523,52.97,-5.01,32.83,0
3524,52.98,7.1,26.24,0
3525,53.0,11.02,26.18,0
3526,53.01,-0.36,36.14,0
3527,53.02,-11.38,43.24,0
3528,53.04,-6.18,39.63,0
3529,53.05,3.07,37.28,0
3530,53.06,-0.98,41.25,0
3531,53.08,-6.77,38.28,0
3532,53.09,-1.13,27.36,0
3533,53.11,1.66,21.39,0
3534,53.12,-6.21,19.19,0
3535,53.13,-7.01,15.61,0
3536,53.15,1.61,18.94,0
3537,53.16,-2.67,28.12,0
3538,53.17,-14.82,26.26,0
3539,53.19,-7.44,14.56,0
3540,53.2,9.17,13.38,0
3541,53.21,8.18,21.88,0
3542,53.22,-2.41,22.29,0
3543,53.24,-4.71,15.46,0
3544,53.25,-3.24,15.2,0
3545,53.27,-8.18,20.6,0
3546,53.28,-14.58,18.29,0
3547,53.29,-12.45,7.66,0
3548,53.31,-6.18,5.96,0
3549,53.32,-3.61,17.64,0
3550,53.33,1.0,21.19,0
3551,53.35,9.94,5.59,0
3552,53.36,12.69,-6.79,0
3553,53.37,6.32,0.28,0
3554,53.38,-0.26,12.33,0
3555,53.4,-5.12,14.98,0
3556,53.41,-9.4,11.4,0
3557,53.43,-5.11,8.63,0
3558,53.44,4.35,9.49,0
3559,53.45,4.95,8.31,0
3560,53.47,-0.8,2.68,0
3561,53.48,-3.83,4.88,0
3562,53.49,-4.71,12.68,0
3563,53.51,-4.89,6.23,0
3564,53.52,-3.84,-6.07,0
3565,53.53,-2.81,-1.67,0
3566,53.54,-1.81,7.73,0
3567,53.56,-1.78,0.82,0
3568,53.57,-6.18,-13.66,0
3569,53.58,-11.18,-14.85,0
3570,53.6,-7.42,-1.18,0
3571,53.61,3.36,9.11,0
3572,53.62,7.72,3.11,0
3573,53.64,1.92,-12.69,0
3574,53.65,0.31,-24.61,0
3575,53.66,6.52,-24.12,0
3576,53.68,2.71,-15.16,0
3577,53.69,-8.85,-9.14,0
3578,53.7,-4.02,-5.73,0
3579,53.72,13.11,-0.91,0
3580,53.73,18.73,1.2,0
3581,53.75,9.29,-1.1,0
3582,53.76,-2.49,-4.83,0
3583,53.77,-6.07,-7.81,0
3584,53.79,-3.99,-6.43,0
3585,53.8,-7.16,-2.4,0
3586,53.81,-11.35,-7.55,0
3587,53.83,-4.1,-20.37,0
3588,53.84,4.93,-24.02,0
3589,53.85,4.52,-19.63,0
3590,53.87,3.05,-18.94,0
3591,53.88,2.27,-17.64,0
3592,53.89,-2.39,-14.57,0
3593,53.9,-3.59,-14.95,0
3594,53.92,2.76,-11.16,0
3595,53.93,5.62,-5.19,0
3596,53.95,-1.12,-8.61,0
3597,53.96,-8.02,-11.47,0
3598,53.97,-7.38,-7.13,0
3599,53.99,1.06,-12.85,0
3600,54.0,13.46,-31.31,0
3601,54.01,15.33,-39.18,0
3602,54.03,1.34,-24.49,0
3603,54.04,-6.76,-4.77,0
3604,54.05,3.27,-2.28,0
3605,54.06,10.93,-16.32,0
3606,54.08,0.56,-28.68,0
3607,54.09,-12.19,-29.93,0
3608,54.11,-10.77,-26.9,0
3609,54.12,-4.84,-20.57,0
3610,54.13,-4.88,-10.06,0
3611,54.15,-4.08,-12.76,0
3612,54.16,0.44,-30.98,0
3613,54.17,2.54,-23.49,0
3614,54.18,1.45,34.94,0
3615,54.2,2.39,87.13,0
3616,54.21,9.67,66.92,0
3617,54.22,16.47,23.28,0
3618,54.24,17.21,42.36,0
3619,54.25,20.71,81.39,0
3620,54.26,23.95,66.32,0
3621,54.28,10.91,38.98,0
3622,54.29,-15.86,32.25,0
3623,54.3,-35.54,38.64,0
3624,54.32,-29.02,63.2,0
3625,54.33,-5.65,55.74,0
3626,54.34,3.48,-0.42,0
3627,54.36,-6.55,-24.75,0
3628,54.37,-14.79,15.16,0
3629,54.38,-7.94,34.09,0
3630,54.4,12.21,-32.8,0
3631,54.41,27.44,-101.8,0
3632,54.43,27.78,-92.85,0
3633,54.44,28.6,-54.08,0
3634,54.45,22.68,-29.62,0
3635,54.47,0.13,-3.1,0
3636,54.48,-6.3,18.85,0
3637,54.49,3.89,-7.34,0
3638,54.51,-3.96,-69.09,0
3639,54.52,-13.32,-82.45,0
3640,54.53,3.39,-29.75,0
3641,54.54,14.8,-12.87,0
3642,54.56,-4.82,-80.7,0
3643,54.57,-21.4,-105.13,0
3644,54.59,-13.24,-12.34,0
3645,54.6,-4.25,39.87,0
3646,54.61,-4.93,-42.02,0
3647,54.63,1.79,-102.55,0
3648,54.64,16.55,-59.29,0
3649,54.65,14.74,-34.85,0
3650,54.67,-2.36,-65.94,0
3651,54.68,-4.74,-60.02,0
3652,54.69,5.53,-16.56,0
3653,54.71,-1.91,-18.25,0
3654,54.72,-18.36,-49.19,0
3655,54.73,-8.09,-13.35,0
3656,54.75,13.57,61.57,0
3657,54.76,9.51,51.31,0
3658,54.77,-0.29,-29.45,0
3659,54.79,10.71,-46.18,0
3660,54.8,17.48,15.8,0
3661,54.81,2.05,40.8,0
3662,54.82,-12.2,0.58,0
3663,54.84,-6.11,-17.15,0
3664,54.85,4.05,8.63,0
3665,54.86,-2.92,12.91,0
3666,54.88,-11.73,-12.49,0
3667,54.89,-3.38,-26.71,0
3668,54.9,3.63,-20.14,0
3669,54.92,-2.09,1.79,0
3670,54.93,-3.0,13.61,0
3671,54.94,1.06,-2.86,0
3672,54.96,-1.66,-11.04,0
3673,54.97,-7.61,16.34,0
3674,54.98,-12.23,43.12,0
3675,55.0,-8.63,12.92,0
3676,55.01,7.81,-51.32,0
3677,55.025000000000006,17.11,-47.81,0
3678,55.04,6.21,26.36,0
3679,55.05,-5.11,52.24,0
3680,55.06,-10.94,17.8,0
3681,55.08,-20.3,16.48,0
3682,55.09,-16.31,43.51,0
3683,55.11,3.03,35.7,0
3684,55.12,6.4,7.92,0
3685,55.13,-11.48,8.72,0
3686,55.15,-24.62,43.32,0
3687,55.16,-17.3,79.98,0
3688,55.17,2.21,78.84,0
3689,55.19,12.09,35.38,0
3690,55.2,3.7,6.03,0
3691,55.21,-6.69,36.2,0
3692,55.22,-0.18,64.97,0
3693,55.24,18.63,19.0,0
3694,55.25,24.95,-24.0,0
3695,55.27,14.13,22.33,0
3696,55.28,5.43,64.54,0
3697,55.29,2.33,15.46,0
3698,55.31,1.86,-26.91,0
3699,55.32,8.95,24.5,0
3700,55.33,11.07,80.79,0
3701,55.35,-2.31,62.15,0
3702,55.36,-12.37,29.04,0
3703,55.37,-9.53,24.58,0
3704,55.38,-8.7,16.12,0
3705,55.4,-10.04,-0.61,0
3706,55.41,0.15,-0.21,0
3707,55.43,15.49,17.79,0
3708,55.44,14.0,24.57,0
3709,55.45,-6.07,-3.9,0
3710,55.46,-16.67,-39.36,0
3711,55.48,-2.38,-30.07,0
3712,55.49,8.5,12.32,0
3713,55.5,-3.56,21.93,0
3714,55.52,-9.49,-13.39,0
3715,55.53,1.21,-30.32,0
3716,55.54,0.27,-2.4,0
3717,55.56,-6.3,14.71,0
3718,55.57,6.54,-27.62,0
3719,55.58,20.4,-76.91,0
3720,55.6,14.93,-46.93,0
3721,55.61,0.6,26.09,0
3722,55.62,-11.22,45.35,0
3723,55.64,-10.11,14.17,0
3724,55.65,5.68,-9.68,0
3725,55.66,16.22,-12.09,0
3726,55.68,9.29,-5.69,0
3727,55.69,-1.76,14.43,0
3728,55.71,-4.94,40.19,0
3729,55.72,-7.69,25.78,0
3730,55.73,-9.01,-15.11,0
3731,55.75,-0.89,-9.1,0
3732,55.76,0.69,15.0,0
3733,55.77,-12.93,-7.3,0
3734,55.79,-22.7,-18.18,0
3735,55.8,-18.01,15.31,0
3736,55.81,-8.8,24.59,0
3737,55.83,-4.96,-2.96,0
3738,55.84,-3.26,-7.54,0
3739,55.85,1.84,29.82,0
3740,55.87,2.18,41.07,0
3741,55.88,-5.56,-15.37,0
3742,55.89,-8.52,-54.68,0
3743,55.9,-6.43,-28.72,0
3744,55.92,-3.68,-10.22,0
3745,55.93,3.4,-20.75,0
3746,55.95,5.57,-23.79,0
3747,55.96,2.94,-31.41,0
3748,55.97,6.95,-50.4,0
3749,55.99,8.33,-36.25,0
3750,56.0,6.09,28.77,0
3751,56.01,8.34,78.32,0
3752,56.03,3.2,43.02,0
3753,56.04,-1.95,-44.02,0
3754,56.05,9.75,-78.53,0
3755,56.06,13.83,-35.73,0
3756,56.08,-4.62,-10.32,0
3757,56.09,-14.74,-22.37,0
3758,56.1,-4.41,7.05,0
3759,56.12,1.09,46.68,0
3760,56.13,-3.02,31.49,0
3761,56.14,-1.69,11.02,0
3762,56.16,3.04,10.31,0
3763,56.17,3.62,-6.39,0
3764,56.18,1.49,-28.1,0
3765,56.2,-0.2,-27.85,0
3766,56.21,-1.09,-15.61,0
3767,56.22,-0.48,-19.7,0
3768,56.24,3.26,-59.28,0
3769,56.25,7.39,-113.98,0
3770,56.26,12.25,-141.55,0
3771,56.28,20.16,-136.04,0
3772,56.29,16.7,-121.67,0
3773,56.3,-1.81,-105.84,0
3774,56.32,-7.6,-83.63,0
3775,56.33,3.75,-59.76,0
3776,56.35,4.96,-34.3,0
3777,56.36,-1.63,1.81,0
3778,56.37,4.27,37.59,0
3779,56.38,6.54,50.68,0
3780,56.4,-9.23,47.28,0
3781,56.41,-14.54,52.65,0
3782,56.43,-0.57,71.73,0
3783,56.44,1.64,85.32,0
3784,56.45,-12.61,82.16,0
3785,56.47,-20.8,75.08,0
3786,56.48,-16.6,78.14,0
3787,56.49,-9.51,85.04,0
3788,56.51,-9.81,84.2,0
3789,56.52,-15.67,77.65,0
3790,56.53,-16.39,68.41,0
3791,56.54,-9.9,56.48,0
3792,56.56,3.65,50.2,0
3793,56.57,20.32,52.72,0
3794,56.59,23.59,49.75,0
3795,56.6,13.07,39.34,0
3796,56.61,7.85,42.83,0
3797,56.63,9.93,56.36,0
3798,56.64,14.14,53.64,0
3799,56.65,23.8,40.62,0
3800,56.67,19.59,30.86,0
3801,56.68,-10.37,17.67,0
3802,56.69,-22.52,15.33,0
3803,56.71,5.15,32.13,0
3804,56.72,22.24,37.65,0
3805,56.73,1.55,25.48,0
3806,56.74,-16.44,16.02,0
3807,56.76,-7.01,8.91,0
3808,56.77,5.39,3.1,0
3809,56.78,3.75,5.02,0
3810,56.8,-2.23,6.78,0
3811,56.81,-5.86,2.93,0
3812,56.82,-11.18,3.57,0
3813,56.84,-15.38,11.14,0
3814,56.85,-5.18,14.01,0
3815,56.86,12.69,10.15,0
3816,56.88,10.3,5.39,0
3817,56.89,-9.06,-4.34,0
3818,56.9,-15.66,-16.71,0
3819,56.92,-2.19,-15.74,0
3820,56.93,15.82,0.41,0
3821,56.94,20.96,14.28,0
3822,56.96,6.37,10.55,0
3823,56.97,-17.56,-6.2,0
3824,56.99,-30.0,-14.53,0
3825,57.0,-20.58,-10.11,0
3826,57.01,-2.84,-10.42,0
3827,57.03,4.42,-19.11,0
3828,57.04,-0.96,-24.0,0
3829,57.05,-7.23,-23.29,0
3830,57.06,-2.55,-21.86,0
3831,57.08,8.74,-18.18,0
3832,57.09,10.3,-12.76,0
3833,57.11,0.19,-12.7,0
3834,57.12,-4.91,-19.83,0
3835,57.13,4.15,-30.2,0
3836,57.15,14.23,-35.9,0
3837,57.16,13.26,-31.85,0
3838,57.17,10.93,-28.3,0
3839,57.19,10.11,-31.68,0
3840,57.2,-3.0,-28.82,0
3841,57.21,-20.47,-16.58,0
3842,57.22,-21.42,-12.05,0
3843,57.24,-11.02,-21.74,0
3844,57.25,-3.87,-31.02,0
3845,57.27,3.27,-28.99,0
3846,57.28,14.39,-24.61,0
3847,57.29,17.06,-27.67,0
3848,57.31,5.8,-32.63,0
3849,57.32,-3.37,-37.06,0
3850,57.33,-0.97,-42.0,0
3851,57.35,8.51,-36.05,0
3852,57.36,17.62,-19.85,0
3853,57.37,15.23,-14.26,0
3854,57.38,2.9,-22.63,0
3855,57.4,-5.44,-25.67,0
3856,57.41,-8.8,-17.47,0
3857,57.42,-11.2,-11.76,0
3858,57.44,-6.81,-14.58,0
3859,57.45,3.83,-15.18,0
3860,57.46,10.73,-10.21,0
3861,57.48,11.99,-12.74,0
3862,57.49,10.76,-22.19,0
3863,57.5,6.92,-21.01,0
3864,57.52,3.46,-10.33,0
3865,57.53,5.05,-4.23,0
3866,57.54,5.98,-6.07,0
3867,57.56,-0.87,-15.94,0
3868,57.57,-8.86,-27.77,0
3869,57.58,-7.4,-27.49,0
3870,57.6,1.62,-16.28,0
3871,57.61,3.67,-9.17,0
3872,57.63,-3.15,-8.55,0
3873,57.64,-3.7,-5.08,0
3874,57.65,-0.2,-0.54,0
3875,57.67,-1.93,-4.41,0
3876,57.68,-1.88,-11.69,0
3877,57.69,0.67,-13.39,0
3878,57.71,-1.08,-10.17,0
3879,57.72,-2.21,-3.34,0
3880,57.73,1.54,5.05,0
3881,57.75,4.24,8.59,0
3882,57.76,2.66,2.45,0
3883,57.77,-0.94,-10.31,0
3884,57.79,-7.55,-13.09,0
3885,57.8,-14.23,3.54,0
3886,57.81,-10.12,17.2,0
3887,57.83,1.89,8.94,0
3888,57.84,5.49,-3.31,0
3889,57.85,3.32,0.69,0
3890,57.87,7.11,9.35,0
3891,57.88,5.21,4.16,0
3892,57.89,-13.35,-4.53,0
3893,57.9,-25.39,-0.39,0
3894,57.92,-11.55,8.41,0
3895,57.93,8.4,12.63,0
3896,57.95,12.77,17.28,0
3897,57.96,5.49,19.97,0
3898,57.97,-3.45,13.19,0
3899,57.99,-6.36,3.79,0
3900,58.0,-1.51,1.38,0
3901,58.01,1.69,1.95,0
3902,58.02,-0.78,-1.8,0
3903,58.04,-5.04,-6.86,0
3904,58.05,-9.38,-5.26,0
3905,58.06,-10.04,3.61,0
3906,58.08,-3.41,11.83,0
3907,58.09,8.05,12.72,0
3908,58.1,16.27,9.09,0
3909,58.12,10.49,7.67,0
3910,58.13,-7.22,8.85,0
3911,58.14,-17.91,6.83,0
3912,58.16,-10.8,1.25,0
3913,58.17,4.98,3.43,0
3914,58.18,13.56,8.76,0
3915,58.2,7.9,-14.93,0
3916,58.21,-2.65,-69.74,0
3917,58.22,-7.25,-111.22,0
3918,58.24,-6.26,-121.28,0
3919,58.25,4.24,-128.97,0
3920,58.26,28.41,-144.0,0
3921,58.28,45.51,-136.98,0
3922,58.29,33.13,-102.95,0
3923,58.31,9.36,-75.48,0
3924,58.32,3.89,-62.74,0
3925,58.33,12.49,-43.23,0
3926,58.35,17.52,-16.58,0
3927,58.36,15.24,3.17,0
3928,58.37,10.35,18.38,0
3929,58.38,1.59,37.43,0
3930,58.4,-18.0,58.41,0
3931,58.41,-38.77,75.09,0
3932,58.43,-43.02,88.9,0
3933,58.44,-39.44,107.7,0
3934,58.45,-39.02,128.08,0
3935,58.47,-32.56,141.65,0
3936,58.48,-25.07,151.75,0
3937,58.49,-31.77,163.2,0
3938,58.51,-38.84,171.43,0
3939,58.52,-24.62,168.75,0
3940,58.53,-0.45,151.87,0
3941,58.54,11.91,127.47,0
3942,58.56,14.38,112.32,0
3943,58.57,13.18,114.42,0
3944,58.59,6.88,116.54,0
3945,58.6,0.84,103.24,0
3946,58.61,0.12,89.03,0
3947,58.63,2.7,84.55,0
3948,58.64,4.47,72.9,0
3949,58.65,-0.59,51.26,0
3950,58.66,-5.25,38.21,0
3951,58.68,4.46,37.76,0
3952,58.69,18.02,38.88,0
3953,58.7,18.97,33.68,0
3954,58.72,11.99,23.96,0
3955,58.73,6.18,15.25,0
3956,58.74,5.9,5.69,0
3957,58.76,9.78,-7.77,0
3958,58.77,12.93,-15.97,0
3959,58.78,12.93,-9.08,0
3960,58.8,6.31,1.39,0
3961,58.81,-6.06,-5.46,0
3962,58.82,-17.62,-25.55,0
3963,58.84,-25.18,-35.55,0
3964,58.85,-19.24,-34.1,0
3965,58.86,3.77,-36.51,0
3966,58.88,20.34,-41.97,0
3967,58.89,16.44,-39.56,0
3968,58.9,9.19,-31.58,0
3969,58.92,8.64,-30.26,0
3970,58.93,10.26,-35.96,0
3971,58.95,12.43,-41.22,0
3972,58.96,14.51,-46.93,0
3973,58.97,11.22,-52.88,0
3974,58.99,-3.42,-51.86,0
3975,59.0,-18.3,-45.74,0
3976,59.01,-12.16,-46.92,0
3977,59.03,6.01,-52.1,0
3978,59.04,10.38,-46.45,0
3979,59.05,6.89,-39.19,0
3980,59.06,9.83,-44.25,0
3981,59.08,5.64,-49.35,0
3982,59.09,-10.28,-49.02,0
3983,59.11,-14.66,-50.87,0
3984,59.12,-1.16,-49.12,0
3985,59.13,7.77,-45.16,0
3986,59.15,3.97,-50.39,0
3987,59.16,1.56,-56.14,0
3988,59.17,1.95,-48.62,0
3989,59.19,-0.24,-37.08,0
3990,59.2,-0.56,-38.98,0
3991,59.21,-3.33,-48.95,0
3992,59.22,-8.26,-46.84,0
3993,59.24,3.04,-33.64,0
3994,59.25,20.95,-27.67,0
3995,59.27,12.91,-34.69,0
3996,59.28,-5.13,-43.6,0
3997,59.29,1.45,-41.83,0
3998,59.3,10.89,-30.82,0
3999,59.32,-0.91,-23.52,0
4000,59.33,-8.13,-25.17,0
4001,59.34,-1.87,-26.98,0
4002,59.36,-3.76,-19.46,0
4003,59.37,-9.68,-8.03,0
4004,59.38,-8.72,-8.79,0
4005,59.4,-4.43,-19.99,0
4006,59.41,2.93,-22.62,0
4007,59.42,6.96,-16.85,0
4008,59.44,1.42,-14.78,0
4009,59.45,-2.8,-14.04,0
4010,59.46,0.62,-11.88,0
4011,59.48,4.33,-11.44,0
4012,59.49,5.24,-9.52,0
4013,59.5,4.55,-5.18,0
4014,59.52,2.31,-2.56,0
4015,59.53,-2.43,0.18,0
4016,59.54,-10.83,5.22,0
4017,59.56,-15.46,5.6,0
4018,59.57,-6.16,-2.83,0
4019,59.59,5.64,-10.4,0
4020,59.6,2.1,-9.52,0
4021,59.61,-9.65,-4.21,0
4022,59.63,-10.61,3.12,0
4023,59.64,0.72,9.94,0
4024,59.65,3.8,5.75,0
4025,59.67,-8.16,-5.96,0
4026,59.68,-9.42,-4.5,0
4027,59.69,3.65,10.35,0
4028,59.71,4.68,18.05,0
4029,59.72,-2.82,16.6,0
4030,59.73,-0.02,15.42,0
4031,59.75,6.59,11.24,0
4032,59.76,6.71,4.31,0
4033,59.77,2.88,5.63,0
4034,59.79,5.6,14.59,0
4035,59.8,15.04,18.58,0
4036,59.81,10.07,16.38,0
4037,59.83,-10.12,17.5,0
4038,59.84,-17.75,22.41,0
4039,59.85,-11.06,23.93,0
4040,59.87,-7.66,20.93,0
4041,59.88,-4.68,14.62,0
4042,59.89,2.9,6.86,0
4043,59.9,6.62,7.25,0
4044,59.92,2.68,18.91,0
4045,59.93,-2.46,29.42,0
4046,59.94,-6.31,31.38,0
4047,59.96,-7.31,27.81,0
4048,59.97,0.73,23.18,0
4049,59.98,10.27,21.9,0
4050,60.0,9.98,24.27,0
4051,60.01,7.33,22.1,0
4052,60.02,8.18,14.07,0
4053,60.04,3.12,9.4,0
4054,60.05,-2.26,6.63,0
4055,60.06,5.97,1.5,0
4056,60.08,10.44,5.77,0
4057,60.09,-6.1,19.71,0
4058,60.1,-17.36,23.54,0
4059,60.12,-6.44,12.27,0
4060,60.13,-0.53,-0.83,0
4061,60.14,-12.42,-1.53,0
4062,60.16,-20.43,13.29,0
4063,60.17,-12.6,26.83,0
4064,60.18,1.74,27.99,0
4065,60.2,11.73,36.08,0
4066,60.21,12.64,80.72,0
4067,60.22,7.19,163.8,0
4068,60.24,1.98,237.72,0
4069,60.25,0.03,249.34,0
4070,60.27,-1.93,216.36,0
4071,60.28,-8.38,185.79,0
4072,60.29,-17.03,145.68,0
4073,60.31,-20.7,80.04,0
4074,60.32,-16.53,21.97,0
4075,60.33,-7.27,-18.34,0
4076,60.35,2.22,-64.21,0
4077,60.36,3.19,-115.76,0
4078,60.37,-2.66,-153.15,0
4079,60.38,1.62,-162.31,0
4080,60.4,13.36,-148.85,0
4081,60.41,12.9,-133.35,0
4082,60.43,1.72,-125.31,0
4083,60.44,-3.57,-119.68,0
4084,60.45,1.76,-110.97,0
4085,60.47,9.54,-97.16,0
4086,60.48,14.5,-84.25,0
4087,60.49,13.73,-79.12,0
4088,60.51,2.76,-71.61,0
4089,60.52,-8.65,-54.73,0
4090,60.53,-6.76,-49.59,0
4091,60.54,0.39,-67.2,0
4092,60.56,4.77,-85.13,0
4093,60.57,18.0,-86.2,0
4094,60.58,32.29,-71.5,0
4095,60.6,23.31,-54.28,0
4096,60.61,4.49,-52.24,0
4097,60.62,3.6,-60.54,0
4098,60.64,11.41,-59.43,0
4099,60.65,8.05,-47.12,0
4100,60.66,0.6,-32.35,0
4101,60.68,0.31,-20.86,0
4102,60.69,-1.25,-16.65,0
4103,60.7,-7.26,-14.41,0
4104,60.72,-4.2,-6.29,0
4105,60.73,7.02,2.13,0
4106,60.74,8.3,4.2,0
4107,60.76,-0.73,8.23,0
4108,60.77,-5.73,18.65,0
4109,60.78,-6.63,20.87,0
4110,60.8,-9.09,9.52,0
4111,60.81,-7.7,4.91,0
4112,60.82,-1.1,18.27,0
4113,60.84,-0.78,28.88,0
4114,60.85,-9.64,18.96,0
4115,60.86,-16.36,6.75,0
4116,60.88,-15.65,14.37,0
4117,60.89,-10.23,31.6,0
4118,60.9,-1.2,39.6,0
4119,60.92,8.09,35.87,0
4120,60.93,12.38,31.38,0
4121,60.95,8.53,34.92,0
4122,60.96,-0.41,37.19,0
4123,60.97,-3.42,29.95,0
4124,60.99,0.42,27.85,0
4125,61.0,-1.79,36.42,0
4126,61.01,-8.91,38.32,0
4127,61.03,-7.76,28.91,0
4128,61.04,-1.94,23.21,0
4129,61.05,-2.61,25.92,0
4130,61.06,-5.47,27.87,0
4131,61.08,-2.49,27.32,0
4132,61.09,1.66,29.98,0
4133,61.11,1.8,37.44,0
4134,61.12,0.81,40.49,0
4135,61.13,1.5,32.28,0
4136,61.15,3.55,23.36,0
4137,61.16,0.02,22.17,0
4138,61.17,-11.74,25.66,0
4139,61.19,-16.46,33.51,0
4140,61.2,-3.38,41.71,0
4141,61.21,15.8,39.46,0
4142,61.22,17.58,29.71,0
4143,61.24,-5.41,29.05,0
4144,61.25,-22.93,36.83,0
4145,61.26,-10.28,34.44,0
4146,61.28,11.3,21.27,0
4147,61.29,16.18,14.76,0
4148,61.3,8.0,20.19,0
4149,61.32,-2.47,25.58,0
4150,61.33,-11.08,20.55,0
4151,61.34,-13.63,8.6,0
4152,61.36,-7.55,0.75,0
4153,61.37,1.11,0.8,0
4154,61.38,2.35,5.16,0
4155,61.4,-3.14,8.15,0
4156,61.41,-5.37,6.67,0
4157,61.42,-0.45,7.06,0
4158,61.44,6.88,13.8,0
4159,61.45,12.22,13.78,0
4160,61.46,13.15,3.8,0
4161,61.48,4.48,2.22,0
4162,61.49,-12.6,14.3,0
4163,61.5,-23.44,17.93,0
4164,61.52,-14.97,2.97,0
4165,61.53,4.29,-8.16,0
4166,61.54,10.56,-4.18,0
4167,61.56,1.79,-3.13,0
4168,61.57,-2.48,-10.98,0
4169,61.59,0.81,-15.07,0
4170,61.6,3.2,-12.32,0
4171,61.61,6.06,-8.94,0
4172,61.63,7.89,-6.09,0
4173,61.64,2.46,-1.95,0
4174,61.65,-5.3,1.01,0
4175,61.67,-8.98,-0.87,0
4176,61.68,-5.06,-7.63,0
4177,61.69,7.63,-14.55,0
4178,61.71,14.13,-13.38,0
4179,61.72,4.69,-5.29,0
4180,61.73,-2.25,-3.22,0
4181,61.75,2.49,-8.48,0
4182,61.76,3.25,-12.58,0
4183,61.77,-3.22,-13.77,0
4184,61.79,-3.29,-13.43,0
4185,61.8,1.55,-13.12,0
4186,61.81,0.3,-14.29,0
4187,61.83,-2.69,-13.55,0
4188,61.84,1.35,-7.19,0
4189,61.85,7.36,-1.95,0
4190,61.86,7.96,-7.58,0
4191,61.88,4.05,-15.34,0
4192,61.89,-0.25,-12.25,0
4193,61.9,0.44,-6.85,0
4194,61.92,3.75,-6.79,0
4195,61.93,2.59,-6.82,0
4196,61.94,1.95,-8.86,0
4197,61.96,8.64,-14.45,0
4198,61.97,15.15,-16.41,0
4199,61.98,9.43,-17.53,0
4200,62.0,-4.7,-24.02,0
4201,62.01,-8.57,-25.46,0
4202,62.02,-0.62,-13.93,0
4203,62.04,-1.2,-2.24,0
4204,62.05,-11.06,-2.77,0
4205,62.06,-11.36,-13.22,0
4206,62.08,-2.66,-22.76,0
4207,62.09,0.81,-20.5,0
4208,62.1,-1.95,-14.59,0
4209,62.12,-4.78,-21.71,0
4210,62.13,-7.7,-39.39,0
4211,62.14,-11.74,-49.42,0
4212,62.16,-13.07,-27.9,0
4213,62.17,-8.27,23.66,0
4214,62.19,1.52,76.41,0
4215,62.2,6.25,106.51,0
4216,62.21,-0.67,69.15,0
4217,62.22,-2.82,-13.53,0
4218,62.24,8.48,4.6,0
4219,62.25,8.39,112.7,0
4220,62.27,-10.12,131.73,0
4221,62.28,-18.73,83.13,0
4222,62.29,-10.17,80.28,0
4223,62.31,-4.11,76.38,0
4224,62.32,-3.19,28.46,0
4225,62.33,4.77,-10.44,0
4226,62.35,18.47,-10.91,0
4227,62.36,24.47,-12.38,0
4228,62.37,17.5,-26.72,0
4229,62.38,8.08,-24.52,0
4230,62.4,6.0,-40.9,0
4231,62.41,6.26,-100.76,0
4232,62.43,-0.69,-131.0,0
4233,62.44,-12.65,-87.35,0
4234,62.45,-19.65,-51.83,0
4235,62.47,-14.75,-90.94,0
4236,62.48,2.99,-128.06,0
4237,62.49,22.53,-109.35,0
4238,62.5,25.19,-100.08,0
4239,62.52,10.77,-108.77,0
4240,62.53,-2.62,-72.63,0
4241,62.54,-7.26,-14.56,0
4242,62.56,-8.74,7.19,0
4243,62.57,-5.97,0.26,0
4244,62.58,1.19,-19.05,0
4245,62.6,0.79,-45.24,0
4246,62.61,-6.26,-64.26,0
4247,62.62,-0.58,-60.78,0
4248,62.64,15.83,-28.26,0
4249,62.65,20.58,5.28,0
4250,62.66,9.66,14.9,0
4251,62.68,-3.61,1.98,0
4252,62.69,-11.46,-22.07,0
4253,62.7,-12.05,-26.79,0
4254,62.72,-6.26,-10.56,0
4255,62.73,-1.72,-2.81,0
4256,62.74,-3.58,1.26,0
4257,62.76,-2.56,12.31,0
4258,62.77,4.44,28.68,0
4259,62.78,2.02,48.0,0
4260,62.8,-7.07,45.07,0
4261,62.81,0.31,21.32,0
4262,62.825,12.34,12.85,0
4263,62.84,1.77,11.9,0
4264,62.85,-10.24,10.77,0
4265,62.87,2.73,30.16,0
4266,62.88,17.56,36.59,0
4267,62.89,11.27,-4.31,0
4268,62.9,-4.91,-38.38,0
4269,62.92,-12.77,-13.06,0
4270,62.93,-8.81,31.01,0
4271,62.95,-3.29,37.17,0
4272,62.96,-2.78,22.2,0
4273,62.97,-2.76,10.59,0
4274,62.99,1.15,4.04,0
4275,63.0,3.44,29.34,0
4276,63.01,-2.32,60.09,0
4277,63.03,-4.03,37.26,0
4278,63.04,7.24,9.66,0
4279,63.05,8.86,26.55,0
4280,63.06,-4.27,27.71,0
4281,63.08,-9.27,-18.3,0
4282,63.09,-12.29,-47.65,0
4283,63.11,-20.51,-7.17,0
4284,63.12,-13.0,47.61,0
4285,63.13,3.23,22.97,0
4286,63.14,4.25,-30.52,0
4287,63.16,-1.18,-10.16,0
4288,63.17,1.03,27.32,0
4289,63.18,1.79,19.03,0
4290,63.2,-8.13,14.81,0
4291,63.21,-15.73,23.63,0
4292,63.22,-8.41,31.61,0
4293,63.24,1.1,48.17,0
4294,63.25,6.6,44.32,0
4295,63.26,13.48,36.69,0
4296,63.28,7.5,65.58,0
4297,63.29,-10.46,71.6,0
4298,63.3,-10.6,20.15,0
4299,63.32,-0.04,-24.6,0
4300,63.33,-4.17,-21.54,0
4301,63.34,-3.01,13.01,0
4302,63.36,17.9,34.66,0
4303,63.37,27.76,16.46,0
4304,63.38,16.36,2.63,0
4305,63.4,5.41,27.2,0
4306,63.41,-2.06,44.05,0
4307,63.42,-7.67,34.81,0
4308,63.44,-2.0,19.08,0
4309,63.45,5.5,-13.77,0
4310,63.46,-0.49,-38.99,0
4311,63.48,-9.36,-19.78,0
4312,63.49,-6.31,1.28,0
4313,63.51,-2.41,-12.08,0
4314,63.52,-10.22,-24.55,0
4315,63.53,-14.15,-17.44,0
4316,63.54,-2.84,-13.45,0
4317,63.56,8.01,-11.71,0
4318,63.57,7.66,-4.01,0
4319,63.59,2.13,10.21,0
4320,63.6,-0.84,36.23,0
4321,63.61,-0.27,25.77,0
4322,63.63,2.09,-48.08,0
4323,63.64,4.38,-74.92,0
4324,63.65,1.77,4.94,0
4325,63.67,-3.44,62.09,0
4326,63.68,-0.74,26.32,0
4327,63.69,5.5,-3.68,0
4328,63.71,3.86,13.34,0
4329,63.72,-0.8,27.16,0
4330,63.73,-1.26,20.23,0
4331,63.75,1.05,-6.65,0
4332,63.76,6.1,-35.17,0
4333,63.77,6.11,-40.15,0
4334,63.78,1.23,-44.17,0
4335,63.8,8.79,-57.17,0
4336,63.81,14.28,-39.38,0
4337,63.82,-8.08,11.92,0
4338,63.84,-24.64,37.94,0
4339,63.85,-6.12,3.91,0
4340,63.86,9.46,-34.67,0
4341,63.88,2.96,-35.49,0
4342,63.89,6.56,-45.43,0
4343,63.9,25.85,-43.92,0
4344,63.92,27.38,19.05,0
4345,63.93,2.84,57.4,0
4346,63.94,-11.45,20.0,0
4347,63.96,-0.71,-10.62,0
4348,63.97,8.85,7.3,0
4349,63.98,6.13,22.95,0
4350,64.0,-4.67,-2.68,0
4351,64.01,-18.51,-22.36,0
4352,64.02,-20.29,10.42,0
4353,64.04,-11.55,36.74,0
4354,64.05,-9.4,-8.57,0
4355,64.06,-9.3,-76.63,0
4356,64.08,3.47,-65.46,0
4357,64.09,14.44,16.1,0
4358,64.1,3.39,51.75,0
4359,64.12,-16.46,29.79,0
4360,64.13,-23.44,36.38,0
4361,64.14,-15.33,59.21,0
4362,64.16,-2.79,39.11,0
4363,64.17,3.07,2.52,0
4364,64.18,3.95,1.37,0
4365,64.2,10.62,33.97,0
4366,64.21,19.94,62.54,0
4367,64.22,16.31,62.91,0
4368,64.24,0.95,32.21,0
4369,64.25,-12.25,-31.91,0
4370,64.26,-21.08,-110.29,0
4371,64.28,-22.58,-162.1,0
4372,64.29,-8.71,-178.42,0
4373,64.3,10.43,-178.77,0
4374,64.32,17.22,-166.42,0
4375,64.33,18.31,-133.25,0
4376,64.34,26.67,-87.31,0
4377,64.36,30.73,-45.18,0
4378,64.37,23.36,-9.36,0
4379,64.38,19.39,29.25,0
4380,64.4,18.17,66.82,0
4381,64.41,10.43,84.93,0
4382,64.42,3.59,81.52,0
4383,64.44,-4.02,68.48,0
4384,64.45,-14.26,56.28,0
4385,64.46,-9.06,59.05,0
4386,64.48,5.92,70.41,0
4387,64.49,0.13,63.08,0
4388,64.5,-21.08,41.29,0
4389,64.52,-24.17,33.2,0
4390,64.53,-6.75,37.96,0
4391,64.54,3.69,37.58,0
4392,64.56,-3.17,35.01,0
4393,64.57,-10.44,41.38,0
4394,64.58,-7.88,49.87,0
4395,64.6,-4.01,50.17,0
4396,64.61,-6.06,46.0,0
4397,64.62,-11.09,40.87,0
4398,64.64,-13.49,33.47,0
4399,64.65,-8.13,29.05,0
4400,64.66,2.32,30.24,0
4401,64.68,9.08,29.41,0
4402,64.69,4.99,24.9,0
4403,64.7,-8.05,24.27,0
4404,64.72,-17.23,26.87,0
4405,64.73,-13.11,25.93,0
4406,64.74,1.01,26.61,0
4407,64.76,9.79,33.04,0
4408,64.77,2.03,32.94,0
4409,64.79,-7.09,22.36,0
4410,64.8,0.3,14.17,0
4411,64.81,10.31,15.66,0
4412,64.82,1.49,19.88,0
4413,64.84,-14.16,16.75,0
4414,64.85,-11.7,8.94,0
4415,64.86,1.73,4.91,0
4416,64.88,4.34,2.15,0
4417,64.89,-0.82,-3.95,0
4418,64.9,-0.14,-10.12,0
4419,64.92,2.55,-10.09,0
4420,64.93,-2.25,-0.96,0
4421,64.94,-8.05,8.28,0
4422,64.96,-4.92,4.46,0
4423,64.97,2.13,-6.38,0
4424,64.98,3.4,-7.96,0
4425,65.0,-1.22,-6.53,0
4426,65.01,-3.55,-15.92,0
4427,65.02,3.46,-26.63,0
4428,65.04,12.09,-26.07,0
4429,65.05,7.81,-20.94,0
4430,65.06,-8.3,-21.75,0
4431,65.08,-15.17,-25.83,0
4432,65.09,-0.75,-21.87,0
4433,65.1,12.86,-14.79,0
4434,65.12,8.16,-23.68,0
4435,65.13,1.86,-43.15,0
4436,65.14,3.98,-51.57,0
4437,65.16,3.42,-44.77,0
4438,65.17,-1.74,-32.23,0
4439,65.18,-3.81,-24.68,0
4440,65.2,-2.34,-25.45,0
4441,65.21,-0.81,-25.82,0
4442,65.22,1.54,-21.35,0
4443,65.24,4.13,-18.92,0
4444,65.25,4.61,-18.85,0
4445,65.26,2.81,-17.1,0
4446,65.28,-3.16,-21.75,0
4447,65.29,-8.78,-30.24,0
4448,65.3,-3.34,-20.57,0
4449,65.32,11.63,-3.32,0
4450,65.33,21.96,-9.73,0
4451,65.34,18.03,-27.22,0
4452,65.36,3.81,-30.77,0
4453,65.37,-7.47,-28.4,0
4454,65.38,-8.15,-27.65,0
4455,65.4,-5.17,-21.48,0
4456,65.41,-5.96,-12.0,0
4457,65.42,-7.8,-10.02,0
4458,65.44,-5.89,-13.08,0
4459,65.45,0.91,-10.64,0
4460,65.46,6.62,-10.24,0
4461,65.48,5.4,-20.2,0
4462,65.49,1.21,-29.3,0
4463,65.5,-1.23,-27.23,0
4464,65.52,-0.54,-13.84,0
4465,65.53,3.02,0.92,0
4466,65.54,5.17,3.77,0
4467,65.56,4.13,-3.47,0
4468,65.57,-0.08,-8.12,0
4469,65.58,-6.22,-4.91,0
4470,65.6,-7.63,-0.68,0
4471,65.61,-5.79,-6.44,0
4472,65.62,-5.16,-16.91,0
4473,65.64,1.21,-14.54,0
4474,65.65,8.07,-3.18,0
4475,65.66,4.09,-0.16,0
4476,65.68,0.31,-1.04,0
4477,65.69,4.05,4.85,0
4478,65.7,7.01,7.4,0
4479,65.72,5.38,-0.15,0
4480,65.73,-1.35,-2.51,0
4481,65.74,-6.42,5.21,0
4482,65.76,0.32,3.57,0
4483,65.77,10.86,-7.14,0
4484,65.78,12.31,-3.16,0
4485,65.8,11.1,10.58,0
4486,65.81,14.4,9.92,0
4487,65.82,13.14,2.18,0
4488,65.84,1.9,5.27,0
4489,65.85,-11.59,11.89,0
4490,65.86,-18.72,10.0,0
4491,65.88,-16.28,1.39,0
4492,65.89,-7.2,-3.55,0
4493,65.9,4.49,2.93,0
4494,65.92,12.47,11.65,0
4495,65.93,6.5,8.92,0
4496,65.94,-11.12,2.4,0
4497,65.96,-21.3,4.11,0
4498,65.97,-15.38,6.48,0
4499,65.98,-7.93,-0.16,0
4500,66.0,-7.69,-8.14,0
4501,66.01,-4.82,-4.74,0
4502,66.02,2.28,5.03,0
4503,66.04,2.47,9.91,0
4504,66.05,-4.72,14.18,0
4505,66.06,-5.25,17.52,0
4506,66.08,5.1,7.39,0
4507,66.09,8.36,-6.68,0
4508,66.11,0.45,-2.26,0
4509,66.12,-0.41,13.65,0
4510,66.13,6.95,20.16,0
4511,66.14,9.7,14.83,0
4512,66.16,10.65,6.15,0
4513,66.17,13.69,-4.6,0
4514,66.18,9.04,-32.66,0
4515,66.2,-2.04,-82.45,0
4516,66.21,-6.9,-118.5,0
4517,66.22,0.14,-120.06,0
4518,66.24,12.23,-117.44,0
4519,66.25,11.95,-130.14,0
4520,66.26,4.03,-137.5,0
4521,66.28,9.66,-121.87,0
4522,66.29,20.1,-94.5,0
4523,66.3,20.41,-75.43,0
4524,66.32,16.98,-61.36,0
4525,66.33,9.98,-30.62,0
4526,66.34,-1.15,12.08,0
4527,66.36,-6.49,36.23,0
4528,66.37,-9.78,39.89,0
4529,66.38,-16.14,53.16,0
4530,66.4,-18.75,85.13,0
4531,66.41,-23.49,112.12,0
4532,66.42,-34.15,124.27,0
4533,66.44,-31.63,136.46,0
4534,66.45,-10.57,148.47,0
4535,66.46,4.26,145.63,0
4536,66.48,-1.58,135.17,0
4537,66.49,-13.46,135.35,0
4538,66.5,-15.4,140.49,0
4539,66.52,-12.3,135.11,0
4540,66.53,-11.72,124.56,0
4541,66.54,-9.23,121.46,0
4542,66.56,-3.15,125.22,0
4543,66.57,0.6,127.56,0
4544,66.58,-1.08,122.09,0
4545,66.6,-2.96,107.06,0
4546,66.61,3.73,85.32,0
4547,66.62,19.92,65.62,0
4548,66.64,29.27,55.61,0
4549,66.65,16.72,52.13,0
4550,66.66,-0.41,49.69,0
4551,66.68,-1.49,46.68,0
4552,66.69,2.29,38.12,0
4553,66.7,-1.75,20.9,0
4554,66.72,-5.91,5.58,0
4555,66.73,-3.74,4.15,0
4556,66.75,-0.69,8.66,0
4557,66.76,-1.61,3.75,0
4558,66.77,-2.32,-6.38,0
4559,66.79,-2.84,-11.13,0
4560,66.8,-8.4,-18.4,0
4561,66.81,-15.34,-32.57,0
4562,66.82,-12.36,-37.22,0
4563,66.84,4.09,-28.38,0
4564,66.85,19.34,-26.29,0
4565,66.86,13.56,-35.83,0
4566,66.88,-8.73,-39.28,0
4567,66.89,-16.1,-34.65,0
4568,66.9,0.41,-35.01,0
4569,66.92,9.57,-40.42,0
4570,66.93,0.15,-46.61,0
4571,66.94,-4.32,-52.92,0
4572,66.96,2.69,-53.76,0
4573,66.97,6.27,-51.82,0
4574,66.98,2.38,-52.72,0
4575,67.0,-0.15,-48.01,0
4576,67.01,4.1,-38.99,0
4577,67.02,10.11,-42.28,0
4578,67.04,11.88,-52.04,0
4579,67.05,11.12,-47.78,0
4580,67.06,13.29,-36.01,0
4581,67.08,14.13,-38.85,0
4582,67.09,5.72,-55.56,0
4583,67.1,-4.9,-63.55,0
4584,67.12,-9.06,-53.77,0
4585,67.13,-8.99,-44.14,0
4586,67.14,-2.62,-47.01,0
4587,67.16,8.36,-50.95,0
4588,67.17,9.85,-46.7,0
4589,67.18,-0.33,-42.23,0
4590,67.2,-8.63,-43.99,0
4591,67.21,-8.6,-47.14,0
4592,67.22,-4.93,-43.81,0
4593,67.24,-4.64,-33.55,0
4594,67.25,-6.01,-26.25,0
4595,67.26,-0.36,-29.21,0
4596,67.28,5.81,-36.65,0
4597,67.29,4.4,-39.27,0
4598,67.3,8.34,-37.28,0
4599,67.32,18.39,-36.48,0
4600,67.33,15.85,-35.14,0
4601,67.34,1.83,-31.33,0
4602,67.36,-6.54,-28.23,0
4603,67.37,-1.24,-23.4,0
4604,67.38,8.84,-17.46,0
4605,67.4,6.82,-16.92,0
4606,67.41,-5.57,-16.91,0
4607,67.43,-9.28,-10.39,0
4608,67.44,-1.86,-6.33,0
4609,67.45,0.86,-13.13,0
4610,67.46,-3.21,-19.06,0
4611,67.48,-3.04,-13.98,0
4612,67.49,2.7,-7.07,0
4613,67.5,8.29,-6.08,0
4614,67.52,4.73,-4.95,0
4615,67.53,-10.21,-0.41,0
4616,67.54,-16.6,1.75,0
4617,67.56,-6.99,0.53,0
4618,67.57,-2.1,0.6,0
4619,67.58,-3.63,-0.56,0
4620,67.6,-1.52,-7.29,0
4621,67.61,-3.06,-12.64,0
4622,67.62,-3.9,-4.81,0
4623,67.64,8.64,14.94,0
4624,67.65,21.38,25.93,0
4625,67.66,12.96,17.24,0
4626,67.68,-8.37,7.51,0
4627,67.69,-20.72,9.01,0
4628,67.7,-19.78,12.14,0
4629,67.72,-8.06,11.63,0
4630,67.73,7.2,11.68,0
4631,67.74,8.01,15.67,0
4632,67.76,-6.57,20.65,0
4633,67.77,-13.63,20.09,0
4634,67.78,-1.72,14.1,0
4635,67.8,13.73,9.3,0
4636,67.81,17.74,8.8,0
4637,67.82,12.94,9.74,0
4638,67.84,7.33,10.59,0
4639,67.85,6.1,11.85,0
4640,67.86,6.36,10.86,0
4641,67.88,2.1,10.01,0
4642,67.89,-0.21,14.58,0
4643,67.9,4.64,18.48,0
4644,67.92,6.17,17.39,0
4645,67.93,2.52,19.92,0
4646,67.94,6.45,27.53,0
4647,67.96,11.37,30.85,0
4648,67.97,1.59,27.8,0
4649,67.98,-7.26,24.48,0
4650,68.0,0.85,24.0,0
4651,68.01,6.9,20.24,0
4652,68.02,-2.31,10.91,0
4653,68.04,-11.23,11.59,0
4654,68.05,-9.42,27.58,0
4655,68.06,-1.34,33.09,0
4656,68.08,8.81,12.81,0
4657,68.09,12.88,-9.06,0
4658,68.11,3.3,-6.67,0
4659,68.12,-8.39,13.43,0
4660,68.13,-4.33,27.98,0
4661,68.14,4.73,26.2,0
4662,68.16,-4.9,18.83,0
4663,68.17,-19.82,17.38,0
4664,68.18,-14.75,17.06,0
4665,68.2,-4.56,14.6,0
4666,68.21,-8.32,27.28,0
4667,68.22,-13.15,81.56,0
4668,68.24,-6.55,176.75,0
4669,68.25,2.6,262.55,0
4670,68.26,0.38,289.52,0
4671,68.28,-14.84,263.06,0
4672,68.29,-24.76,213.54,0
4673,68.3,-14.95,156.23,0
4674,68.32,-1.6,98.04,0
4675,68.33,3.09,47.7,0
4676,68.34,11.53,3.89,0
4677,68.36,17.23,-48.12,0
4678,68.37,3.19,-102.32,0
4679,68.38,-12.17,-134.62,0
4680,68.4,-8.69,-150.29,0
4681,68.41,-1.41,-169.37,0
4682,68.42,-2.81,-182.97,0
4683,68.44,-2.29,-174.78,0
4684,68.45,5.57,-156.28,0
4685,68.46,9.45,-146.71,0
4686,68.48,0.04,-144.01,0
4687,68.49,-11.01,-137.36,0
4688,68.5,-7.99,-126.4,0
4689,68.52,2.42,-113.55,0
4690,68.53,4.25,-96.43,0
4691,68.54,-1.1,-83.94,0
4692,68.56,2.15,-85.7,0
4693,68.57,11.86,-87.62,0
4694,68.58,11.01,-76.27,0
4695,68.6,3.22,-63.73,0
4696,68.61,5.1,-60.27,0
4697,68.62,12.73,-57.04,0
4698,68.64,9.85,-51.58,0
4699,68.65,1.92,-49.8,0
4700,68.66,5.6,-43.23,0
4701,68.68,13.91,-24.82,0
4702,68.69,9.38,-9.15,0
4703,68.7,-3.5,-5.63,0
4704,68.72,-8.66,-0.4,0
4705,68.73,-2.21,12.23,0
4706,68.75,9.48,16.46,0
4707,68.76,13.98,5.68,0
4708,68.77,0.88,-5.24,0
4709,68.79,-16.94,-3.7,0
4710,68.8,-18.4,5.59,0
4711,68.81,-8.76,10.99,0
4712,68.82,-4.37,13.67,0
4713,68.84,-2.41,22.9,0
4714,68.85,4.33,32.46,0
4715,68.86,10.05,29.58,0
4716,68.88,13.79,21.99,0
4717,68.89,15.17,24.12,0
4718,68.9,4.99,33.27,0
4719,68.92,-9.17,38.62,0
4720,68.93,-8.45,36.82,0
4721,68.94,3.55,34.42,0
4722,68.96,8.99,40.38,0
4723,68.97,3.84,48.9,0
4724,68.98,-4.41,48.08,0
4725,69.0,-11.12,41.06,0
4726,69.01,-15.01,36.79,0
4727,69.02,-13.12,37.11,0
4728,69.04,-5.97,41.18,0
4729,69.05,1.17,44.95,0
4730,69.06,5.81,42.93,0
4731,69.08,4.7,38.24,0
4732,69.09,-2.36,40.6,0
4733,69.1,-3.13,50.16,0
4734,69.12,5.51,53.47,0
4735,69.13,6.58,44.61,0
4736,69.14,-4.82,33.57,0
4737,69.16,-10.96,27.97,0
4738,69.17,-1.77,26.23,0
4739,69.18,9.37,27.79,0
4740,69.2,9.83,29.1,0
4741,69.21,3.17,28.69,0
4742,69.22,-4.52,26.77,0
4743,69.24,-9.61,21.49,0
4744,69.25,-5.57,15.65,0
4745,69.26,6.24,13.71,0
4746,69.28,10.96,13.8,0
4747,69.29,4.63,15.24,0
4748,69.3,-0.88,21.52,0
4749,69.32,-4.82,25.97,0
4750,69.33,-9.37,19.28,0
4751,69.34,-9.12,10.47,0
4752,69.36,-6.54,12.1,0
4753,69.37,-5.34,15.63,0
4754,69.38,-2.49,9.96,0
4755,69.4,3.47,5.92,0
4756,69.41,7.31,10.62,0
4757,69.43,-0.46,7.21,0
4758,69.44,-15.58,-7.47,0
4759,69.45,-16.77,-9.26,0
4760,69.46,-1.46,7.37,0
4761,69.48,5.73,17.66,0
4762,69.49,-0.03,14.77,0
4763,69.5,-2.39,11.78,0
4764,69.52,-7.37,5.45,0
4765,69.53,-14.62,-4.38,0
4766,69.54,-0.15,-3.52,0
4767,69.56,21.84,4.31,0
4768,69.57,19.31,2.09,0
4769,69.58,8.29,-8.2,0
4770,69.6,7.13,-9.18,0
4771,69.61,0.21,-0.5,0
4772,69.62,-14.88,-0.2,0
4773,69.64,-18.75,-8.29,0
4774,69.65,-4.67,-5.93,0
4775,69.66,12.56,2.83,0
4776,69.68,17.83,-4.8,0
4777,69.69,16.03,-19.0,0
4778,69.7,19.01,-13.98,0
4779,69.72,20.74,-3.66,0
4780,69.73,6.53,-8.77,0
4781,69.74,-14.31,-14.05,0
4782,69.76,-17.68,-8.08,0
4783,69.77,-7.75,-5.32,0
4784,69.78,-4.37,-11.31,0
4785,69.8,-4.39,-15.04,0
4786,69.81,-1.44,-13.88,0
4787,69.82,-2.98,-12.26,0
4788,69.84,-6.22,-9.74,0
4789,69.85,-2.23,-8.49,0
4790,69.86,4.24,-12.2,0
4791,69.88,4.38,-17.31,0
4792,69.89,0.51,-15.95,0
4793,69.9,1.13,-7.23,0
4794,69.92,6.51,-4.14,0
4795,69.93,5.62,-12.35,0
4796,69.94,-5.81,-18.42,0
4797,69.96,-13.88,-18.46,0
4798,69.97,-9.9,-20.9,0
4799,69.98,-4.84,-22.2,0
4800,70.0,-5.27,-14.82,0
4801,70.01,-5.05,-4.71,0
4802,70.02,-1.02,-3.4,0
4803,70.04,3.49,-10.41,0
4804,70.05,3.94,-15.12,0
4805,70.06,-1.12,-12.78,0
4806,70.08,-6.28,-6.93,0
4807,70.09,-3.93,-3.5,0
4808,70.11,6.24,-7.89,0
4809,70.12,14.64,-16.5,0
4810,70.13,14.95,-19.95,0
4811,70.14,10.69,-18.59,0
4812,70.16,7.92,-18.03,0
4813,70.17,8.72,-19.49,0
4814,70.18,8.79,-8.49,0
4815,70.2,2.29,44.78,0
4816,70.21,-6.21,95.81,0
4817,70.22,-10.51,54.26,0
4818,70.24,-10.58,20.85,0
4819,70.25,-0.89,138.85,0
4820,70.26,19.44,203.92,0
4821,70.28,34.96,28.39,0
4822,70.29,36.45,-95.16,0
4823,70.3,29.23,29.04,0
4824,70.32,13.18,137.97,0
4825,70.33,-9.56,120.56,0
4826,70.34,-20.45,102.11,0
4827,70.36,-18.57,44.85,0
4828,70.37,-18.22,-78.35,0
4829,70.38,-11.44,-130.61,0
4830,70.4,2.9,-63.85,0
4831,70.41,2.96,-35.3,0
4832,70.42,-10.93,-148.63,0
4833,70.44,-20.22,-222.01,0
4834,70.45,-21.0,-111.0,0
4835,70.46,-13.38,2.27,0
4836,70.48,-1.68,-23.63,0
4837,70.49,-1.47,-93.5,0
4838,70.5,-11.17,-132.01,0
4839,70.52,-13.73,-127.45,0
4840,70.53,-12.48,-82.39,0
4841,70.54,-14.68,-49.14,0
4842,70.56,-10.57,-50.64,0
4843,70.57,-1.63,-56.53,0
4844,70.58,3.42,-48.39,0
4845,70.6,6.62,-40.79,0
4846,70.61,7.14,-44.27,0
4847,70.62,6.39,-36.15,0
4848,70.64,3.86,-25.0,0
4849,70.65,-7.34,-36.39,0
4850,70.66,-9.06,-34.44,0
4851,70.68,12.45,5.3,0
4852,70.69,24.05,34.84,0
4853,70.7,7.47,12.94,0
4854,70.72,-5.79,-24.09,0
4855,70.73,-1.14,-17.91,0
4856,70.75,-1.63,7.68,0
4857,70.76,-9.89,-4.6,0
4858,70.77,-5.37,-30.99,0
4859,70.79,6.17,-18.8,0
4860,70.8,4.22,18.58,0
4861,70.81,-7.67,30.44,0
4862,70.82,-10.81,7.88,0
4863,70.84,1.1,-6.75,0
4864,70.85,13.27,-0.98,0
4865,70.86,4.36,-10.89,0
4866,70.88,-14.82,-7.72,0
4867,70.89,-13.58,64.23,0
4868,70.9,-0.0,114.31,0
