,Timestamp,Data1,Data2,Label
0,6.0,-2.34,-7.91,0
1,6.01,-3.76,-1.61,0
2,6.03,-25.04,3.65,0
3,6.04,-58.29,-4.94,0
4,6.05,-54.84,-11.64,0
5,6.07,-16.15,-2.17,0
6,6.08,2.9,1.45,0
7,6.09,-0.78,-8.29,0
8,6.11,7.06,-8.72,1
9,6.12,19.89,-1.09,1
10,6.13,23.55,-3.2,1
11,6.15,25.73,-5.36,1
12,6.16,26.92,9.19,1
13,6.17,26.18,41.89,1
14,6.19,17.64,68.15,1
15,6.2,-6.39,22.38,1
16,6.21,-5.25,-125.67,1
17,6.23,38.13,-240.94,1
18,6.24,43.74,-94.93,1
19,6.25,-11.14,240.92,1
20,6.265,-34.03,398.76,1
21,6.28,13.64,321.95,1
22,6.29,52.87,227.55,1
23,6.31,14.33,128.28,1
24,6.32,-40.12,75.76,1
25,6.33,-23.9,223.73,1
26,6.35,20.39,373.82,1
27,6.36,42.86,296.94,1
28,6.37,58.97,173.16,1
29,6.39,49.41,149.36,1
30,6.4,24.33,113.03,1
31,6.41,18.75,34.47,1
32,6.43,1.41,-4.56,1
33,6.44,-26.58,4.68,1
34,6.45,-33.43,8.47,1
35,6.47,-32.87,-57.69,1
36,6.48,-21.62,-172.99,1
37,6.49,1.33,-230.37,1
38,6.51,-0.48,-218.58,1
39,6.52,-23.03,-200.55,1
40,6.53,-29.89,-182.23,1
41,6.55,-29.06,-167.59,1
42,6.56,-42.45,-168.34,1
43,6.57,-28.66,-182.01,1
44,6.59,22.58,-237.69,1
45,6.6,40.81,-300.52,1
46,6.61,38.68,-257.53,1
47,6.63,45.79,-165.82,1
48,6.64,8.41,-240.87,1
49,6.65,-52.77,-425.37,1
50,6.67,-66.65,-399.96,1
51,6.68,-41.94,-190.82,1
52,6.69,-30.32,-133.1,1
53,6.71,-43.69,-193.8,1
54,6.72,-27.64,-98.04,1
55,6.73,20.69,24.82,1
56,6.75,10.74,-67.75,1
57,6.76,-52.76,-193.99,1
58,6.77,-60.18,-147.68,1
59,6.79,-6.56,-52.25,1
60,6.8,22.62,-24.65,1
61,6.81,8.83,-34.29,1
62,6.82,-12.05,-73.68,1
63,6.84,-11.27,-116.62,1
64,6.85,15.41,-86.15,1
65,6.86,31.19,0.07,1
66,6.88,16.05,33.62,1
67,6.89,-5.09,-20.2,1
68,6.91,-17.98,-67.96,0
69,6.92,-22.79,-34.61,0
70,6.93,-20.4,-3.34,0
71,6.95,-13.06,-37.37,0
72,6.96,-1.36,-36.98,0
73,6.97,-2.01,22.84,0
74,6.99,-27.07,32.4,0
75,7.0,-37.01,-5.69,0
76,7.01,9.08,17.4,0
77,7.03,59.89,93.46,0
78,7.04,40.57,118.66,0
79,7.05,-13.44,87.56,0
80,7.07,-18.56,63.32,0
81,7.08,19.89,75.1,0
82,7.09,37.88,127.22,0
83,7.11,19.9,148.93,0
84,7.12,7.54,79.03,0
85,7.13,21.1,62.76,0
86,7.15,22.3,197.81,0
87,7.16,-3.98,267.19,0
88,7.17,-7.63,148.79,0
89,7.19,19.78,66.45,0
90,7.2,26.19,138.02,0
91,7.21,3.58,168.36,0
92,7.23,-16.1,81.3,0
93,7.24,-20.24,59.23,0
94,7.25,-13.65,120.83,0
95,7.27,-7.15,117.43,0
96,7.28,-8.9,112.64,0
97,7.29,-8.74,173.03,0
98,7.31,9.16,142.06,0
99,7.32,29.55,43.74,0
100,7.33,20.9,64.33,0
101,7.35,-6.79,122.98,0
102,7.36,-16.1,94.47,0
103,7.37,0.35,47.51,0
104,7.39,13.63,25.34,0
105,7.4,9.81,40.96,0
106,7.41,23.19,98.69,0
107,7.43,47.88,136.43,0
108,7.44,22.76,144.72,0
109,7.45,-22.63,134.67,0
110,7.47,-17.55,95.97,0
111,7.48,3.72,63.26,0
112,7.49,-2.78,34.35,0
113,7.51,-12.79,-10.58,0
114,7.52,-8.71,-30.48,0
115,7.53,8.13,-5.86,0
116,7.55,19.64,31.38,0
117,7.56,3.07,55.76,0
118,7.57,-12.47,69.85,0
119,7.59,0.5,77.61,0
120,7.6,17.05,73.16,0
121,7.61,18.21,57.02,0
122,7.63,2.72,32.28,0
123,7.64,-24.79,5.71,0
124,7.65,-33.71,-7.34,0
125,7.67,-3.58,-6.41,0
126,7.68,28.64,-24.81,0
127,7.69,18.32,-59.35,0
128,7.71,-15.16,-46.7,0
129,7.72,-13.23,-8.26,0
130,7.73,15.0,-20.05,0
131,7.75,12.06,-31.35,0
132,7.76,7.37,18.22,0
133,7.77,31.85,59.62,0
134,7.79,28.07,50.33,0
135,7.8,-7.58,35.67,0
136,7.81,-20.07,25.9,0
137,7.83,-8.59,-2.36,0
138,7.84,-0.53,-33.73,0
139,7.85,10.15,-30.19,0
140,7.87,28.5,10.66,0
141,7.88,25.54,44.61,0
142,7.89,8.64,25.58,0
143,7.91,11.8,-28.33,0
144,7.92,8.73,-51.13,0
145,7.93,-20.02,-34.48,0
146,7.95,-33.37,-36.91,0
147,7.96,-20.53,-106.48,0
148,7.97,-13.41,-191.88,0
149,7.99,-20.31,-169.33,0
150,8.0,-13.45,-57.25,0
151,8.01,17.59,3.66,0
152,8.03,11.47,2.76,0
153,8.04,-47.6,2.94,0
154,8.05,-60.75,-49.79,0
155,8.07,-15.69,-170.73,0
156,8.08,-9.42,-185.72,0
157,8.09,-36.23,-48.34,0
158,8.1,-19.88,29.89,0
159,8.12,17.88,-9.43,1
160,8.13,20.12,-22.41,1
161,8.15,3.45,-32.72,1
162,8.16,-6.64,-140.73,1
163,8.17,-9.75,-186.93,1
164,8.19,2.85,-16.73,1
165,8.2,15.92,139.53,1
166,8.21,18.29,80.2,1
167,8.23,54.81,-16.3,1
168,8.24,112.74,-28.91,1
169,8.25,105.62,-66.71,1
170,8.27,49.41,-136.04,1
171,8.28,29.39,-154.47,1
172,8.29,31.81,-155.01,1
173,8.31,7.69,-190.33,1
174,8.32,-20.01,-216.98,1
175,8.33,-23.68,-179.02,1
176,8.35,-25.12,-75.46,1
177,8.36,-37.89,49.51,1
178,8.37,-37.56,132.62,1
179,8.39,-19.15,145.84,1
180,8.4,-15.81,120.89,1
181,8.41,-32.58,101.4,1
182,8.43,-37.25,90.77,1
183,8.44,-24.6,67.9,1
184,8.45,-18.79,36.96,1
185,8.47,-22.75,24.13,1
186,8.48,-19.42,34.76,1
187,8.49,-10.9,46.92,1
188,8.51,-12.18,40.07,1
189,8.52,-20.26,22.08,1
190,8.53,-18.2,17.67,1
191,8.55,-2.98,21.69,1
192,8.56,6.86,6.15,1
193,8.57,-0.87,-21.59,1
194,8.59,-12.94,-32.78,1
195,8.6,-18.5,-28.81,1
196,8.61,-21.85,-22.45,1
197,8.63,-17.21,-11.04,1
198,8.64,3.5,2.99,1
199,8.65,22.01,7.28,1
200,8.67,20.49,3.58,1
201,8.68,10.43,6.28,1
202,8.69,2.45,15.7,1
203,8.71,-7.09,16.96,1
204,8.72,-8.67,4.88,1
205,8.73,5.27,-6.44,1
206,8.75,13.58,-2.64,1
207,8.76,5.12,10.68,1
208,8.77,-1.28,15.3,1
209,8.78,-2.3,10.86,1
210,8.8,-9.15,10.45,1
211,8.81,-13.22,7.17,1
212,8.82,-10.27,-3.17,1
213,8.84,-10.23,-4.71,1
214,8.85,-6.33,1.76,1
215,8.87,6.84,-0.45,1
216,8.88,13.97,-11.83,1
217,8.89,9.97,-14.06,1
218,8.91,3.43,1.02,0
219,8.92,-1.67,10.61,0
220,8.93,-0.92,-2.39,0
221,8.95,6.34,-19.89,0
222,8.96,13.92,-22.56,0
223,8.97,19.35,-16.44,0
224,8.99,17.07,-13.33,0
225,9.0,2.55,-11.61,0
226,9.01,-10.65,-5.89,0
227,9.03,-12.33,-0.76,0
228,9.04,-13.63,2.29,0
229,9.05,-17.87,5.88,0
230,9.07,-16.1,0.7,0
231,9.08,-9.48,-12.28,0
232,9.09,-1.05,-12.78,0
233,9.11,9.75,0.08,0
234,9.12,15.3,9.95,0
235,9.13,14.02,11.01,0
236,9.15,15.23,5.73,0
237,9.16,17.37,-1.12,0
238,9.17,11.48,-5.86,0
239,9.19,-1.0,-7.35,0
240,9.2,-11.44,-5.03,0
241,9.21,-16.38,-2.35,0
242,9.23,-12.64,-1.55,0
243,9.24,1.38,-0.56,0
244,9.25,10.65,-2.5,0
245,9.27,4.09,-12.05,0
246,9.28,-0.74,-19.92,0
247,9.29,9.39,-14.86,0
248,9.31,16.19,-4.71,0
249,9.32,6.88,-1.26,0
250,9.33,-2.0,-4.55,0
251,9.35,-1.61,-7.57,0
252,9.36,-2.13,-1.67,0
253,9.37,-5.75,10.7,0
254,9.39,-7.44,10.7,0
255,9.4,-5.26,-0.5,0
256,9.41,-2.23,0.56,0
257,9.43,-3.47,8.26,0
258,9.44,-2.04,1.44,0
259,9.45,8.22,-10.75,0
260,9.47,11.46,-8.14,0
261,9.48,0.59,4.31,0
262,9.49,-5.61,7.39,0
263,9.51,-2.08,2.05,0
264,9.52,-0.12,1.89,0
265,9.53,3.09,3.78,0
266,9.55,13.04,0.03,0
267,9.56,15.26,-1.27,0
268,9.57,0.13,7.09,0
269,9.59,-9.12,15.73,0
270,9.6,6.92,15.99,0
271,9.61,26.21,12.14,0
272,9.63,21.95,10.55,0
273,9.64,4.48,12.76,0
274,9.65,0.22,14.66,0
275,9.67,3.96,12.06,0
276,9.68,-7.7,8.3,0
277,9.69,-17.2,6.38,0
278,9.71,2.46,2.3,0
279,9.72,21.23,-4.16,0
280,9.73,6.98,-6.33,0
281,9.75,-15.09,-1.43,0
282,9.76,-13.24,2.81,0
283,9.77,4.17,-0.94,0
284,9.79,10.41,-5.21,0
285,9.8,3.94,0.08,0
286,9.81,2.79,8.35,0
287,9.83,3.05,8.52,0
288,9.84,-2.33,2.93,0
289,9.85,-0.48,-0.76,0
290,9.87,3.5,-1.81,0
291,9.88,-8.71,-4.59,0
292,9.89,-20.04,-6.83,0
293,9.91,-6.85,2.56,0
294,9.92,8.88,15.73,0
295,9.93,1.18,10.03,0
296,9.95,-9.45,-1.62,0
297,9.96,-0.42,9.61,0
298,9.97,10.59,28.02,0
299,9.99,0.29,22.04,0
300,10.0,-16.15,-0.29,0
301,10.01,-17.37,-11.28,0
302,10.02,-30.09,-5.64,0
303,10.04,-63.15,2.9,0
304,10.05,-59.46,5.69,0
305,10.06,-11.53,4.04,0
306,10.08,14.05,2.29,0
307,10.09,11.07,1.49,0
308,10.1,24.47,-1.77,0
309,10.12,35.26,-3.49,1
310,10.13,12.53,6.04,1
311,10.15,-4.89,17.43,1
312,10.16,8.16,10.21,1
313,10.17,19.15,-8.89,1
314,10.19,13.67,-18.68,1
315,10.2,20.36,-33.57,1
316,10.21,63.63,-78.33,1
317,10.23,117.37,-124.9,1
318,10.24,120.56,-130.97,1
319,10.25,66.6,-113.43,1
320,10.27,24.0,-112.91,1
321,10.28,27.0,-129.48,1
322,10.29,33.36,-137.27,1
323,10.31,15.91,-127.75,1
324,10.32,-8.19,-107.47,1
325,10.33,-27.73,-76.27,1
326,10.35,-35.68,-38.33,1
327,10.36,-21.98,-7.87,1
328,10.37,-9.63,10.76,1
329,10.39,-29.58,25.63,1
330,10.4,-55.43,47.29,1
331,10.41,-47.27,79.13,1
332,10.43,-28.02,109.73,1
333,10.44,-32.69,127.99,1
334,10.45,-40.1,136.29,1
335,10.47,-26.96,138.95,1
336,10.48,-18.3,139.74,1
337,10.49,-32.25,149.62,1
338,10.51,-45.34,170.05,1
339,10.52,-39.45,184.29,1
340,10.53,-28.73,180.2,1
341,10.55,-27.7,159.49,1
342,10.56,-26.68,134.12,1
343,10.57,-20.02,121.76,1
344,10.59,-22.6,120.97,1
345,10.6,-28.21,108.88,1
346,10.61,-15.51,83.34,1
347,10.63,-2.48,67.79,1
348,10.64,-17.35,65.05,1
349,10.65,-32.6,56.98,1
350,10.67,-14.83,43.82,1
351,10.68,10.6,35.89,1
352,10.69,7.09,27.01,1
353,10.71,-10.15,12.2,1
354,10.72,-5.27,5.07,1
355,10.73,11.49,10.0,1
356,10.75,5.38,10.2,1
357,10.76,-11.18,0.79,1
358,10.77,-4.9,-6.26,1
359,10.78,12.13,-10.6,1
360,10.8,14.5,-17.41,1
361,10.81,14.08,-21.59,1
362,10.83,17.93,-21.78,1
363,10.84,5.32,-24.97,1
364,10.85,-14.86,-31.55,1
365,10.87,-4.82,-39.5,1
366,10.88,24.79,-48.31,1
367,10.89,25.73,-52.84,1
368,10.91,2.13,-50.89,0
369,10.92,-0.85,-42.71,0
370,10.93,14.67,-31.8,0
371,10.95,11.26,-34.38,0
372,10.96,-2.57,-52.24,0
373,10.97,7.18,-60.7,0
374,10.99,25.03,-55.39,0
375,11.0,17.32,-54.81,0
376,11.01,-1.28,-55.71,0
377,11.03,-0.68,-48.45,0
378,11.04,9.3,-45.97,0
379,11.05,4.09,-54.91,0
380,11.07,-5.46,-62.25,0
381,11.08,4.03,-61.73,0
382,11.09,14.04,-57.27,0
383,11.11,-0.81,-54.6,0
384,11.12,-9.14,-57.04,0
385,11.13,13.7,-57.88,0
386,11.15,28.7,-50.27,0
387,11.16,14.87,-42.69,0
388,11.17,8.75,-45.78,0
389,11.19,23.65,-55.03,0
390,11.2,25.89,-58.72,0
391,11.21,5.65,-52.63,0
392,11.23,-7.92,-44.39,0
393,11.24,-2.91,-39.14,0
394,11.25,1.55,-30.34,0
395,11.27,-3.78,-24.71,0
396,11.28,-1.17,-35.27,0
397,11.29,13.12,-46.21,0
398,11.31,10.95,-39.79,0
399,11.32,-7.3,-27.52,0
400,11.33,-4.17,-21.48,0
401,11.35,17.1,-16.19,0
402,11.36,19.99,-9.62,0
403,11.37,12.04,-9.79,0
404,11.39,17.04,-17.39,0
405,11.4,18.47,-23.56,0
406,11.41,5.33,-23.95,0
407,11.43,-0.82,-21.75,0
408,11.44,2.68,-21.33,0
409,11.45,-4.23,-20.79,0
410,11.47,-16.31,-14.7,0
411,11.48,-8.55,-4.28,0
412,11.49,12.84,1.5,0
413,11.51,15.6,-2.95,0
414,11.52,-0.87,-8.56,0
415,11.53,-5.58,-5.51,0
416,11.55,3.67,-0.83,0
417,11.56,-1.58,-3.98,0
418,11.57,-14.68,-7.69,0
419,11.59,-0.78,-1.61,0
420,11.6,25.04,7.93,0
421,11.61,19.24,9.31,0
422,11.63,-6.51,5.57,0
423,11.64,-13.3,5.78,0
424,11.65,-5.77,10.1,0
425,11.67,-7.39,14.39,0
426,11.68,-13.49,16.62,0
427,11.69,-12.12,17.11,0
428,11.71,-10.31,17.24,0
429,11.72,-10.78,15.95,0
430,11.73,-4.44,11.78,0
431,11.75,2.84,6.6,0
432,11.76,-0.33,6.07,0
433,11.77,-6.15,12.67,0
434,11.79,-2.49,16.68,0
435,11.8,4.67,12.29,0
436,11.81,4.21,12.18,0
437,11.83,1.94,18.32,0
438,11.84,4.23,17.12,0
439,11.85,3.7,12.77,0
440,11.87,-3.14,16.4,0
441,11.88,-10.04,20.64,0
442,11.89,-7.9,17.69,0
443,11.91,1.5,13.08,0
444,11.92,3.77,13.53,0
445,11.93,0.86,19.63,0
446,11.94,3.67,26.9,0
447,11.96,-1.05,30.06,0
448,11.97,-18.87,32.91,0
449,11.98,-20.77,39.25,0
450,12.0,4.04,34.93,0
451,12.01,8.09,13.09,0
452,12.02,-40.62,0.25,0
453,12.04,-78.74,14.54,0
454,12.05,-41.49,34.03,0
455,12.06,13.73,35.93,0
456,12.08,13.91,27.71,0
457,12.09,-0.94,24.6,0
458,12.11,15.17,26.77,1
459,12.12,29.98,29.85,1
460,12.13,17.35,34.09,1
461,12.15,-0.65,36.31,1
462,12.16,1.69,30.77,1
463,12.17,11.39,20.46,1
464,12.19,3.4,17.2,1
465,12.2,-8.08,39.09,1
466,12.21,2.54,110.11,1
467,12.23,31.82,218.02,1
468,12.24,54.28,291.73,1
469,12.25,41.57,291.4,1
470,12.27,0.18,258.12,1
471,12.28,-34.59,223.59,1
472,12.29,-48.99,176.71,1
473,12.31,-46.86,115.21,1
474,12.32,-37.06,47.71,1
475,12.33,-36.21,-18.46,1
476,12.35,-39.1,-72.23,1
477,12.36,-23.28,-115.66,1
478,12.37,1.53,-159.87,1
479,12.39,10.43,-198.44,1
480,12.4,13.63,-214.05,1
481,12.41,26.77,-204.65,1
482,12.43,29.87,-183.49,1
483,12.44,13.56,-166.35,1
484,12.45,5.68,-162.69,1
485,12.47,15.99,-166.48,1
486,12.48,22.87,-162.72,1
487,12.49,17.77,-147.69,1
488,12.51,12.77,-131.02,1
489,12.52,13.37,-118.44,1
490,12.53,14.65,-104.08,1
491,12.55,16.08,-80.15,1
492,12.56,16.59,-57.74,1
493,12.57,11.63,-57.65,1
494,12.59,8.35,-66.79,1
495,12.6,13.07,-59.67,1
496,12.61,15.56,-50.65,1
497,12.63,9.64,-56.18,1
498,12.64,3.41,-57.05,1
499,12.65,4.83,-37.75,1
500,12.67,11.01,-18.67,1
501,12.68,10.11,-23.77,1
502,12.69,-0.18,-36.85,1
503,12.71,-5.23,-28.79,1
504,12.72,-3.64,-10.51,1
505,12.73,-3.97,-3.81,1
506,12.75,2.97,-0.12,1
507,12.76,15.41,7.43,1
508,12.77,12.76,7.39,1
509,12.79,-4.28,1.12,1
510,12.8,-19.97,2.29,1
511,12.81,-25.08,14.2,1
512,12.83,-16.53,23.59,1
513,12.84,-5.27,23.79,1
514,12.85,-9.09,29.43,1
515,12.87,-17.41,45.16,1
516,12.88,-13.79,51.64,1
517,12.89,-7.56,43.5,1
518,12.91,-3.83,41.71,0
519,12.92,0.67,52.68,0
520,12.93,-3.81,56.01,0
521,12.95,-16.9,44.7,0
522,12.96,-21.12,36.88,0
523,12.97,-10.26,38.67,0
524,12.99,3.31,38.43,0
525,13.0,7.96,33.41,0
526,13.01,2.2,32.34,0
527,13.03,-6.67,38.68,0
528,13.04,-8.38,44.16,0
529,13.05,-6.68,40.83,0
530,13.07,-13.45,35.94,0
531,13.08,-22.37,40.01,0
532,13.09,-20.29,47.3,0
533,13.11,-10.24,47.21,0
534,13.12,-1.04,40.42,0
535,13.13,1.88,37.9,0
536,13.15,-2.76,46.85,0
537,13.16,-6.1,54.79,0
538,13.17,-0.83,46.96,0
539,13.19,5.5,35.94,0
540,13.2,0.44,33.69,0
541,13.21,-8.15,31.27,0
542,13.23,-0.46,30.36,0
543,13.24,12.05,37.9,0
544,13.25,2.82,42.46,0
545,13.27,-14.33,35.92,0
546,13.28,-10.11,26.15,0
547,13.29,5.53,17.32,0
548,13.31,8.61,11.48,0
549,13.32,1.0,14.89,0
550,13.33,-4.82,21.68,0
551,13.35,-2.59,23.09,0
552,13.36,5.9,25.04,0
553,13.37,8.4,28.33,0
554,13.39,0.12,27.28,0
555,13.4,-5.22,23.34,0
556,13.41,-3.13,14.98,0
557,13.43,-7.61,6.19,0
558,13.44,-14.06,8.72,0
559,13.45,-5.1,12.54,0
560,13.47,6.94,1.0,0
561,13.48,7.22,-12.6,0
562,13.49,6.48,-11.35,0
563,13.51,4.85,1.67,0
564,13.52,-6.49,16.34,0
565,13.53,-12.35,13.56,0
566,13.55,-2.44,-8.68,0
567,13.56,6.25,-17.92,0
568,13.57,4.68,-2.05,0
569,13.59,2.86,7.95,0
570,13.6,4.4,-4.8,0
571,13.61,1.77,-16.82,0
572,13.63,-4.1,-10.12,0
573,13.64,2.53,-0.79,0
574,13.65,17.95,-6.47,0
575,13.67,10.05,-16.62,0
576,13.68,-16.24,-16.0,0
577,13.69,-12.55,-9.74,0
578,13.71,18.06,-5.18,0
579,13.72,21.0,-2.6,0
580,13.73,-5.49,-6.78,0
581,13.75,-15.1,-19.29,0
582,13.76,-2.92,-27.26,0
583,13.77,3.55,-19.5,0
584,13.79,5.5,-6.82,0
585,13.8,13.54,-7.1,0
586,13.81,15.75,-14.78,0
587,13.83,5.08,-15.97,0
588,13.84,-2.81,-16.69,0
589,13.85,2.03,-25.87,0
590,13.86,6.3,-31.99,0
591,13.88,-3.51,-24.81,0
592,13.89,-15.6,-17.15,0
593,13.9,-11.42,-20.57,0
594,13.92,-1.22,-27.29,0
595,13.93,1.98,-26.79,0
596,13.94,8.95,-19.31,0
597,13.96,18.1,-11.16,0
598,13.97,10.53,-7.02,0
599,13.98,-3.82,-9.12,0
600,14.0,-0.42,-14.98,0
601,14.01,8.35,-19.32,0
602,14.02,-6.19,-14.96,0
603,14.04,-36.34,-2.75,0
604,14.05,-37.82,-0.43,0
605,14.07,1.63,-12.31,0
606,14.08,22.55,-21.37,0
607,14.09,0.54,-22.42,0
608,14.11,-2.48,-23.12,1
609,14.12,22.72,-28.55,1
610,14.13,20.27,-34.38,1
611,14.15,-0.84,-35.81,1
612,14.16,-2.92,-34.89,1
613,14.17,2.7,-20.62,1
614,14.19,4.57,5.62,1
615,14.2,13.38,9.73,1
616,14.21,23.4,9.61,1
617,14.23,13.79,36.22,1
618,14.24,1.29,24.46,1
619,14.25,7.92,7.57,1
620,14.27,-12.14,153.82,1
621,14.28,-68.86,355.34,1
622,14.29,-67.74,320.0,1
623,14.31,7.1,139.81,1
624,14.32,50.98,69.46,1
625,14.33,40.82,27.15,1
626,14.35,32.6,-55.19,1
627,14.36,30.13,-26.66,1
628,14.37,35.84,52.29,1
629,14.39,65.75,-15.18,1
630,14.4,83.35,-152.27,1
631,14.41,54.7,-160.29,1
632,14.43,0.24,-67.26,1
633,14.44,-30.11,-70.94,1
634,14.45,-7.01,-213.78,1
635,14.47,15.7,-292.21,1
636,14.48,-20.93,-186.83,1
637,14.49,-57.78,-52.53,1
638,14.51,-31.24,-48.29,1
639,14.52,11.63,-119.91,1
640,14.53,6.07,-138.03,1
641,14.55,-38.45,-117.33,1
642,14.56,-49.07,-128.89,1
643,14.57,-2.75,-110.13,1
644,14.59,19.1,-9.35,1
645,14.6,-5.48,66.11,1
646,14.61,1.27,28.58,1
647,14.63,35.87,-55.78,1
648,14.64,25.38,-88.47,1
649,14.65,-15.3,-60.68,1
650,14.67,-21.77,-30.36,1
651,14.68,1.3,-39.82,1
652,14.69,15.61,-64.48,1
653,14.71,17.04,-42.87,1
654,14.72,4.65,15.84,1
655,14.73,-28.08,34.66,1
656,14.75,-47.55,23.75,1
657,14.76,-22.24,41.72,1
658,14.77,9.74,61.92,1
659,14.79,4.93,53.95,1
660,14.8,-6.2,50.44,1
661,14.81,12.12,46.89,1
662,14.83,17.66,-3.82,1
663,14.84,-19.56,-36.81,1
664,14.85,-36.88,32.15,1
665,14.87,-2.17,109.31,1
666,14.88,23.38,88.98,1
667,14.89,10.08,9.15,1
668,14.91,-8.05,-30.16,0
669,14.92,-12.93,15.98,0
670,14.93,-12.22,59.14,0
671,14.95,-9.27,26.98,0
672,14.96,-6.13,7.87,0
673,14.97,-9.43,50.81,0
674,14.99,-25.61,74.78,0
675,15.0,-52.16,47.1,0
676,15.01,-57.39,1.0,0
677,15.03,-15.12,-21.0,0
678,15.04,29.92,7.84,0
679,15.05,25.09,24.68,0
680,15.07,5.64,-11.72,0
681,15.08,14.15,-11.86,0
682,15.09,21.07,49.78,0
683,15.11,7.3,59.53,0
684,15.12,4.68,7.81,0
685,15.13,21.68,20.11,0
686,15.15,24.23,96.18,0
687,15.16,5.73,109.81,0
688,15.17,-1.55,55.21,0
689,15.19,-0.52,26.19,0
690,15.2,-19.05,32.7,0
691,15.21,-30.1,31.54,0
692,15.23,-6.32,13.14,0
693,15.24,6.23,-25.21,0
694,15.25,-11.57,-52.84,0
695,15.27,-7.75,-17.44,0
696,15.28,14.87,53.85,0
697,15.29,-0.41,89.41,0
698,15.31,-28.03,69.73,0
699,15.32,-1.76,37.94,0
700,15.33,45.99,35.83,0
701,15.35,37.47,44.14,0
702,15.36,-18.66,36.8,0
703,15.37,-47.47,24.43,0
704,15.39,-26.76,16.16,0
705,15.4,-12.79,4.35,0
706,15.41,-24.35,-20.94,0
707,15.43,-9.39,-50.48,0
708,15.44,25.47,-52.53,0
709,15.45,9.07,5.42,0
710,15.47,-37.39,71.74,0
711,15.48,-21.16,44.61,0
712,15.49,32.79,-13.72,0
713,15.51,27.6,15.32,0
714,15.52,-13.46,62.44,0
715,15.53,-12.04,54.04,0
716,15.55,7.63,53.61,0
717,15.56,-5.78,57.11,0
718,15.57,-16.39,4.21,0
719,15.59,8.78,-34.27,0
720,15.6,28.71,4.06,0
721,15.61,21.47,21.52,0
722,15.63,18.32,-42.87,0
723,15.64,23.98,-72.31,0
724,15.65,6.18,7.69,0
725,15.67,-20.83,74.34,0
726,15.68,-13.2,23.54,0
727,15.69,8.84,-83.84,0
728,15.71,4.23,-126.28,0
729,15.72,-18.13,-60.07,0
730,15.73,-25.21,30.84,0
731,15.75,-0.77,63.41,0
732,15.76,19.51,25.99,0
733,15.77,0.38,-38.64,0
734,15.78,-17.16,-31.44,0
735,15.8,-0.19,28.54,0
736,15.81,15.57,11.9,0
737,15.82,14.41,-43.71,0
738,15.84,17.82,-23.95,0
739,15.85,21.79,25.19,0
740,15.86,11.35,5.52,0
741,15.88,3.05,-52.74,0
742,15.89,11.46,-53.24,0
743,15.9,12.67,-12.26,0
744,15.92,-4.69,-18.36,0
745,15.93,-13.5,-50.78,0
746,15.94,-5.43,-44.86,0
747,15.96,2.96,-42.51,0
748,15.97,15.47,-81.16,0
749,15.98,24.29,-72.73,0
750,16.0,0.89,8.87,0
751,16.01,-28.42,32.24,0
752,16.03,-33.91,-21.16,0
753,16.04,-44.2,-34.6,0
754,16.05,-52.95,-13.45,0
755,16.07,-28.14,-10.15,0
756,16.08,3.77,3.45,0
757,16.09,17.53,27.69,0
758,16.11,17.28,29.64,1
759,16.12,1.51,8.94,1
760,16.13,-11.16,-9.54,1
761,16.15,-0.38,-3.41,1
762,16.16,21.56,14.01,1
763,16.17,27.67,6.18,1
764,16.19,9.29,-48.82,1
765,16.2,-2.1,-121.31,1
766,16.21,5.73,-142.6,1
767,16.23,10.94,-119.5,1
768,16.24,36.63,-133.24,1
769,16.25,87.09,-191.14,1
770,16.27,89.16,-220.24,1
771,16.28,34.02,-170.75,1
772,16.29,-0.53,-45.2,1
773,16.31,3.17,87.45,1
774,16.32,2.51,135.1,1
775,16.33,-12.21,107.87,1
776,16.35,-22.54,90.47,1
777,16.36,-22.08,103.36,1
778,16.37,-16.41,105.1,1
779,16.39,-14.04,90.36,1
780,16.4,-19.53,81.72,1
781,16.41,-24.95,68.49,1
782,16.42,-19.96,41.52,1
783,16.44,-7.44,25.86,1
784,16.45,-0.2,29.19,1
785,16.46,-6.08,29.82,1
786,16.48,-15.96,23.65,1
787,16.49,-11.76,23.38,1
788,16.5,2.4,33.01,1
789,16.52,2.96,45.73,1
790,16.53,-10.5,42.61,1
791,16.54,-12.66,22.44,1
792,16.56,5.12,11.32,1
793,16.57,18.72,11.96,1
794,16.58,9.3,12.75,1
795,16.6,-8.84,19.43,1
796,16.61,-12.07,21.4,1
797,16.62,0.14,8.69,1
798,16.64,7.03,7.27,1
799,16.65,-3.86,19.16,1
800,16.67,-17.48,14.37,1
801,16.68,-14.77,2.74,1
802,16.69,-4.12,9.94,1
803,16.71,-1.78,16.92,1
804,16.72,-2.52,2.35,1
805,16.73,-3.14,-8.35,1
806,16.75,-6.23,2.62,1
807,16.76,-1.84,15.01,1
808,16.77,7.17,20.41,1
809,16.79,7.58,22.13,1
810,16.8,2.65,15.55,1
811,16.81,-0.64,4.83,1
812,16.83,-0.98,-3.2,1
813,16.84,0.35,-5.21,1
814,16.85,-1.11,2.71,1
815,16.87,-5.28,13.0,1
816,16.88,-7.46,12.99,1
817,16.89,-4.19,3.98,1
818,16.91,2.24,-2.18,0
819,16.92,4.09,1.3,0
820,16.93,1.5,11.07,0
821,16.95,4.43,16.5,0
822,16.96,13.57,9.65,0
823,16.97,15.22,0.96,0
824,16.99,6.17,1.79,0
825,17.0,-1.06,4.46,0
826,17.01,-1.68,1.08,0
827,17.03,-0.6,-7.1,0
828,17.04,0.77,-11.81,0
829,17.05,4.09,-5.61,0
830,17.06,5.68,0.62,0
831,17.08,0.02,-3.08,0
832,17.09,-6.09,-10.08,0
833,17.1,-2.94,-16.77,0
834,17.12,3.16,-13.56,0
835,17.13,1.71,8.77,0
836,17.14,-2.1,21.83,0
837,17.16,0.74,5.31,0
838,17.17,2.31,-14.44,0
839,17.18,-6.9,-21.34,0
840,17.2,-13.78,-21.55,0
841,17.21,-7.23,-10.86,0
842,17.22,-0.16,2.93,0
843,17.24,1.2,-2.82,0
844,17.25,3.42,-19.89,0
845,17.26,0.31,-20.09,0
846,17.28,-8.76,-5.46,0
847,17.29,-8.35,3.16,0
848,17.3,1.09,-0.11,0
849,17.32,3.96,-7.08,0
850,17.33,0.36,-11.93,0
851,17.35,-0.26,-16.97,0
852,17.36,0.77,-20.45,0
853,17.37,0.52,-19.77,0
854,17.39,1.77,-19.32,0
855,17.4,2.07,-21.11,0
856,17.41,-2.84,-24.71,0
857,17.43,-8.39,-24.05,0
858,17.44,-7.57,-9.95,0
859,17.45,3.32,5.35,0
860,17.47,16.52,-1.98,0
861,17.48,14.44,-21.84,0
862,17.49,-2.59,-22.69,0
863,17.51,-12.84,-10.67,0
864,17.52,-5.06,-14.71,0
865,17.53,6.43,-23.78,0
866,17.55,3.17,-17.58,0
867,17.56,-5.15,-16.15,0
868,17.57,0.85,-26.65,0
869,17.59,5.17,-20.29,0
870,17.6,-8.62,-1.98,0
871,17.61,-15.71,-1.95,0
872,17.63,-3.07,-10.58,0
873,17.64,3.77,-4.72,0
874,17.65,-3.85,6.13,0
875,17.67,-6.91,5.06,0
876,17.68,2.25,0.62,0
877,17.69,11.62,4.5,0
878,17.7,9.6,7.29,0
879,17.72,-0.96,5.4,0
880,17.73,-9.33,4.74,0
881,17.75,-8.02,0.06,0
882,17.76,-0.14,-3.28,0
883,17.77,1.2,5.85,0
884,17.78,-1.68,9.29,0
885,17.8,5.77,-4.81,0
886,17.81,13.92,-10.91,0
887,17.82,7.06,0.27,0
888,17.84,-1.81,1.54,0
889,17.85,0.43,-11.24,0
890,17.86,1.74,-13.89,0
891,17.88,-6.31,-2.26,0
892,17.89,-16.45,11.95,0
893,17.9,-17.57,14.52,0
894,17.92,-2.1,-3.34,0
895,17.93,13.98,-19.48,0
896,17.94,10.89,-14.74,0
897,17.96,4.21,-6.93,0
898,17.97,8.62,-8.93,0
899,17.99,10.44,-8.01,0
900,18.0,6.3,9.21,0
901,18.01,6.69,29.5,0
902,18.03,-1.59,21.69,0
903,18.04,-37.36,-1.52,0
904,18.05,-65.61,1.87,0
905,18.07,-38.72,19.46,0
906,18.08,9.97,18.05,0
907,18.09,22.56,7.17,0
908,18.11,12.8,-2.58,1
909,18.12,12.74,-29.42,1
910,18.13,20.54,-83.02,1
911,18.15,35.38,-132.9,1
912,18.16,54.25,-142.48,1
913,18.17,61.5,-127.01,1
914,18.19,57.9,-119.9,1
915,18.2,46.96,-112.63,1
916,18.21,27.99,-97.41,1
917,18.23,28.89,-96.95,1
918,18.24,66.36,-108.22,1
919,18.25,84.14,-99.07,1
920,18.27,34.92,-67.88,1
921,18.28,-26.37,-34.69,1
922,18.29,-42.93,5.79,1
923,18.31,-42.34,51.09,1
924,18.32,-50.84,72.75,1
925,18.33,-50.07,76.62,1
926,18.34,-34.35,94.38,1
927,18.36,-25.9,122.72,1
928,18.37,-30.19,137.99,1
929,18.38,-31.77,137.89,1
930,18.4,-35.55,140.5,1
931,18.41,-50.01,151.56,1
932,18.42,-52.55,154.81,1
933,18.44,-34.02,145.53,1
934,18.45,-23.44,141.26,1
935,18.46,-32.7,145.97,1
936,18.48,-37.38,145.11,1
937,18.49,-24.15,138.63,1
938,18.5,-10.98,131.84,1
939,18.52,-14.66,117.54,1
940,18.53,-18.23,101.14,1
941,18.54,-2.23,95.39,1
942,18.56,11.29,93.72,1
943,18.57,-1.03,84.72,1
944,18.58,-16.28,68.37,1
945,18.6,-11.48,52.44,1
946,18.61,-0.96,40.9,1
947,18.63,-2.57,28.65,1
948,18.64,-11.41,14.87,1
949,18.65,-11.3,6.02,1
950,18.67,1.16,3.24,1
951,18.68,14.03,1.92,1
952,18.69,19.38,-2.1,1
953,18.71,15.81,-8.66,1
954,18.72,5.39,-13.62,1
955,18.73,-1.12,-15.49,1
956,18.75,3.06,-15.25,1
957,18.76,9.11,-15.58,1
958,18.77,7.65,-21.8,1
959,18.79,5.09,-35.1,1
960,18.8,8.45,-46.65,1
961,18.81,9.07,-49.1,1
962,18.83,2.64,-48.23,1
963,18.84,2.73,-48.33,1
964,18.85,14.12,-46.83,1
965,18.87,19.26,-45.7,1
966,18.88,9.65,-47.62,1
967,18.89,-0.31,-52.67,1
968,18.91,1.16,-55.67,0
969,18.92,8.08,-51.05,0
970,18.93,8.65,-45.12,0
971,18.95,4.57,-43.51,0
972,18.96,5.91,-44.2,0
973,18.97,10.02,-47.94,0
974,18.98,8.92,-55.64,0
975,19.0,8.77,-59.58,0
976,19.01,15.68,-53.57,0
977,19.02,20.85,-47.42,0
978,19.04,16.97,-49.13,0
979,19.05,7.57,-48.43,0
980,19.06,3.69,-42.64,0
981,19.08,10.95,-41.18,0
982,19.09,16.47,-43.89,0
983,19.1,10.29,-48.44,0
984,19.12,1.94,-55.18,0
985,19.13,2.53,-55.18,0
986,19.14,12.07,-44.41,0
987,19.16,15.98,-33.55,0
988,19.17,4.65,-29.55,0
989,19.18,-5.63,-31.4,0
990,19.2,-2.11,-39.13,0
991,19.21,5.25,-44.77,0
992,19.22,8.51,-34.77,0
993,19.24,9.54,-18.3,0
994,19.25,9.64,-17.78,0
995,19.265,9.23,-28.89,0
996,19.28,7.35,-27.33,0
997,19.29,5.36,-16.7,0
998,19.31,6.87,-20.5,0
999,19.32,7.28,-29.71,0
1000,19.33,0.21,-21.11,0
1001,19.35,-4.66,-7.03,0
1002,19.36,3.85,-9.79,0
1003,19.37,11.77,-22.16,0
1004,19.39,0.19,-27.76,0
1005,19.4,-14.9,-26.09,0
1006,19.41,-6.69,-20.71,0
1007,19.43,11.06,-14.6,0
1008,19.44,8.53,-13.05,0
1009,19.45,-4.33,-12.06,0
1010,19.47,0.8,-4.6,0
1011,19.48,13.61,2.97,0
1012,19.49,7.54,4.71,0
1013,19.51,-5.05,3.5,0
1014,19.52,-4.5,0.64,0
1015,19.53,-6.85,-0.41,0
1016,19.55,-17.13,1.8,0
1017,19.56,-9.89,0.01,0
1018,19.57,9.53,-2.43,0
1019,19.59,6.7,3.06,0
1020,19.6,-13.2,8.77,0
1021,19.61,-18.4,8.49,0
1022,19.62,-9.23,8.34,0
1023,19.64,-5.52,9.01,0
1024,19.65,-11.51,9.86,0
1025,19.67,-16.53,13.76,0
1026,19.68,-8.99,16.81,0
1027,19.69,4.1,16.55,0
1028,19.7,5.47,17.28,0
1029,19.72,-2.46,19.32,0
1030,19.73,-6.1,19.14,0
1031,19.75,-2.85,14.53,0
1032,19.76,1.32,13.85,0
1033,19.77,1.5,23.85,0
1034,19.78,-1.07,29.44,0
1035,19.8,-5.6,22.22,0
1036,19.81,-11.18,17.68,0
1037,19.82,-12.2,19.65,0
1038,19.84,-9.47,19.46,0
1039,19.85,-9.05,19.75,0
1040,19.86,-8.03,19.02,0
1041,19.88,-1.0,14.76,0
1042,19.89,7.16,17.16,0
1043,19.9,7.28,23.95,0
1044,19.92,3.32,21.93,0
1045,19.93,0.1,15.5,0
1046,19.95,-10.64,14.84,0
1047,19.96,-20.7,19.17,0
1048,19.97,-8.05,22.51,0
1049,19.99,13.32,17.78,0
1050,20.0,13.32,8.26,0
1051,20.01,-0.7,7.36,0
1052,20.03,-17.08,15.26,0
1053,20.04,-49.73,23.88,0
1054,20.05,-75.71,31.83,0
1055,20.07,-47.6,33.0,0
1056,20.08,10.32,19.65,0
1057,20.09,35.86,0.23,0
1058,20.11,19.56,-7.59,1
1059,20.12,-1.42,2.4,1
1060,20.13,2.66,19.74,1
1061,20.15,18.78,24.83,1
1062,20.16,21.26,12.37,1
1063,20.17,12.2,3.56,1
1064,20.19,5.39,12.22,1
1065,20.2,10.57,29.85,1
1066,20.21,21.69,67.77,1
1067,20.23,23.38,150.99,1
1068,20.24,30.41,258.53,1
1069,20.25,43.47,331.62,1
1070,20.26,21.62,335.75,1
1071,20.28,-23.49,287.65,1
1072,20.29,-39.91,224.16,1
1073,20.3,-33.1,153.85,1
1074,20.32,-30.33,79.36,1
1075,20.33,-27.92,17.48,1
1076,20.34,-22.74,-40.46,1
1077,20.36,-21.11,-105.37,1
1078,20.37,-17.51,-163.54,1
1079,20.38,-5.37,-209.8,1
1080,20.4,5.79,-237.28,1
1081,20.41,7.7,-229.71,1
1082,20.42,7.84,-202.73,1
1083,20.44,10.94,-186.44,1
1084,20.45,9.67,-176.95,1
1085,20.46,7.99,-160.81,1
1086,20.48,16.65,-148.49,1
1087,20.49,24.54,-144.69,1
1088,20.5,18.82,-138.59,1
1089,20.52,8.88,-122.95,1
1090,20.53,6.29,-91.12,1
1091,20.54,6.27,-50.62,1
1092,20.56,-0.79,-34.02,1
1093,20.57,-6.46,-57.52,1
1094,20.59,2.32,-90.11,1
1095,20.6,13.63,-96.83,1
1096,20.61,13.06,-79.95,1
1097,20.63,7.8,-61.23,1
1098,20.64,6.94,-54.44,1
1099,20.65,10.23,-55.08,1
1100,20.67,13.16,-49.42,1
1101,20.68,14.86,-34.44,1
1102,20.69,15.65,-17.23,1
1103,20.71,7.01,-7.43,1
1104,20.72,-6.38,-10.23,1
1105,20.73,-3.06,-11.33,1
1106,20.75,13.01,1.13,1
1107,20.76,12.69,7.42,1
1108,20.77,-4.79,-0.28,1
1109,20.79,-9.89,1.72,1
1110,20.8,1.76,15.32,1
1111,20.81,4.29,21.57,1
1112,20.83,-7.55,21.09,1
1113,20.84,-12.39,25.46,1
1114,20.85,-5.43,34.34,1
1115,20.87,-5.85,36.42,1
1116,20.88,-13.18,28.82,1
1117,20.89,-6.14,25.76,1
1118,20.9,8.93,37.42,1
1119,20.92,7.0,52.49,0
1120,20.93,-6.26,54.92,0
1121,20.94,-6.41,46.73,0
1122,20.96,3.13,41.6,0
1123,20.97,2.22,43.48,0
1124,20.98,-1.69,48.83,0
1125,21.0,6.45,52.89,0
1126,21.01,10.98,47.58,0
1127,21.02,0.66,35.26,0
1128,21.04,-3.62,33.91,0
1129,21.05,5.88,45.86,0
1130,21.06,7.3,51.26,0
1131,21.08,-0.71,46.88,0
1132,21.09,-4.09,47.08,0
1133,21.1,-13.21,44.29,0
1134,21.12,-27.63,30.35,0
1135,21.13,-20.44,31.06,0
1136,21.14,2.17,50.52,0
1137,21.16,2.96,50.91,0
1138,21.17,-16.41,33.07,0
1139,21.18,-20.78,30.95,0
1140,21.2,-6.35,37.62,0
1141,21.21,-1.0,31.67,0
1142,21.23,-12.86,25.35,0
1143,21.24,-20.64,34.61,0
1144,21.25,-6.63,41.94,0
1145,21.27,16.63,29.09,0
1146,21.28,20.0,16.22,0
1147,21.29,5.15,22.86,0
1148,21.31,-1.12,30.36,0
1149,21.32,0.86,22.32,0
1150,21.33,-0.28,18.37,0
1151,21.35,0.55,33.47,0
1152,21.36,0.25,40.3,0
1153,21.37,-5.19,19.45,0
1154,21.39,-4.15,3.55,0
1155,21.4,6.45,11.59,0
1156,21.41,10.85,15.34,0
1157,21.43,-2.93,7.47,0
1158,21.44,-19.9,6.65,0
1159,21.45,-12.96,10.69,0
1160,21.47,8.0,14.67,0
1161,21.48,8.04,22.48,0
1162,21.49,-10.28,21.85,0
1163,21.51,-16.23,7.64,0
1164,21.52,-6.71,-0.96,0
1165,21.53,-0.74,-3.04,0
1166,21.54,0.18,-8.12,0
1167,21.56,4.28,-3.59,0
1168,21.57,7.16,7.0,0
1169,21.58,7.94,-0.16,0
1170,21.6,14.54,-18.01,0
1171,21.61,19.68,-20.18,0
1172,21.62,10.06,-6.78,0
1173,21.64,-5.4,-1.53,0
1174,21.65,-7.01,-13.91,0
1175,21.67,1.58,-23.23,0
1176,21.68,-0.7,-14.78,0
1177,21.69,-11.41,-6.79,0
1178,21.7,-10.18,-12.9,0
1179,21.72,0.38,-20.49,0
1180,21.73,0.37,-23.44,0
1181,21.75,-9.84,-28.63,0
1182,21.76,-6.37,-28.36,0
1183,21.77,12.04,-16.37,0
1184,21.78,12.74,-9.93,0
1185,21.8,-9.05,-13.55,0
1186,21.81,-15.78,-12.28,0
1187,21.82,0.42,-11.03,0
1188,21.84,9.55,-17.05,0
1189,21.85,7.67,-16.48,0
1190,21.87,6.87,-9.02,0
1191,21.88,3.01,-10.34,0
1192,21.89,-0.48,-20.6,0
1193,21.91,3.45,-29.82,0
1194,21.92,0.97,-31.39,0
1195,21.93,-13.75,-27.46,0
1196,21.95,-17.12,-25.35,0
1197,21.96,-2.01,-20.79,0
1198,21.97,2.86,-13.14,0
1199,21.99,-7.74,-15.24,0
1200,22.0,-4.43,-23.69,0
1201,22.01,12.53,-20.86,0
1202,22.03,1.04,-12.4,0
1203,22.04,-56.6,-13.87,0
1204,22.05,-98.25,-10.82,0
1205,22.07,-54.63,6.46,0
1206,22.08,27.18,11.01,0
1207,22.09,52.49,-3.72,0
1208,22.11,31.13,-7.62,1
1209,22.12,25.43,1.27,1
1210,22.13,32.42,-7.61,1
1211,22.15,26.64,-34.15,1
1212,22.16,15.71,-48.19,1
1213,22.17,6.21,-55.12,1
1214,22.18,-1.32,-83.36,1
1215,22.2,-0.93,-76.41,1
1216,22.21,-1.26,26.09,1
1217,22.22,0.97,112.84,1
1218,22.24,49.64,70.23,1
1219,22.25,123.95,-12.48,1
1220,22.26,107.29,-6.0,1
1221,22.28,-8.2,91.04,1
1222,22.29,-80.98,173.19,1
1223,22.3,-55.48,140.55,1
1224,22.32,-15.69,41.52,1
1225,22.33,-12.44,-5.87,1
1226,22.34,-14.96,34.33,1
1227,22.36,4.82,95.49,1
1228,22.37,27.38,47.7,1
1229,22.38,22.8,-70.7,1
1230,22.4,7.6,-89.35,1
1231,22.41,11.54,-50.28,1
1232,22.42,15.72,-66.56,1
1233,22.44,-7.23,-87.17,1
1234,22.45,-40.21,-74.74,1
1235,22.46,-47.86,-59.82,1
1236,22.48,-31.76,-14.3,1
1237,22.49,-27.9,41.59,1
1238,22.5,-33.68,-13.93,1
1239,22.52,-18.41,-135.79,1
1240,22.53,7.86,-140.55,1
1241,22.55,16.79,-47.17,1
1242,22.56,3.22,-20.63,1
1243,22.57,-13.19,-77.11,1
1244,22.59,-12.98,-100.42,1
1245,22.6,-6.91,-68.59,1
1246,22.61,-0.7,-49.87,1
1247,22.63,13.88,-22.69,1
1248,22.64,15.81,44.5,1
1249,22.65,-8.04,76.37,1
1250,22.67,-27.4,44.63,1
1251,22.68,-23.86,10.41,1
1252,22.69,-11.48,1.41,1
1253,22.71,0.91,4.8,1
1254,22.72,12.08,-10.54,1
1255,22.73,14.0,-69.33,1
1256,22.75,15.5,-110.95,1
1257,22.76,33.24,-48.37,1
1258,22.77,38.35,77.68,1
1259,22.79,5.2,133.04,1
1260,22.8,-26.56,41.88,1
1261,22.81,-23.37,-91.22,1
1262,22.82,4.26,-82.6,1
1263,22.84,31.7,28.58,1
1264,22.85,27.43,48.08,1
1265,22.86,3.11,-11.91,1
1266,22.88,5.42,-7.11,1
1267,22.89,25.07,27.13,1
1268,22.9,30.77,-0.86,1
1269,22.92,32.24,-15.17,0
1270,22.93,29.86,35.29,0
1271,22.94,4.69,55.14,0
1272,22.96,-21.13,31.73,0
1273,22.97,-12.92,46.63,0
1274,22.98,7.99,68.4,0
1275,23.0,1.8,34.83,0
1276,23.01,-16.41,1.78,0
1277,23.02,-8.88,8.34,0
1278,23.04,9.24,-2.13,0
1279,23.05,-0.46,-30.09,0
1280,23.06,-18.98,-9.39,0
1281,23.08,-6.0,40.16,0
1282,23.09,11.88,46.78,0
1283,23.1,-11.12,11.93,0
1284,23.12,-34.46,-35.06,0
1285,23.13,-5.4,-67.9,0
1286,23.14,25.49,-20.92,0
1287,23.16,1.18,82.75,0
1288,23.17,-30.58,100.41,0
1289,23.19,-0.22,38.35,0
1290,23.2,53.59,33.37,0
1291,23.21,42.87,65.93,0
1292,23.23,-6.0,42.25,0
1293,23.24,-12.17,-2.96,0
1294,23.25,2.61,-13.26,0
1295,23.27,-7.43,-10.49,0
1296,23.28,-9.94,-3.73,0
1297,23.29,8.18,20.52,0
1298,23.31,3.14,43.71,0
1299,23.32,-22.63,47.92,0
1300,23.33,-29.57,22.54,0
1301,23.35,-23.19,-24.53,0
1302,23.36,-21.24,-41.9,0
1303,23.37,-9.31,-28.54,0
1304,23.39,16.89,-33.85,0
1305,23.4,21.89,-27.47,0
1306,23.41,-9.5,23.39,0
1307,23.43,-33.09,63.89,0
1308,23.44,-14.81,47.99,0
1309,23.45,17.75,-8.86,0
1310,23.46,19.69,-35.08,0
1311,23.48,-4.09,0.73,0
1312,23.49,-8.48,25.25,0
1313,23.5,5.78,6.81,0
1314,23.52,-0.69,-4.57,0
1315,23.53,-11.93,-3.06,0
1316,23.54,4.42,-18.65,0
1317,23.56,7.16,-33.95,0
1318,23.57,-26.75,-12.1,0
1319,23.58,-33.8,32.41,0
1320,23.6,-1.73,53.69,0
1321,23.61,0.46,38.04,0
1322,23.62,-28.74,5.08,0
1323,23.64,-27.3,-21.56,0
1324,23.65,5.7,-10.73,0
1325,23.67,14.59,37.6,0
1326,23.68,-6.45,59.2,0
1327,23.69,-11.89,20.57,0
1328,23.7,-3.64,-37.73,0
1329,23.72,-13.86,-64.55,0
1330,23.73,-29.12,-31.28,0
1331,23.75,-22.54,24.56,0
1332,23.76,0.06,21.17,0
1333,23.77,7.65,-31.71,0
1334,23.78,-6.34,-49.83,0
1335,23.8,-11.02,-17.36,0
1336,23.81,-8.51,19.42,0
1337,23.83,-15.18,34.3,0
1338,23.84,-4.6,23.87,0
1339,23.85,18.27,-5.37,0
1340,23.87,15.84,-39.7,0
1341,23.88,11.08,-50.42,0
1342,23.89,30.92,-29.96,0
1343,23.91,36.91,-28.43,0
1344,23.92,9.96,-33.45,0
1345,23.93,-9.9,18.27,0
1346,23.95,-3.16,69.62,0
1347,23.96,4.81,46.12,0
1348,23.97,-0.97,-11.37,0
1349,23.99,-0.6,-34.23,0
1350,24.0,13.64,4.11,0
1351,24.01,14.25,50.42,0
1352,24.03,-16.24,37.54,0
1353,24.04,-57.86,5.79,0
1354,24.05,-69.79,16.64,0
1355,24.07,-38.2,47.87,0
1356,24.08,-4.11,49.44,0
1357,24.09,9.1,0.75,0
1358,24.1,29.39,-43.6,1
1359,24.12,54.01,-5.9,1
1360,24.13,48.9,58.85,1
1361,24.14,12.93,53.26,1
1362,24.16,-20.96,8.4,1
1363,24.17,-14.31,-18.19,1
1364,24.18,18.66,-33.68,1
1365,24.2,28.77,-42.7,1
1366,24.21,17.09,-33.53,1
1367,24.22,11.93,-22.36,1
1368,24.24,34.65,-39.8,1
1369,24.25,79.74,-76.33,1
1370,24.26,90.31,-105.51,1
1371,24.28,50.7,-140.11,1
1372,24.29,20.85,-171.94,1
1373,24.3,17.88,-131.87,1
1374,24.32,9.28,-24.36,1
1375,24.33,-2.73,26.65,1
1376,24.34,-3.55,-17.17,1
1377,24.36,-6.03,-38.06,1
1378,24.37,-18.23,19.14,1
1379,24.38,-27.81,67.39,1
1380,24.4,-22.08,55.92,1
1381,24.41,-7.43,39.99,1
1382,24.42,-7.36,51.63,1
1383,24.44,-22.23,49.92,1
1384,24.45,-21.47,20.83,1
1385,24.46,-4.01,8.44,1
1386,24.48,-0.33,27.19,1
1387,24.49,-12.92,38.9,1
1388,24.51,-16.76,28.26,1
1389,24.52,-6.1,20.86,1
1390,24.53,-1.89,21.14,1
1391,24.55,-11.14,17.05,1
1392,24.56,-15.97,18.19,1
1393,24.57,-11.15,26.04,1
1394,24.59,-7.75,28.2,1
1395,24.6,-3.37,23.72,1
1396,24.61,4.29,13.42,1
1397,24.63,7.14,3.92,1
1398,24.64,5.27,5.0,1
1399,24.65,2.82,7.92,1
1400,24.67,3.28,5.74,1
1401,24.68,3.91,8.03,1
1402,24.69,-3.39,15.6,1
1403,24.71,-5.83,19.75,1
1404,24.72,4.81,16.74,1
1405,24.73,4.67,8.18,1
1406,24.75,-12.12,5.36,1
1407,24.76,-15.94,14.56,1
1408,24.77,-1.05,17.9,1
1409,24.78,9.94,5.68,1
1410,24.8,7.18,-2.78,1
1411,24.81,-3.01,-1.76,1
1412,24.82,-8.89,-2.4,1
1413,24.84,0.28,-0.71,1
1414,24.85,15.81,4.01,1
1415,24.86,12.35,4.86,1
1416,24.88,-10.03,6.74,1
1417,24.89,-23.43,10.84,1
1418,24.9,-22.18,11.15,1
1419,24.92,-18.06,6.42,0
1420,24.93,-8.44,0.48,0
1421,24.94,-0.67,2.64,0
1422,24.96,-8.44,6.22,0
1423,24.97,-14.12,-7.79,0
1424,24.98,-0.0,-21.4,0
1425,25.0,9.74,-4.82,0
1426,25.01,-3.39,17.48,0
1427,25.02,-13.77,13.9,0
1428,25.04,-4.06,1.5,0
1429,25.05,6.17,-0.13,0
1430,25.06,7.71,1.73,0
1431,25.08,12.58,1.1,0
1432,25.09,19.85,-0.7,0
1433,25.1,15.77,-2.89,0
1434,25.12,0.2,-5.06,0
1435,25.13,-9.56,-10.41,0
1436,25.15,-8.31,-15.45,0
1437,25.16,-6.96,-9.18,0
1438,25.17,-3.55,0.5,0
1439,25.19,3.8,-2.32,0
1440,25.2,1.0,-9.01,0
1441,25.21,-10.55,-6.63,0
1442,25.23,-10.88,-3.69,0
1443,25.24,-0.32,-14.39,0
1444,25.25,4.21,-29.32,0
1445,25.27,-0.6,-24.65,0
1446,25.28,-5.66,-7.69,0
1447,25.29,-2.66,-4.83,0
1448,25.31,8.61,-12.96,0
1449,25.32,11.79,-16.06,0
1450,25.33,-3.33,-15.09,0
1451,25.35,-15.74,-14.84,0
1452,25.36,-11.82,-11.35,0
1453,25.37,-6.61,-6.25,0
1454,25.38,-4.79,-7.04,0
1455,25.4,-0.14,-8.22,0
1456,25.41,0.24,-9.22,0
1457,25.42,-3.86,-17.16,0
1458,25.44,-0.58,-19.73,0
1459,25.45,7.2,-8.8,0
1460,25.46,1.94,-1.08,0
1461,25.48,-9.97,-4.76,0
1462,25.49,-2.56,-4.14,0
1463,25.5,13.03,3.36,0
1464,25.52,8.66,-0.84,0
1465,25.53,-0.45,-13.82,0
1466,25.54,4.29,-19.97,0
1467,25.56,6.85,-25.6,0
1468,25.57,2.69,-30.53,0
1469,25.58,3.72,-19.19,0
1470,25.6,5.46,1.71,0
1471,25.61,0.26,6.4,0
1472,25.62,-7.35,-4.9,0
1473,25.64,-10.67,-6.26,0
1474,25.65,-5.91,0.76,0
1475,25.67,6.0,-7.59,0
1476,25.68,16.79,-19.01,0
1477,25.69,17.68,-9.08,0
1478,25.7,6.45,6.43,0
1479,25.72,-9.07,9.1,0
1480,25.73,-14.72,7.67,0
1481,25.75,-4.99,3.46,0
1482,25.76,6.36,-4.38,0
1483,25.77,1.25,-8.56,0
1484,25.79,-6.26,-13.24,0
1485,25.8,7.6,-14.05,0
1486,25.81,19.45,1.83,0
1487,25.83,2.66,17.17,0
1488,25.84,-12.5,8.46,0
1489,25.85,0.74,-10.21,0
1490,25.87,14.72,-13.73,0
1491,25.88,3.09,-9.08,0
1492,25.89,-13.68,-11.94,0
1493,25.91,-8.36,-10.28,0
1494,25.92,10.41,6.81,0
1495,25.93,19.78,17.61,0
1496,25.95,17.82,7.12,0
1497,25.96,12.39,-8.19,0
1498,25.97,1.26,-13.39,0
1499,25.99,-15.34,-4.9,0
1500,26.0,-19.72,13.52,0
1501,26.01,-6.61,22.85,0
1502,26.02,-1.93,14.7,0
1503,26.04,-16.33,7.52,0
1504,26.05,-31.25,8.8,0
1505,26.06,-32.01,8.77,0
1506,26.08,-16.19,5.86,0
1507,26.09,3.05,1.71,0
1508,26.1,15.32,-2.63,1
1509,26.12,28.19,-0.32,1
1510,26.13,32.23,10.53,1
1511,26.14,17.54,18.04,1
1512,26.16,8.01,5.53,1
1513,26.17,14.14,-43.76,1
1514,26.18,17.06,-114.15,1
1515,26.2,14.7,-146.18,1
1516,26.21,22.29,-120.1,1
1517,26.22,37.05,-84.67,1
1518,26.24,42.16,-77.3,1
1519,26.25,50.27,-88.96,1
1520,26.26,70.26,-95.22,1
1521,26.28,59.51,-87.47,1
1522,26.29,17.05,-72.28,1
1523,26.3,2.98,-51.98,1
1524,26.32,12.82,-23.43,1
1525,26.33,-0.24,7.78,1
1526,26.34,-18.99,27.38,1
1527,26.36,-10.38,28.81,1
1528,26.37,-1.61,28.82,1
1529,26.38,-20.48,46.6,1
1530,26.4,-37.23,72.0,1
1531,26.41,-22.16,87.03,1
1532,26.43,0.11,96.24,1
1533,26.44,-6.11,109.85,1
1534,26.45,-31.22,122.75,1
1535,26.47,-41.38,123.64,1
1536,26.48,-33.23,114.09,1
1537,26.49,-29.2,109.67,1
1538,26.51,-31.87,116.18,1
1539,26.52,-27.84,122.33,1
1540,26.53,-25.01,123.68,1
1541,26.55,-33.47,125.24,1
1542,26.56,-36.87,125.98,1
1543,26.57,-28.53,124.62,1
1544,26.59,-25.24,121.34,1
1545,26.6,-27.73,115.02,1
1546,26.61,-18.66,105.62,1
1547,26.63,-1.15,93.03,1
1548,26.64,0.59,79.27,1
1549,26.65,-10.4,63.31,1
1550,26.67,-9.27,44.36,1
1551,26.68,-4.04,33.01,1
1552,26.69,-12.49,31.3,1
1553,26.7,-11.95,26.83,1
1554,26.72,11.89,21.9,1
1555,26.73,23.53,24.77,1
1556,26.75,0.43,21.83,1
1557,26.76,-20.43,1.26,1
1558,26.77,-6.96,-23.94,1
1559,26.78,11.11,-35.34,1
1560,26.8,-0.42,-28.42,1
1561,26.81,-14.17,-19.04,1
1562,26.82,3.73,-23.8,1
1563,26.84,20.75,-33.19,1
1564,26.85,0.84,-33.98,1
1565,26.86,-20.99,-31.69,1
1566,26.88,-7.62,-30.07,1
1567,26.89,11.02,-26.84,1
1568,26.9,0.25,-24.28,1
1569,26.92,-12.29,-24.08,0
1570,26.93,4.96,-32.96,0
1571,26.94,23.45,-53.16,0
1572,26.96,21.27,-63.31,0
1573,26.97,25.59,-51.18,0
1574,26.98,36.42,-35.93,0
1575,27.0,16.23,-34.16,0
1576,27.01,-11.18,-42.37,0
1577,27.02,10.98,-49.66,0
1578,27.04,45.67,-48.19,0
1579,27.05,24.83,-43.19,0
1580,27.06,-12.53,-50.62,0
1581,27.08,-7.53,-64.36,0
1582,27.09,4.04,-61.95,0
1583,27.11,-9.0,-52.33,0
1584,27.12,-6.75,-52.5,0
1585,27.13,16.07,-50.93,0
1586,27.15,15.34,-43.83,0
1587,27.16,-2.41,-42.55,0
1588,27.17,0.69,-47.79,0
1589,27.19,11.13,-55.79,0
1590,27.2,-2.64,-59.56,0
1591,27.21,-20.26,-55.39,0
1592,27.23,-4.56,-53.19,0
1593,27.24,22.17,-50.95,0
1594,27.25,17.69,-40.73,0
1595,27.27,1.2,-35.74,0
1596,27.28,11.15,-41.31,0
1597,27.29,27.84,-41.88,0
1598,27.3,12.99,-35.93,0
1599,27.32,-14.23,-35.76,0
1600,27.33,-11.44,-37.46,0
1601,27.34,6.6,-30.16,0
1602,27.36,3.14,-20.88,0
1603,27.37,-8.6,-21.01,0
1604,27.38,-7.27,-25.06,0
1605,27.4,-11.79,-23.59,0
1606,27.41,-24.77,-22.22,0
1607,27.42,-15.74,-27.45,0
1608,27.44,12.37,-29.11,0
1609,27.45,22.67,-22.12,0
1610,27.46,9.3,-16.72,0
1611,27.48,4.38,-15.56,0
1612,27.49,16.02,-16.61,0
1613,27.5,12.39,-17.57,0
1614,27.52,-7.15,-6.93,0
1615,27.53,-3.57,9.83,0
1616,27.54,15.46,6.35,0
1617,27.56,6.01,-13.13,0
1618,27.57,-18.91,-12.48,0
1619,27.58,-15.41,8.14,0
1620,27.6,2.61,17.89,0
1621,27.61,-0.34,19.65,0
1622,27.62,-9.7,29.27,0
1623,27.64,-0.26,30.55,0
1624,27.65,7.65,10.33,0
1625,27.67,-8.08,-6.5,0
1626,27.68,-16.58,-0.93,0
1627,27.69,0.76,7.02,0
1628,27.7,4.32,2.94,0
1629,27.72,-12.52,1.24,0
1630,27.73,-10.38,10.9,0
1631,27.75,6.18,20.79,0
1632,27.76,4.53,18.72,0
1633,27.77,-10.7,11.95,0
1634,27.79,-8.73,16.13,0
1635,27.8,13.11,26.15,0
1636,27.81,17.25,26.31,0
1637,27.83,-3.32,18.14,0
1638,27.84,-4.89,15.45,0
1639,27.85,18.17,22.62,0
1640,27.87,22.42,27.71,0
1641,27.88,7.25,21.7,0
1642,27.89,8.79,15.65,0
1643,27.91,16.11,19.22,0
1644,27.92,-4.02,22.59,0
1645,27.93,-26.2,18.31,0
1646,27.94,-11.47,13.32,0
1647,27.96,11.29,13.75,0
1648,27.97,4.06,15.51,0
1649,27.98,-5.9,14.09,0
1650,28.0,7.83,17.14,0
1651,28.01,18.6,29.12,0
1652,28.02,10.1,34.43,0
1653,28.04,-5.63,27.02,0
1654,28.05,-29.68,22.69,0
1655,28.06,-50.28,24.84,0
1656,28.08,-39.91,25.0,0
1657,28.09,-5.32,23.17,0
1658,28.1,24.21,15.55,1
1659,28.12,26.05,3.95,1
1660,28.13,6.6,5.88,1
1661,28.14,2.67,20.52,1
1662,28.16,15.3,26.03,1
1663,28.17,8.57,18.32,1
1664,28.18,-15.09,11.12,1
1665,28.2,-22.18,11.16,1
1666,28.21,-12.05,13.52,1
1667,28.22,-10.75,16.85,1
1668,28.24,-4.77,38.11,1
1669,28.25,39.78,100.43,1
1670,28.26,76.89,196.98,1
1671,28.28,37.95,283.85,1
1672,28.29,-25.51,318.37,1
1673,28.3,-33.93,293.65,1
1674,28.32,-24.62,235.33,1
1675,28.33,-44.68,172.64,1
1676,28.34,-51.64,111.89,1
1677,28.36,-24.42,51.55,1
1678,28.37,-11.71,-0.72,1
1679,28.39,-26.78,-49.47,1
1680,28.4,-32.9,-101.71,1
1681,28.41,-22.21,-150.92,1
1682,28.43,-9.34,-192.98,1
1683,28.44,3.11,-217.19,1
1684,28.45,12.78,-210.72,1
1685,28.47,17.94,-188.05,1
1686,28.48,21.15,-172.65,1
1687,28.49,21.36,-166.11,1
1688,28.51,18.4,-161.89,1
1689,28.52,12.78,-156.83,1
1690,28.53,5.42,-147.14,1
1691,28.55,4.77,-133.56,1
1692,28.56,13.06,-119.17,1
1693,28.57,17.2,-105.35,1
1694,28.58,12.66,-95.99,1
1695,28.6,10.44,-89.15,1
1696,28.61,14.62,-73.09,1
1697,28.62,18.38,-45.42,1
1698,28.64,20.28,-28.12,1
1699,28.65,24.24,-35.42,1
1700,28.67,25.47,-46.34,1
1701,28.68,16.08,-44.13,1
1702,28.69,-0.22,-36.07,1
1703,28.7,-9.73,-26.47,1
1704,28.72,-6.86,-18.71,1
1705,28.73,-1.61,-19.44,1
1706,28.75,0.93,-23.68,1
1707,28.76,6.83,-21.43,1
1708,28.77,9.35,-13.18,1
1709,28.78,-3.65,-2.48,1
1710,28.8,-17.61,7.03,1
1711,28.81,-12.01,9.61,1
1712,28.82,-1.15,8.46,1
1713,28.84,-8.12,10.37,1
1714,28.85,-18.01,13.73,1
1715,28.86,-6.87,19.69,1
1716,28.88,6.19,27.05,1
1717,28.89,-2.26,30.08,1
1718,28.9,-9.63,28.9,1
1719,28.92,2.57,18.83,0
1720,28.93,11.15,3.66,0
1721,28.94,1.41,9.95,0
1722,28.96,-10.09,41.9,0
1723,28.97,-11.47,64.65,0
1724,28.98,-7.99,52.8,0
1725,29.0,-0.3,26.69,0
1726,29.01,11.11,24.18,0
1727,29.03,11.3,44.43,0
1728,29.04,-3.4,52.23,0
1729,29.05,-13.33,41.82,0
1730,29.07,-10.75,43.47,0
1731,29.08,-9.2,60.21,0
1732,29.09,-11.56,57.55,0
1733,29.11,-5.32,34.25,0
1734,29.12,9.37,29.32,0
1735,29.13,11.27,50.3,0
1736,29.15,-9.55,61.65,0
1737,29.16,-22.49,45.95,0
1738,29.17,-2.85,31.58,0
1739,29.19,13.98,39.79,0
1740,29.2,-0.26,49.24,0
1741,29.21,-13.59,43.25,0
1742,29.22,-4.84,34.09,0
1743,29.24,5.34,27.34,0
1744,29.25,1.06,21.49,0
1745,29.26,-8.27,24.54,0
1746,29.28,-8.76,36.33,0
1747,29.29,-3.36,41.76,0
1748,29.3,-3.82,31.16,0
1749,29.32,-11.27,16.52,0
1750,29.33,-11.39,17.24,0
1751,29.34,5.0,25.82,0
1752,29.36,18.74,24.49,0
1753,29.37,9.32,25.6,0
1754,29.38,-8.61,39.12,0
1755,29.4,-12.14,39.33,0
1756,29.41,-6.55,18.08,0
1757,29.42,-7.78,3.2,0
1758,29.44,-15.33,3.08,0
1759,29.45,-18.95,6.97,0
1760,29.46,-10.76,12.88,0
1761,29.48,2.47,13.83,0
1762,29.49,1.36,9.17,0
1763,29.5,-7.47,8.76,0
1764,29.52,-1.38,6.25,0
1765,29.53,5.69,-2.87,0
1766,29.54,-3.66,-5.28,0
1767,29.56,-8.25,0.27,0
1768,29.57,2.44,3.97,0
1769,29.58,8.6,2.17,0
1770,29.6,5.78,-9.39,0
1771,29.61,4.81,-18.27,0
1772,29.62,4.29,-1.72,0
1773,29.64,0.07,22.14,0
1774,29.65,-3.03,22.1,0
1775,29.67,-0.04,8.03,0
1776,29.68,2.76,-2.72,0
1777,29.69,-0.58,-11.23,0
1778,29.71,0.88,-15.83,0
1779,29.72,12.36,-17.08,0
1780,29.73,18.01,-21.79,0
1781,29.75,10.08,-23.51,0
1782,29.76,-0.12,-16.19,0
1783,29.77,-2.58,-11.89,0
1784,29.79,0.56,-12.69,0
1785,29.8,3.94,-9.17,0
1786,29.81,10.79,-7.95,0
1787,29.83,20.73,-14.26,0
1788,29.84,19.81,-13.92,0
1789,29.85,7.5,-7.43,0
1790,29.86,0.99,-12.07,0
1791,29.88,-1.69,-21.86,0
1792,29.89,-9.9,-17.44,0
1793,29.9,-8.74,-6.93,0
1794,29.92,7.75,-13.33,0
1795,29.93,17.13,-27.47,0
1796,29.94,10.32,-24.64,0
1797,29.96,2.9,-14.34,0
1798,29.97,4.34,-15.53,0
1799,29.98,8.16,-20.0,0
1800,30.0,7.17,-18.67,0
1801,30.01,0.85,-18.62,0
1802,30.02,-5.81,-20.77,0
1803,30.04,-16.89,-18.44,0
1804,30.05,-43.81,-10.9,0
1805,30.06,-60.8,-2.63,0
1806,30.08,-32.22,-6.49,0
1807,30.09,8.1,-26.62,0
1808,30.1,13.41,-40.41,1
1809,30.12,3.19,-31.73,1
1810,30.13,4.83,-16.13,1
1811,30.14,9.0,-12.9,1
1812,30.16,5.58,-17.52,1
1813,30.17,0.74,-32.12,1
1814,30.18,5.46,-72.47,1
1815,30.2,15.1,-87.77,1
1816,30.21,13.03,-27.39,1
1817,30.22,2.81,39.88,1
1818,30.24,5.81,79.18,1
1819,30.25,35.2,157.25,1
1820,30.26,70.38,235.38,1
1821,30.28,79.46,211.54,1
1822,30.29,67.99,142.63,1
1823,30.3,26.88,128.45,1
1824,30.32,-40.99,142.42,1
1825,30.33,-34.33,125.78,1
1826,30.35,59.36,51.62,1
1827,30.36,79.51,-46.11,1
1828,30.37,-3.58,-52.2,1
1829,30.39,-35.16,11.49,1
1830,30.4,15.38,-39.11,1
1831,30.41,19.72,-169.59,1
1832,30.43,-47.64,-164.92,1
1833,30.44,-82.53,-39.61,1
1834,30.45,-54.1,27.05,1
1835,30.47,-17.0,-2.16,1
1836,30.48,-5.15,-49.04,1
1837,30.49,-24.79,-92.89,1
1838,30.5,-45.89,-164.49,1
1839,30.52,-27.42,-226.45,1
1840,30.53,-1.32,-228.29,1
1841,30.54,-15.92,-225.09,1
1842,30.56,-41.8,-248.16,1
1843,30.57,-40.06,-209.15,1
1844,30.58,-27.99,-83.28,1
1845,30.6,-25.71,-0.38,1
1846,30.61,-16.37,-36.67,1
1847,30.62,2.53,-80.26,1
1848,30.64,3.32,-48.37,1
1849,30.65,-11.86,-13.4,1
1850,30.67,-21.37,1.14,1
1851,30.68,-23.22,35.17,1
1852,30.69,-13.58,42.35,1
1853,30.7,10.19,-7.74,1
1854,30.72,20.86,-43.99,1
1855,30.73,7.22,-24.78,1
1856,30.75,6.87,11.08,1
1857,30.76,17.12,8.03,1
1858,30.77,-1.13,-45.28,1
1859,30.78,-14.75,-76.15,1
1860,30.8,11.7,-22.45,1
1861,30.81,32.2,49.9,1
1862,30.82,21.51,57.16,1
1863,30.84,11.68,29.56,1
1864,30.85,10.43,23.23,1
1865,30.86,9.53,26.77,1
1866,30.88,19.59,12.56,1
1867,30.89,32.76,-17.61,1
1868,30.9,27.48,-29.85,1
1869,30.92,10.57,14.99,0
1870,30.93,9.94,78.52,0
1871,30.94,29.83,77.78,0
1872,30.96,32.0,35.27,0
1873,30.97,-1.32,32.94,0
1874,30.99,-25.33,54.31,0
1875,31.0,-11.25,54.02,0
1876,31.01,9.13,58.72,0
1877,31.03,16.88,57.97,0
1878,31.04,17.28,31.62,0
1879,31.05,8.81,58.68,0
1880,31.07,8.07,118.21,0
1881,31.08,12.86,77.21,0
1882,31.09,-4.42,-2.23,0
1883,31.11,-19.7,33.54,0
1884,31.12,-3.96,125.73,0
1885,31.13,11.9,128.37,0
1886,31.14,2.95,46.99,0
1887,31.16,-11.31,-6.14,0
1888,31.17,-8.48,15.53,0
1889,31.18,4.39,44.17,0
1890,31.2,0.6,29.32,0
1891,31.21,-14.63,8.09,0
1892,31.22,-7.23,-3.44,0
1893,31.24,12.55,-22.33,0
1894,31.25,7.03,-21.32,0
1895,31.26,-14.95,17.91,0
1896,31.28,-24.67,36.57,0
1897,31.29,-22.61,-2.09,0
1898,31.3,-17.09,-18.82,0
1899,31.32,-11.92,24.75,0
1900,31.33,-12.12,32.0,0
1901,31.34,1.73,-29.78,0
1902,31.36,29.25,-48.73,0
1903,31.37,16.46,32.51,0
1904,31.38,-27.32,109.02,0
1905,31.4,-21.49,94.37,0
1906,31.41,27.2,47.31,0
1907,31.42,35.25,26.39,0
1908,31.44,-6.18,5.07,0
1909,31.45,-29.84,-26.73,0
1910,31.46,-15.15,-30.25,0
1911,31.48,-3.69,9.25,0
1912,31.49,-7.81,62.16,0
1913,31.5,-5.5,70.43,0
1914,31.52,4.16,0.82,0
1915,31.53,5.11,-63.34,0
1916,31.54,-7.26,-31.52,0
1917,31.56,-16.32,15.94,0
1918,31.57,-9.78,-1.52,0
1919,31.58,-0.42,-6.56,0
1920,31.6,2.55,26.06,0
1921,31.61,-3.74,27.32,0
1922,31.63,-14.44,16.94,0
1923,31.64,-7.44,22.53,0
1924,31.65,7.41,1.72,0
1925,31.67,-0.46,-26.2,0
1926,31.68,-15.46,-6.41,0
1927,31.69,-9.07,18.75,0
1928,31.71,10.51,-6.32,0
1929,31.72,23.06,-31.9,0
1930,31.73,21.21,-9.45,0
1931,31.75,9.15,28.73,0
1932,31.76,-2.41,54.26,0
1933,31.77,-4.84,58.47,0
1934,31.78,5.55,27.45,0
1935,31.8,18.35,-24.27,0
1936,31.81,12.23,-58.35,0
1937,31.82,-2.08,-46.66,0
1938,31.84,0.31,-2.5,0
1939,31.85,5.59,15.59,0
1940,31.86,2.46,1.11,0
1941,31.88,3.54,20.87,0
1942,31.89,3.46,62.21,0
1943,31.9,2.7,26.18,0
1944,31.92,14.08,-62.36,0
1945,31.93,12.21,-67.98,0
1946,31.94,-18.95,-5.49,0
1947,31.96,-33.44,1.46,0
1948,31.97,-9.35,-21.24,0
1949,31.98,11.0,12.57,0
1950,32.0,9.62,40.76,0
1951,32.01,8.25,-16.98,0
1952,32.03,12.03,-81.61,0
1953,32.04,-0.4,-66.46,0
1954,32.05,-47.86,-28.94,0
1955,32.06,-85.17,-24.21,0
1956,32.08,-56.79,-17.86,0
1957,32.09,-6.46,8.36,0
1958,32.11,16.38,30.32,1
1959,32.12,18.5,19.61,1
1960,32.13,4.42,-20.17,1
1961,32.15,4.33,-27.51,1
1962,32.16,36.82,-1.86,1
1963,32.17,53.16,-33.62,1
1964,32.19,21.62,-90.47,1
1965,32.2,-15.55,-62.64,1
1966,32.21,-6.13,-26.96,1
1967,32.22,24.57,-108.01,1
1968,32.24,31.73,-211.48,1
1969,32.25,50.0,-205.32,1
1970,32.27,86.61,-155.49,1
1971,32.28,73.57,-165.54,1
1972,32.29,18.69,-193.89,1
1973,32.31,-1.55,-159.67,1
1974,32.32,13.94,-80.25,1
1975,32.33,9.83,1.38,1
1976,32.35,-15.71,105.1,1
1977,32.36,-28.7,205.83,1
1978,32.37,-29.78,211.82,1
1979,32.39,-33.43,140.08,1
1980,32.4,-33.74,96.11,1
1981,32.41,-30.89,96.69,1
1982,32.43,-33.9,88.14,1
1983,32.44,-31.35,66.71,1
1984,32.45,-16.48,57.69,1
1985,32.47,-9.16,52.65,1
1986,32.48,-13.61,47.03,1
1987,32.49,-12.53,44.31,1
1988,32.51,-6.11,30.4,1
1989,32.52,-6.51,7.0,1
1990,32.53,-8.95,-6.74,1
1991,32.54,-3.35,0.25,1
1992,32.56,2.73,21.17,1
1993,32.57,0.9,30.89,1
1994,32.59,-1.99,16.06,1
1995,32.6,-1.74,-5.12,1
1996,32.61,-1.8,-8.39,1
1997,32.63,-2.51,8.83,1
1998,32.64,-2.44,26.63,1
1999,32.65,-1.47,30.27,1
2000,32.67,0.54,23.04,1
2001,32.68,0.67,8.42,1
2002,32.69,-5.26,-5.71,1
2003,32.71,-14.97,-4.98,1
2004,32.72,-18.27,3.42,1
2005,32.73,-11.12,2.84,1
2006,32.75,-1.32,-0.26,1
2007,32.76,5.4,-0.73,1
2008,32.77,7.61,-1.75,1
2009,32.79,2.75,5.15,1
2010,32.8,-3.93,14.32,1
2011,32.81,-4.88,6.14,1
2012,32.83,-4.97,-7.78,1
2013,32.84,-8.62,-8.55,1
2014,32.85,-11.26,-8.75,1
2015,32.87,-10.08,-13.99,1
2016,32.88,-4.27,-12.32,1
2017,32.89,5.63,-10.25,1
2018,32.9,10.83,-15.17,1
2019,32.92,4.45,-14.98,0
2020,32.93,0.48,-6.96,0
2021,32.95,13.07,0.31,0
2022,32.96,22.12,5.78,0
2023,32.97,9.32,2.43,0
2024,32.99,1.09,-14.84,0
2025,33.0,18.8,-23.44,0
2026,33.01,35.05,-10.35,0
2027,33.03,23.78,1.38,0
2028,33.04,4.12,-2.85,0
2029,33.05,-2.31,-9.76,0
2030,33.06,-7.67,-5.86,0
2031,33.08,-17.01,4.63,0
2032,33.09,-12.03,6.66,0
2033,33.11,3.19,-0.43,0
2034,33.12,6.19,-0.35,0
2035,33.13,-0.54,5.72,0
2036,33.15,-0.06,-1.25,0
2037,33.16,2.22,-14.38,0
2038,33.17,-2.2,-12.99,0
2039,33.19,0.2,-4.57,0
2040,33.2,12.53,-0.82,0
2041,33.21,14.21,0.99,0
2042,33.22,-2.15,-0.32,0
2043,33.24,-17.14,-4.24,0
2044,33.25,-15.63,-4.13,0
2045,33.27,-0.55,0.82,0
2046,33.28,15.97,5.36,0
2047,33.29,19.4,1.88,0
2048,33.31,15.82,-10.25,0
2049,33.32,22.34,-16.2,0
2050,33.33,25.38,-5.53,0
2051,33.35,10.28,7.46,0
2052,33.36,-4.59,6.77,0
2053,33.37,-7.06,-0.16,0
2054,33.38,-2.32,-1.28,0
2055,33.4,8.78,-3.27,0
2056,33.41,14.68,-10.22,0
2057,33.43,2.32,-9.95,0
2058,33.44,-9.18,-0.68,0
2059,33.45,-1.64,2.69,0
2060,33.47,4.97,-8.08,0
2061,33.48,-3.15,-14.73,0
2062,33.49,-6.71,-0.76,0
2063,33.51,0.44,11.05,0
2064,33.52,-1.94,5.8,0
2065,33.53,-17.58,-1.04,0
2066,33.54,-19.56,-4.29,0
2067,33.56,2.68,2.03,0
2068,33.57,15.02,19.21,0
2069,33.59,-6.36,18.9,0
2070,33.6,-28.42,-2.33,0
2071,33.61,-17.28,-10.41,0
2072,33.63,5.45,-1.14,0
2073,33.64,5.48,3.38,0
2074,33.65,-6.2,4.61,0
2075,33.67,0.16,10.89,0
2076,33.68,16.63,8.74,0
2077,33.69,14.5,-7.76,0
2078,33.71,0.85,-17.03,0
2079,33.72,-1.88,-11.54,0
2080,33.73,-0.28,-13.58,0
2081,33.75,1.15,-20.05,0
2082,33.76,10.66,-3.27,0
2083,33.77,11.05,28.13,0
2084,33.79,-9.09,39.58,0
2085,33.8,-20.23,23.76,0
2086,33.81,-6.74,2.8,0
2087,33.83,4.04,-6.11,0
2088,33.84,-5.71,-7.32,0
2089,33.85,-14.9,-11.43,0
2090,33.87,-4.15,-15.95,0
2091,33.88,5.96,-9.18,0
2092,33.89,-6.97,7.59,0
2093,33.9,-20.31,16.83,0
2094,33.92,-8.04,8.32,0
2095,33.93,9.21,-9.35,0
2096,33.95,7.6,-18.71,0
2097,33.96,0.18,-11.32,0
2098,33.97,-0.04,0.12,0
2099,33.99,-0.28,3.33,0
2100,34.0,-2.11,-1.37,0
2101,34.01,0.46,-13.62,0
2102,34.03,3.51,-23.72,0
2103,34.04,-9.53,-20.3,0
2104,34.05,-46.22,-8.96,0
2105,34.06,-67.67,5.86,0
2106,34.08,-35.85,19.34,0
2107,34.09,7.81,16.75,0
2108,34.11,13.8,-0.63,1
2109,34.12,9.18,-12.35,1
2110,34.13,17.53,-7.39,1
2111,34.15,14.69,-5.18,1
2112,34.16,7.06,-46.66,1
2113,34.17,16.22,-126.1,1
2114,34.19,20.67,-171.44,1
2115,34.2,13.16,-151.47,1
2116,34.21,17.26,-124.07,1
2117,34.23,24.46,-132.47,1
2118,34.24,26.39,-148.08,1
2119,34.25,56.53,-141.56,1
2120,34.27,101.74,-119.78,1
2121,34.28,95.83,-84.5,1
2122,34.29,44.18,-35.78,1
2123,34.31,9.1,3.16,1
2124,34.32,9.04,22.12,1
2125,34.33,19.26,42.94,1
2126,34.35,13.44,74.12,1
2127,34.36,-8.6,96.45,1
2128,34.37,-17.92,107.89,1
2129,34.38,-9.42,124.66,1
2130,34.4,-16.98,139.82,1
2131,34.41,-41.0,143.8,1
2132,34.43,-43.36,148.83,1
2133,34.44,-31.73,155.21,1
2134,34.45,-40.15,146.17,1
2135,34.47,-48.5,126.26,1
2136,34.48,-28.25,121.07,1
2137,34.49,-13.89,135.0,1
2138,34.51,-35.57,143.74,1
2139,34.52,-53.67,131.94,1
2140,34.53,-34.01,110.43,1
2141,34.54,-12.95,99.42,1
2142,34.56,-25.57,102.54,1
2143,34.57,-41.61,101.08,1
2144,34.59,-32.77,85.5,1
2145,34.6,-24.4,69.14,1
2146,34.61,-26.55,56.73,1
2147,34.63,-11.75,43.33,1
2148,34.64,9.25,36.77,1
2149,34.65,-0.79,35.45,1
2150,34.67,-23.39,25.09,1
2151,34.68,-18.89,11.45,1
2152,34.69,-3.52,7.67,1
2153,34.71,-9.18,8.63,1
2154,34.72,-17.09,3.71,1
2155,34.73,0.59,-8.86,1
2156,34.75,18.88,-21.69,1
2157,34.76,9.26,-27.05,1
2158,34.77,-0.17,-29.16,1
2159,34.79,12.5,-30.49,1
2160,34.8,9.67,-24.61,1
2161,34.81,-17.03,-19.06,1
2162,34.83,-14.85,-24.54,1
2163,34.84,15.29,-32.83,1
2164,34.85,20.51,-40.1,1
2165,34.87,8.53,-54.6,1
2166,34.88,15.34,-65.02,1
2167,34.89,24.54,-51.47,1
2168,34.91,8.55,-30.87,0
2169,34.92,-13.82,-37.14,0
2170,34.93,-6.16,-58.52,0
2171,34.95,18.39,-61.88,0
2172,34.96,18.29,-56.54,0
2173,34.97,0.47,-61.64,0
2174,34.99,2.42,-64.55,0
2175,35.0,19.24,-57.06,0
2176,35.01,18.54,-48.41,0
2177,35.03,5.29,-43.88,0
2178,35.04,6.86,-45.31,0
2179,35.05,17.17,-49.01,0
2180,35.06,13.45,-47.46,0
2181,35.08,3.63,-41.99,0
2182,35.09,5.86,-40.83,0
2183,35.11,8.83,-47.26,0
2184,35.12,2.65,-52.69,0
2185,35.13,3.97,-47.91,0
2186,35.15,10.87,-38.94,0
2187,35.16,1.07,-36.41,0
2188,35.17,-9.52,-39.55,0
2189,35.19,6.22,-39.35,0
2190,35.2,20.1,-34.37,0
2191,35.21,2.86,-32.53,0
2192,35.22,-12.26,-31.38,0
2193,35.24,3.73,-23.29,0
2194,35.25,20.34,-18.29,0
2195,35.27,13.57,-25.79,0
2196,35.28,7.3,-35.29,0
2197,35.29,14.2,-36.8,0
2198,35.31,14.31,-32.74,0
2199,35.32,7.48,-30.46,0
2200,35.33,16.28,-31.76,0
2201,35.35,32.47,-26.54,0
2202,35.36,24.99,-12.39,0
2203,35.37,-1.62,-3.81,0
2204,35.38,-12.26,-6.33,0
2205,35.4,-0.98,-12.81,0
2206,35.41,3.91,-18.97,0
2207,35.43,-3.41,-21.57,0
2208,35.44,1.44,-14.81,0
2209,35.45,16.14,-1.17,0
2210,35.47,9.32,4.37,0
2211,35.48,-13.83,-0.71,0
2212,35.49,-15.47,-0.86,0
2213,35.51,-2.44,6.72,0
2214,35.52,-6.89,9.4,0
2215,35.53,-12.92,3.82,0
2216,35.55,0.14,-5.4,0
2217,35.56,5.48,-12.57,0
2218,35.57,-6.38,-8.39,0
2219,35.59,-2.11,3.85,0
2220,35.6,21.96,7.76,0
2221,35.61,28.35,6.16,0
2222,35.63,5.06,9.42,0
2223,35.64,-17.06,9.82,0
2224,35.65,-15.87,6.46,0
2225,35.67,-7.64,8.11,0
2226,35.68,-7.98,11.02,0
2227,35.69,-2.83,12.18,0
2228,35.71,13.13,17.96,0
2229,35.72,19.9,23.42,0
2230,35.73,9.48,15.23,0
2231,35.75,-3.2,2.64,0
2232,35.76,-3.16,7.0,0
2233,35.77,1.12,21.46,0
2234,35.79,-5.76,24.66,0
2235,35.8,-10.41,19.0,0
2236,35.81,-1.16,17.26,0
2237,35.83,2.87,19.64,0
2238,35.84,-4.47,24.88,0
2239,35.85,-7.77,28.82,0
2240,35.87,-7.05,23.19,0
2241,35.88,-10.8,18.59,0
2242,35.89,-11.36,26.13,0
2243,35.9,-0.2,29.83,0
2244,35.92,5.62,20.62,0
2245,35.93,-8.24,13.28,0
2246,35.95,-20.36,12.27,0
2247,35.96,-15.06,11.95,0
2248,35.97,-9.72,14.12,0
2249,35.99,-10.02,16.95,0
2250,36.0,-1.48,17.7,0
2251,36.01,10.11,22.07,0
2252,36.03,4.61,27.66,0
2253,36.04,-18.39,27.89,0
2254,36.05,-43.87,27.07,0
2255,36.06,-55.05,25.42,0
2256,36.08,-37.11,20.52,0
2257,36.09,-3.78,14.99,0
2258,36.11,13.57,8.1,1
2259,36.12,18.12,5.09,1
2260,36.13,28.36,14.7,1
2261,36.15,29.68,25.34,1
2262,36.16,6.54,24.66,1
2263,36.17,-13.1,38.25,1
2264,36.19,-2.48,102.22,1
2265,36.2,10.97,202.28,1
2266,36.21,0.17,284.53,1
2267,36.23,-18.23,311.68,1
2268,36.24,-24.16,286.79,1
2269,36.25,-2.62,231.04,1
2270,36.27,39.83,157.41,1
2271,36.28,45.26,82.38,1
2272,36.29,-0.5,29.02,1
2273,36.31,-24.33,-4.89,1
2274,36.32,-2.82,-43.25,1
2275,36.33,5.82,-93.79,1
2276,36.35,-9.94,-146.69,1
2277,36.36,-10.71,-189.79,1
2278,36.37,1.64,-204.41,1
2279,36.38,6.1,-184.77,1
2280,36.4,8.01,-162.89,1
2281,36.41,11.18,-169.46,1
2282,36.43,9.06,-187.4,1
2283,36.44,3.23,-183.37,1
2284,36.45,1.36,-156.37,1
2285,36.47,8.01,-128.01,1
2286,36.48,9.13,-113.24,1
2287,36.49,-8.86,-112.5,1
2288,36.51,-17.91,-115.46,1
2289,36.52,4.57,-109.08,1
2290,36.53,19.45,-95.47,1
2291,36.54,2.14,-86.74,1
2292,36.56,-2.51,-80.26,1
2293,36.57,25.14,-69.05,1
2294,36.59,35.93,-59.0,1
2295,36.6,10.58,-52.47,1
2296,36.61,-4.89,-43.58,1
2297,36.63,9.88,-35.1,1
2298,36.64,20.49,-32.38,1
2299,36.65,7.92,-27.85,1
2300,36.67,-8.65,-17.32,1
2301,36.68,-10.98,-9.67,1
2302,36.69,-3.65,-5.83,1
2303,36.71,-0.61,7.68,1
2304,36.72,-4.72,29.2,1
2305,36.73,-8.6,31.36,1
2306,36.75,-9.22,7.48,1
2307,36.76,-7.56,-4.92,1
2308,36.77,-2.38,16.28,1
2309,36.79,5.94,37.09,1
2310,36.8,9.24,28.35,1
2311,36.81,2.54,15.26,1
2312,36.83,-6.7,22.46,1
2313,36.84,-11.75,35.68,1
2314,36.85,-11.11,41.33,1
2315,36.87,-6.23,43.4,1
2316,36.88,-5.45,43.98,1
2317,36.89,-11.97,42.25,1
2318,36.9,-13.49,39.41,1
2319,36.92,-9.75,42.58,0
2320,36.93,-14.14,53.18,0
2321,36.95,-20.03,55.52,0
2322,36.96,-13.29,44.25,0
2323,36.97,-2.3,34.12,0
2324,36.99,2.85,32.21,0
2325,37.0,6.44,36.4,0
2326,37.01,6.84,42.36,0
2327,37.03,0.25,42.04,0
2328,37.04,-1.76,41.06,0
2329,37.05,2.98,45.66,0
2330,37.06,-2.77,45.61,0
2331,37.08,-13.94,41.41,0
2332,37.09,-3.49,42.49,0
2333,37.11,19.86,40.18,0
2334,37.12,21.46,28.65,0
2335,37.13,0.95,20.49,0
2336,37.15,-13.94,20.39,0
2337,37.16,-14.13,22.91,0
2338,37.17,-9.69,28.16,0
2339,37.19,-6.53,34.79,0
2340,37.2,-6.27,39.18,0
2341,37.21,-10.91,41.82,0
2342,37.22,-15.95,36.73,0
2343,37.24,-9.87,21.33,0
2344,37.25,7.51,12.9,0
2345,37.27,14.31,22.64,0
2346,37.28,0.38,32.61,0
2347,37.29,-12.44,26.33,0
2348,37.31,-10.69,14.77,0
2349,37.32,-5.25,13.38,0
2350,37.33,-1.44,21.01,0
2351,37.35,7.03,24.96,0
2352,37.36,14.24,20.18,0
2353,37.37,7.51,16.58,0
2354,37.38,-5.37,23.56,0
2355,37.4,-7.82,36.47,0
2356,37.41,-2.92,36.43,0
2357,37.43,-0.73,16.25,0
2358,37.44,3.51,-0.14,0
2359,37.45,14.06,0.37,0
2360,37.47,17.64,0.56,0
2361,37.48,3.98,-2.76,0
2362,37.49,-10.9,-0.79,0
2363,37.51,-8.61,-1.25,0
2364,37.52,3.5,-6.13,0
2365,37.53,11.08,-5.6,0
2366,37.54,15.03,-3.55,0
2367,37.56,15.02,-4.09,0
2368,37.57,3.42,-1.6,0
2369,37.59,-7.42,-1.87,0
2370,37.6,-4.11,-9.47,0
2371,37.61,-4.14,-11.05,0
2372,37.63,-15.78,-1.99,0
2373,37.64,-14.26,3.17,0
2374,37.65,4.52,-1.47,0
2375,37.67,10.71,-5.95,0
2376,37.68,-4.05,-8.48,0
2377,37.69,-13.92,-16.85,0
2378,37.71,-3.61,-29.31,0
2379,37.72,10.32,-31.84,0
2380,37.73,12.21,-19.7,0
2381,37.75,9.84,-8.59,0
2382,37.76,11.71,-9.8,0
2383,37.77,8.19,-15.59,0
2384,37.79,-5.83,-18.26,0
2385,37.8,-9.57,-15.79,0
2386,37.81,3.29,-10.43,0
2387,37.83,4.57,-11.96,0
2388,37.84,-7.48,-22.28,0
2389,37.85,-2.28,-25.39,0
2390,37.87,11.68,-14.58,0
2391,37.88,5.37,-8.23,0
2392,37.89,-4.5,-17.66,0
2393,37.9,5.81,-28.99,0
2394,37.92,16.11,-29.13,0
2395,37.93,8.85,-21.88,0
2396,37.95,2.98,-17.81,0
2397,37.96,7.67,-19.12,0
2398,37.97,7.38,-13.98,0
2399,37.99,1.81,-3.97,0
2400,38.0,5.49,-8.01,0
2401,38.01,11.75,-17.48,0
2402,38.03,2.95,-14.19,0
2403,38.04,-9.28,-9.54,0
2404,38.05,-8.77,-11.13,0
2405,38.06,-18.73,-11.29,0
2406,38.08,-45.38,-14.23,0
2407,38.09,-40.08,-24.68,0
2408,38.11,3.33,-26.77,1
2409,38.12,22.7,-14.69,1
2410,38.13,-3.96,-15.92,1
2411,38.15,-27.3,-36.7,1
2412,38.16,-8.34,-56.48,1
2413,38.17,25.61,-39.74,1
2414,38.19,29.38,63.0,1
2415,38.2,5.17,175.85,1
2416,38.21,-16.24,180.4,1
2417,38.22,-16.84,132.0,1
2418,38.24,-6.14,79.88,1
2419,38.25,13.99,6.22,1
2420,38.27,64.35,11.66,1
2421,38.28,107.24,132.65,1
2422,38.29,62.76,153.55,1
2423,38.31,-40.29,-8.49,1
2424,38.32,-66.69,-89.24,1
2425,38.33,5.2,2.02,1
2426,38.35,29.17,50.51,1
2427,38.36,-21.78,10.02,1
2428,38.37,-17.63,-28.62,1
2429,38.38,31.68,-68.59,1
2430,38.4,25.2,-87.37,1
2431,38.41,-10.38,-46.68,1
2432,38.43,-10.94,-15.14,1
2433,38.44,3.29,-98.93,1
2434,38.45,-0.84,-266.69,1
2435,38.47,0.08,-298.9,1
2436,38.48,23.3,-131.67,1
2437,38.49,27.09,-11.83,1
2438,38.51,-7.47,-37.78,1
2439,38.52,-28.93,-66.95,1
2440,38.53,-17.47,-72.96,1
2441,38.54,-12.16,-106.56,1
2442,38.56,-15.03,-128.57,1
2443,38.57,-0.48,-96.74,1
2444,38.59,12.89,-37.35,1
2445,38.6,0.1,-1.5,1
2446,38.61,-14.46,-5.89,1
2447,38.63,-8.17,-30.2,1
2448,38.64,-8.68,-54.19,1
2449,38.65,-27.88,-63.28,1
2450,38.67,-18.16,-50.95,1
2451,38.68,24.49,-24.91,1
2452,38.69,26.81,5.59,1
2453,38.71,-11.65,27.49,1
2454,38.72,-9.21,32.14,1
2455,38.73,20.67,27.81,1
2456,38.75,-3.35,29.41,1
2457,38.76,-40.37,51.38,1
2458,38.77,-4.0,69.99,1
2459,38.79,40.51,40.53,1
2460,38.8,6.19,-2.47,1
2461,38.81,-35.6,7.33,1
2462,38.83,-13.98,31.62,1
2463,38.84,16.31,0.51,1
2464,38.85,16.27,-30.54,1
2465,38.87,19.08,13.19,1
2466,38.88,26.15,51.15,1
2467,38.89,2.82,20.45,1
2468,38.9,-35.26,19.59,1
2469,38.92,-38.71,65.89,0
2470,38.93,-6.42,59.8,0
2471,38.95,16.77,21.61,0
2472,38.96,9.93,21.4,0
2473,38.97,1.23,35.99,0
2474,38.99,9.54,43.83,0
2475,39.0,6.14,64.76,0
2476,39.01,-19.98,91.87,0
2477,39.03,-21.48,93.93,0
2478,39.04,12.25,57.32,0
2479,39.05,18.53,0.64,0
2480,39.06,-7.36,-28.06,0
2481,39.08,0.38,5.24,0
2482,39.09,28.78,63.01,0
2483,39.11,18.73,69.84,0
2484,39.12,-5.55,23.33,0
2485,39.13,-4.39,-10.33,0
2486,39.15,1.44,-1.3,0
2487,39.16,0.9,25.57,0
2488,39.17,11.31,37.23,0
2489,39.19,22.25,27.94,0
2490,39.2,1.32,14.07,0
2491,39.21,-43.78,11.79,0
2492,39.22,-53.86,34.65,0
2493,39.24,-10.48,53.62,0
2494,39.25,17.85,17.42,0
2495,39.27,-7.92,-25.32,0
2496,39.28,-26.41,15.41,0
2497,39.29,-1.04,78.34,0
2498,39.31,11.12,51.76,0
2499,39.32,-12.36,-11.87,0
2500,39.33,-16.67,-13.1,0
2501,39.35,-0.37,15.65,0
2502,39.36,-15.49,28.07,0
2503,39.37,-41.48,43.51,0
2504,39.38,-22.73,33.77,0
2505,39.4,19.42,-22.54,0
2506,39.41,23.27,-44.03,0
2507,39.43,-3.84,-2.74,0
2508,39.44,-2.65,6.47,0
2509,39.45,15.82,-40.62,0
2510,39.47,5.45,-65.91,0
2511,39.48,-2.37,-44.18,0
2512,39.49,18.56,-5.73,0
2513,39.51,19.2,35.37,0
2514,39.52,-11.41,47.33,0
2515,39.53,-18.44,4.9,0
2516,39.54,8.31,-23.73,0
2517,39.56,15.76,1.9,0
2518,39.57,-13.61,5.42,0
2519,39.59,-30.37,-26.42,0
2520,39.6,-10.96,-28.27,0
2521,39.61,1.71,-20.48,0
2522,39.63,-6.42,-32.71,0
2523,39.64,5.59,-7.94,0
2524,39.65,31.6,43.83,0
2525,39.67,17.94,29.25,0
2526,39.68,-19.74,-30.31,0
2527,39.69,-18.98,-43.17,0
2528,39.71,4.92,-3.04,0
2529,39.72,2.45,38.99,0
2530,39.73,-4.64,34.36,0
2531,39.75,16.56,-2.7,0
2532,39.76,32.77,-5.74,0
2533,39.77,9.31,9.2,0
2534,39.79,-21.52,-20.2,0
2535,39.8,-15.3,-44.08,0
2536,39.81,7.87,-4.46,0
2537,39.83,6.33,28.76,0
2538,39.84,-1.24,11.79,0
2539,39.85,17.48,-0.65,0
2540,39.87,30.98,6.42,0
2541,39.88,9.69,-8.18,0
2542,39.89,-8.43,-33.97,0
2543,39.9,6.56,-19.44,0
2544,39.92,18.63,14.61,0
2545,39.93,3.11,28.85,0
2546,39.95,-5.37,40.81,0
2547,39.96,8.26,39.68,0
2548,39.97,11.87,12.65,0
2549,39.99,-0.97,2.29,0
2550,40.0,-8.29,-1.13,0
2551,40.01,-11.75,-32.88,0
2552,40.03,-20.36,-30.97,0
2553,40.04,-19.98,31.06,0
2554,40.05,-8.8,48.19,0
2555,40.065,-19.07,-15.31,0
2556,40.08,-47.74,-71.47,0
2557,40.09,-38.2,-67.84,0
2558,40.11,13.08,-17.96,1
2559,40.12,39.65,19.65,1
2560,40.13,14.45,0.87,1
2561,40.15,-12.12,-22.51,1
2562,40.16,3.2,-7.7,1
2563,40.17,30.3,-19.77,1
2564,40.19,31.02,-100.56,1
2565,40.2,22.53,-175.44,1
2566,40.21,25.92,-187.44,1
2567,40.22,23.73,-175.75,1
2568,40.24,6.56,-167.83,1
2569,40.25,14.15,-140.38,1
2570,40.27,64.24,-65.88,1
2571,40.28,86.71,75.01,1
2572,40.29,36.94,223.5,1
2573,40.31,-15.38,258.97,1
2574,40.32,-14.9,195.18,1
2575,40.33,-6.29,150.77,1
2576,40.35,-24.56,144.37,1
2577,40.36,-36.42,119.69,1
2578,40.37,-25.56,70.36,1
2579,40.38,-23.71,32.52,1
2580,40.4,-38.22,19.52,1
2581,40.41,-36.91,15.24,1
2582,40.43,-17.88,8.94,1
2583,40.44,-12.78,1.67,1
2584,40.45,-21.38,-1.63,1
2585,40.47,-20.37,-1.1,1
2586,40.48,-13.78,-11.26,1
2587,40.49,-14.57,-32.74,1
2588,40.51,-15.42,-38.09,1
2589,40.52,-11.04,-18.99,1
2590,40.53,-8.24,0.16,1
2591,40.54,-9.45,3.07,1
2592,40.56,-10.55,0.23,1
2593,40.57,-11.5,3.25,1
2594,40.59,-17.02,1.39,1
2595,40.6,-19.63,-10.07,1
2596,40.61,-7.56,-17.25,1
2597,40.63,6.12,-19.79,1
2598,40.64,3.47,-24.34,1
2599,40.65,-5.45,-26.11,1
2600,40.67,-4.03,-21.91,1
2601,40.68,8.61,-13.99,1
2602,40.69,20.59,-5.91,1
2603,40.71,18.92,-1.37,1
2604,40.72,6.33,-2.84,1
2605,40.73,-5.32,-10.0,1
2606,40.75,-11.79,-14.31,1
2607,40.76,-5.27,-7.8,1
2608,40.77,13.01,0.77,1
2609,40.79,15.2,-1.35,1
2610,40.8,-7.14,-12.89,1
2611,40.81,-19.32,-20.33,1
2612,40.83,-4.89,-12.38,1
2613,40.84,11.47,-2.23,1
2614,40.85,11.43,-10.38,1
2615,40.87,3.35,-20.22,1
2616,40.88,3.26,-11.08,1
2617,40.89,9.85,-1.68,1
2618,40.9,8.16,-4.91,1
2619,40.92,1.04,-6.93,0
2620,40.93,1.94,-5.75,0
2621,40.95,4.1,-10.51,0
2622,40.96,4.62,-17.91,0
2623,40.97,13.93,-17.1,0
2624,40.99,19.84,-9.19,0
2625,41.0,5.25,-8.31,0
2626,41.01,-8.09,-12.5,0
2627,41.03,5.31,-8.93,0
2628,41.04,23.63,-4.56,0
2629,41.05,14.1,-10.62,0
2630,41.06,-8.73,-19.97,0
2631,41.08,-9.59,-20.28,0
2632,41.09,7.59,-7.25,0
2633,41.11,14.95,8.16,0
2634,41.12,8.62,10.17,0
2635,41.13,4.09,4.19,0
2636,41.15,6.95,-0.42,0
2637,41.16,7.48,-8.37,0
2638,41.17,-2.32,-13.2,0
2639,41.19,-12.82,-7.01,0
2640,41.2,-9.2,-2.41,0
2641,41.21,5.21,-5.73,0
2642,41.22,10.69,-6.94,0
2643,41.24,2.84,-4.39,0
2644,41.25,0.03,-3.57,0
2645,41.27,5.21,-3.83,0
2646,41.28,6.4,0.12,0
2647,41.29,7.38,8.29,0
2648,41.31,6.45,11.73,0
2649,41.32,-5.83,8.99,0
2650,41.33,-13.01,4.89,0
2651,41.35,-2.69,-2.15,0
2652,41.36,6.86,-9.57,0
2653,41.37,2.37,-7.15,0
2654,41.38,-3.75,8.21,0
2655,41.4,2.97,18.19,0
2656,41.41,12.61,8.85,0
2657,41.43,6.64,-2.96,0
2658,41.44,-5.29,-4.18,0
2659,41.45,-6.04,0.13,0
2660,41.47,-4.95,6.95,0
2661,41.48,-9.11,11.05,0
2662,41.49,-3.1,8.56,0
2663,41.51,11.27,4.89,0
2664,41.52,11.68,3.96,0
2665,41.53,2.44,6.04,0
2666,41.54,1.89,10.61,0
2667,41.56,1.29,6.36,0
2668,41.57,-8.32,-10.91,0
2669,41.59,-12.84,-13.71,0
2670,41.6,-5.59,7.17,0
2671,41.61,-0.08,13.9,0
2672,41.63,-3.19,0.14,0
2673,41.64,-4.49,-1.1,0
2674,41.65,1.13,5.2,0
2675,41.67,6.52,3.04,0
2676,41.68,8.51,3.18,0
2677,41.69,7.91,3.51,0
2678,41.71,3.53,-1.86,0
2679,41.72,0.68,-2.85,0
2680,41.73,4.37,-3.37,0
2681,41.75,7.53,-8.43,0
2682,41.76,5.48,-5.1,0
2683,41.77,3.05,5.04,0
2684,41.79,-1.43,7.58,0
2685,41.8,-8.73,6.75,0
2686,41.81,-9.0,10.44,0
2687,41.83,-6.43,9.66,0
2688,41.84,-9.38,1.13,0
2689,41.85,-8.24,-1.52,0
2690,41.87,-4.82,6.61,0
2691,41.88,-11.02,11.01,0
2692,41.89,-13.27,4.13,0
2693,41.9,0.04,-2.24,0
2694,41.92,12.13,-0.53,0
2695,41.93,10.56,-0.53,0
2696,41.95,0.94,-7.03,0
2697,41.96,-9.04,-12.75,0
2698,41.97,-14.35,-13.56,0
2699,41.99,-13.62,-8.19,0
2700,42.0,-7.73,-0.04,0
2701,42.01,1.39,1.43,0
2702,42.03,5.25,0.07,0
2703,42.04,-1.39,3.87,0
2704,42.05,-17.0,7.58,0
2705,42.06,-44.91,8.2,0
2706,42.08,-64.4,3.12,0
2707,42.09,-38.35,-8.36,0
2708,42.11,8.47,-11.98,1
2709,42.12,24.8,-10.06,1
2710,42.13,23.37,-33.12,1
2711,42.15,31.58,-79.79,1
2712,42.16,41.09,-104.67,1
2713,42.17,40.94,-96.04,1
2714,42.19,27.0,-93.86,1
2715,42.2,12.01,-112.76,1
2716,42.21,20.17,-122.36,1
2717,42.22,39.18,-109.77,1
2718,42.24,42.63,-95.9,1
2719,42.25,37.75,-87.42,1
2720,42.27,49.95,-72.72,1
2721,42.28,74.53,-51.76,1
2722,42.29,66.11,-31.02,1
2723,42.31,14.89,-14.81,1
2724,42.32,-27.71,-1.01,1
2725,42.33,-32.53,20.77,1
2726,42.35,-19.68,49.65,1
2727,42.36,-13.0,73.63,1
2728,42.37,-18.05,91.56,1
2729,42.38,-29.41,110.08,1
2730,42.4,-41.34,124.62,1
2731,42.41,-46.21,126.2,1
2732,42.43,-34.98,124.35,1
2733,42.44,-12.31,130.78,1
2734,42.45,-5.06,133.11,1
2735,42.47,-27.4,127.0,1
2736,42.48,-48.91,130.43,1
2737,42.49,-42.8,136.75,1
2738,42.51,-32.37,123.5,1
2739,42.52,-39.08,106.21,1
2740,42.53,-41.36,109.65,1
2741,42.54,-27.62,114.96,1
2742,42.56,-17.59,100.61,1
2743,42.57,-18.03,83.59,1
2744,42.59,-17.43,81.83,1
2745,42.6,-12.44,85.32,1
2746,42.61,-7.11,78.72,1
2747,42.63,-2.0,65.84,1
2748,42.64,2.31,58.49,1
2749,42.65,0.6,51.96,1
2750,42.66,-6.86,38.77,1
2751,42.68,-9.93,27.47,1
2752,42.69,-4.74,25.27,1
2753,42.71,-0.16,26.21,1
2754,42.72,-1.41,21.99,1
2755,42.73,-5.58,8.45,1
2756,42.75,-7.81,-8.43,1
2757,42.76,-3.64,-18.46,1
2758,42.77,1.9,-22.17,1
2759,42.79,1.59,-23.25,1
2760,42.8,-0.03,-23.93,1
2761,42.81,1.86,-27.97,1
2762,42.83,6.89,-31.47,1
2763,42.84,14.34,-32.49,1
2764,42.85,13.41,-39.6,1
2765,42.87,-1.92,-49.11,1
2766,42.88,-8.64,-50.19,1
2767,42.89,8.91,-51.09,1
2768,42.9,22.97,-58.32,1
2769,42.92,8.41,-59.74,0
2770,42.93,-11.82,-53.79,0
2771,42.95,-6.44,-50.87,0
2772,42.96,14.45,-52.73,0
2773,42.97,23.04,-57.0,0
2774,42.99,15.99,-60.52,0
2775,43.0,8.44,-61.83,0
2776,43.01,10.51,-64.09,0
2777,43.03,18.12,-63.46,0
2778,43.04,19.29,-51.66,0
2779,43.05,12.63,-36.78,0
2780,43.06,7.15,-38.97,0
2781,43.08,5.52,-57.8,0
2782,43.09,6.62,-69.67,0
2783,43.11,11.54,-65.25,0
2784,43.12,13.11,-58.56,0
2785,43.13,6.51,-57.59,0
2786,43.15,5.1,-55.37,0
2787,43.16,14.32,-45.51,0
2788,43.17,17.05,-33.94,0
2789,43.19,8.25,-33.24,0
2790,43.2,3.22,-42.33,0
2791,43.21,6.23,-45.52,0
2792,43.22,7.27,-37.88,0
2793,43.24,5.76,-30.89,0
2794,43.25,11.73,-30.99,0
2795,43.27,23.09,-32.09,0
2796,43.28,24.53,-29.16,0
2797,43.29,15.38,-25.18,0
2798,43.3,10.61,-24.29,0
2799,43.32,9.07,-26.18,0
2800,43.33,-1.67,-29.27,0
2801,43.35,-8.88,-31.34,0
2802,43.36,4.14,-27.72,0
2803,43.37,18.08,-18.71,0
2804,43.38,12.69,-10.87,0
2805,43.4,2.83,-6.74,0
2806,43.41,2.89,-7.31,0
2807,43.43,1.53,-12.04,0
2808,43.44,-7.86,-12.22,0
2809,43.45,-11.32,-4.54,0
2810,43.47,-0.02,0.13,0
2811,43.48,11.25,-2.75,0
2812,43.49,7.44,-5.39,0
2813,43.51,0.79,-3.55,0
2814,43.52,1.98,1.64,0
2815,43.53,-2.98,5.22,0
2816,43.54,-12.25,1.99,0
2817,43.56,-4.68,1.17,0
2818,43.57,10.05,11.64,0
2819,43.59,5.25,14.93,0
2820,43.6,-9.51,0.17,0
2821,43.61,-9.35,-8.49,0
2822,43.63,-2.7,1.51,0
2823,43.64,-9.43,9.52,0
2824,43.65,-18.1,3.97,0
2825,43.67,-9.22,-0.83,0
2826,43.68,3.88,3.64,0
2827,43.69,0.36,5.62,0
2828,43.71,-11.71,3.76,0
2829,43.72,-18.48,8.82,0
2830,43.73,-14.65,11.83,0
2831,43.75,3.26,6.48,0
2832,43.76,19.41,7.25,0
2833,43.77,11.38,14.3,0
2834,43.79,-5.6,16.51,0
2835,43.8,-0.18,18.41,0
2836,43.81,17.97,21.31,0
2837,43.83,17.83,16.53,0
2838,43.84,-0.51,10.39,0
2839,43.85,-14.72,14.83,0
2840,43.87,-12.71,22.48,0
2841,43.88,-1.05,23.79,0
2842,43.89,3.43,23.24,0
2843,43.9,-6.83,23.89,0
2844,43.92,-19.42,23.04,0
2845,43.93,-21.88,20.8,0
2846,43.94,-15.19,18.99,0
2847,43.96,-3.84,18.37,0
2848,43.97,2.92,18.95,0
2849,43.99,-2.21,21.83,0
2850,44.0,-7.55,27.32,0
2851,44.01,-4.13,27.32,0
2852,44.03,-2.38,18.96,0
2853,44.04,-8.87,15.79,0
2854,44.05,-23.19,20.95,0
2855,44.06,-48.09,18.78,0
2856,44.08,-61.47,11.36,0
2857,44.09,-37.54,14.53,0
2858,44.11,-5.06,20.01,1
2859,44.12,5.47,23.14,1
2860,44.13,10.38,51.93,1
2861,44.15,20.0,119.67,1
2862,44.16,23.43,201.8,1
2863,44.17,20.38,271.94,1
2864,44.19,18.6,315.67,1
2865,44.2,11.35,316.41,1
2866,44.21,-3.08,264.49,1
2867,44.22,-4.62,190.13,1
2868,44.24,1.03,133.6,1
2869,44.25,-3.33,84.5,1
2870,44.27,8.82,20.89,1
2871,44.28,37.23,-41.97,1
2872,44.29,31.83,-95.6,1
2873,44.31,-2.73,-145.36,1
2874,44.32,-18.6,-180.63,1
2875,44.33,-11.94,-201.21,1
2876,44.35,-5.36,-218.75,1
2877,44.36,-3.49,-224.12,1
2878,44.37,-0.52,-212.56,1
2879,44.38,6.13,-198.64,1
2880,44.4,13.69,-183.98,1
2881,44.41,15.06,-167.33,1
2882,44.43,10.1,-155.62,1
2883,44.44,12.05,-142.34,1
2884,44.45,22.96,-123.9,1
2885,44.47,20.86,-110.22,1
2886,44.48,0.57,-97.08,1
2887,44.49,-11.22,-78.11,1
2888,44.51,-5.79,-66.83,1
2889,44.52,-0.28,-66.88,1
2890,44.53,3.37,-58.65,1
2891,44.54,10.59,-38.11,1
2892,44.56,12.81,-26.31,1
2893,44.57,13.16,-33.12,1
2894,44.58,23.03,-39.49,1
2895,44.6,27.22,-26.77,1
2896,44.61,11.98,-5.94,1
2897,44.63,-5.06,1.16,1
2898,44.64,-6.99,-8.4,1
2899,44.65,-2.24,-15.37,1
2900,44.67,-7.51,-5.44,1
2901,44.68,-16.44,8.95,1
2902,44.69,-10.26,14.13,1
2903,44.71,0.01,15.93,1
2904,44.72,-2.89,21.87,1
2905,44.73,-5.12,29.6,1
2906,44.75,2.13,32.72,1
2907,44.76,5.11,31.28,1
2908,44.77,-0.07,37.08,1
2909,44.79,-5.34,51.36,1
2910,44.8,-8.24,56.89,1
2911,44.81,-11.37,48.46,1
2912,44.83,-14.52,35.71,1
2913,44.84,-12.5,22.85,1
2914,44.85,-5.46,18.0,1
2915,44.87,-3.75,27.74,1
2916,44.88,-10.61,39.38,1
2917,44.89,-11.06,41.87,1
2918,44.9,2.27,39.5,1
2919,44.92,7.75,38.07,0
2920,44.93,-5.2,39.02,0
2921,44.95,-11.61,40.81,0
2922,44.96,-1.83,45.16,0
2923,44.97,0.89,49.71,0
2924,44.99,-10.57,47.62,0
2925,45.0,-17.15,43.64,0
2926,45.01,-12.68,44.89,0
2927,45.03,-7.73,45.13,0
2928,45.04,-4.4,37.21,0
2929,45.05,1.22,28.91,0
2930,45.06,2.87,33.31,0
2931,45.08,-5.04,45.02,0
2932,45.09,-12.54,44.91,0
2933,45.11,-4.7,32.04,0
2934,45.12,11.68,23.33,0
2935,45.13,12.07,28.21,0
2936,45.15,-3.32,35.37,0
2937,45.16,-9.04,31.74,0
2938,45.17,1.72,26.8,0
2939,45.19,9.51,29.9,0
2940,45.2,2.61,31.19,0
2941,45.21,-7.1,28.67,0
2942,45.22,-7.3,32.24,0
2943,45.24,-2.55,35.9,0
2944,45.25,2.38,26.5,0
2945,45.26,3.92,10.63,0
2946,45.28,-5.52,6.41,0
2947,45.29,-13.36,17.16,0
2948,45.31,-0.92,28.92,0
2949,45.32,10.05,24.93,0
2950,45.33,-3.2,5.45,0
2951,45.35,-13.76,-4.25,0
2952,45.36,-2.76,6.91,0
2953,45.37,4.03,15.88,0
2954,45.38,-4.46,10.82,0
2955,45.4,-4.81,5.72,0
2956,45.41,12.18,3.63,0
2957,45.43,20.87,-3.73,0
2958,45.44,3.7,-9.47,0
2959,45.45,-13.27,-0.1,0
2960,45.47,-6.06,11.1,0
2961,45.48,4.37,4.85,0
2962,45.49,3.09,-3.28,0
2963,45.51,6.36,-0.81,0
2964,45.52,11.38,-3.92,0
2965,45.53,1.11,-9.8,0
2966,45.54,-8.91,-1.88,0
2967,45.56,0.45,6.19,0
2968,45.57,9.59,-4.17,0
2969,45.59,-0.07,-22.43,0
2970,45.6,-7.65,-33.72,0
2971,45.61,1.98,-32.35,0
2972,45.63,7.22,-19.09,0
2973,45.64,-2.59,-10.09,0
2974,45.65,-8.19,-11.55,0
2975,45.67,-1.1,-9.27,0
2976,45.68,7.99,-3.23,0
2977,45.69,7.42,-5.33,0
2978,45.71,-1.18,-14.42,0
2979,45.72,-2.49,-21.18,0
2980,45.73,3.94,-23.07,0
2981,45.75,1.38,-27.49,0
2982,45.76,-6.13,-31.38,0
2983,45.77,-2.53,-20.34,0
2984,45.79,5.84,-0.98,0
2985,45.8,8.85,-0.9,0
2986,45.81,9.04,-20.73,0
2987,45.83,5.01,-28.23,0
2988,45.84,-3.83,-19.29,0
2989,45.85,-6.9,-21.53,0
2990,45.86,1.23,-32.51,0
2991,45.88,8.23,-26.28,0
2992,45.89,-0.52,-12.7,0
2993,45.9,-11.92,-22.76,0
2994,45.92,-1.82,-39.82,0
2995,45.93,17.48,-27.0,0
2996,45.95,18.25,-2.0,0
2997,45.96,6.8,2.96,0
2998,45.97,3.26,-2.73,0
2999,45.99,3.23,-4.54,0
3000,46.0,-0.84,-8.21,0
3001,46.01,3.03,-14.82,0
3002,46.03,14.11,-13.33,0
3003,46.04,11.18,-2.79,0
3004,46.05,-8.02,-3.02,0
3005,46.06,-32.47,-18.88,0
3006,46.08,-55.77,-22.6,0
3007,46.09,-54.66,-8.21,0
3008,46.11,-17.11,-12.29,1
3009,46.12,20.47,-38.58,1
3010,46.13,27.18,-36.93,1
3011,46.15,16.1,-18.8,1
3012,46.16,12.45,-40.69,1
3013,46.17,30.46,-58.37,1
3014,46.19,49.27,-23.97,1
3015,46.2,27.61,11.54,1
3016,46.21,-8.0,20.07,1
3017,46.22,5.55,52.34,1
3018,46.24,39.84,151.93,1
3019,46.25,31.32,265.39,1
3020,46.27,2.51,337.09,1
3021,46.28,5.76,345.19,1
3022,46.29,40.84,200.1,1
3023,46.31,56.9,-42.36,1
3024,46.32,14.15,-117.56,1
3025,46.33,-40.76,40.21,1
3026,46.35,-54.78,174.87,1
3027,46.36,-39.25,99.11,1
3028,46.37,0.69,-27.43,1
3029,46.38,25.09,-22.73,1
3030,46.4,-14.8,-4.72,1
3031,46.41,-44.47,-87.33,1
3032,46.43,-13.5,-152.68,1
3033,46.44,-0.15,-115.8,1
3034,46.45,-20.8,-72.69,1
3035,46.47,-18.62,-136.52,1
3036,46.48,-6.79,-268.38,1
3037,46.49,-11.8,-308.88,1
3038,46.5,-8.4,-214.6,1
3039,46.52,4.76,-117.74,1
3040,46.53,1.38,-87.62,1
3041,46.54,-8.27,-85.98,1
3042,46.56,-0.2,-112.69,1
3043,46.57,17.68,-160.18,1
3044,46.59,20.88,-175.01,1
3045,46.6,5.15,-144.92,1
3046,46.61,-5.0,-90.25,1
3047,46.63,4.53,-54.28,1
3048,46.64,4.97,-81.57,1
3049,46.65,-24.24,-117.67,1
3050,46.67,-41.76,-83.83,1
3051,46.68,-14.76,-13.07,1
3052,46.69,13.06,12.61,1
3053,46.71,-2.24,-18.64,1
3054,46.72,-31.35,-41.72,1
3055,46.73,-27.99,-31.49,1
3056,46.75,-0.27,-25.51,1
3057,46.76,15.6,0.08,1
3058,46.77,11.49,61.82,1
3059,46.79,4.92,74.96,1
3060,46.8,4.91,27.57,1
3061,46.81,-1.04,15.68,1
3062,46.83,-11.55,50.0,1
3063,46.84,0.37,56.72,1
3064,46.85,19.68,39.97,1
3065,46.87,5.48,61.7,1
3066,46.88,-23.6,103.77,1
3067,46.89,-23.53,107.41,1
3068,46.9,4.83,70.94,1
3069,46.92,27.31,30.43,0
3070,46.93,26.05,27.64,0
3071,46.95,17.32,53.92,0
3072,46.96,4.7,52.26,0
3073,46.97,-21.67,41.76,0
3074,46.99,-30.06,72.47,0
3075,47.0,-2.55,87.39,0
3076,47.01,11.02,29.46,0
3077,47.03,-9.12,-26.69,0
3078,47.04,-18.62,3.4,0
3079,47.05,-7.03,86.59,0
3080,47.06,-10.93,134.52,0
3081,47.08,-30.63,106.74,0
3082,47.09,-25.8,42.69,0
3083,47.11,1.25,7.82,0
3084,47.12,10.14,19.49,0
3085,47.13,11.09,30.62,0
3086,47.14,28.03,2.76,0
3087,47.16,26.02,-16.22,0
3088,47.17,-0.51,3.79,0
3089,47.18,1.22,9.99,0
3090,47.2,28.86,5.04,0
3091,47.21,28.48,22.68,0
3092,47.22,4.12,19.79,0
3093,47.24,0.66,-16.72,0
3094,47.25,13.18,-37.94,0
3095,47.27,7.85,-32.65,0
3096,47.28,-15.82,-10.62,0
3097,47.29,-24.81,20.68,0
3098,47.31,-5.48,43.99,0
3099,47.32,12.18,65.41,0
3100,47.33,11.18,88.47,0
3101,47.35,5.91,71.36,0
3102,47.36,-3.33,-3.36,0
3103,47.37,-21.26,-38.46,0
3104,47.38,-24.34,46.29,0
3105,47.4,-0.39,125.4,0
3106,47.41,14.65,84.84,0
3107,47.43,6.95,34.77,0
3108,47.44,8.31,49.9,0
3109,47.45,16.06,59.04,0
3110,47.47,1.7,46.54,0
3111,47.48,-16.1,38.75,0
3112,47.49,-1.54,23.95,0
3113,47.51,21.01,0.59,0
3114,47.52,6.58,0.29,0
3115,47.53,-19.55,43.5,0
3116,47.54,-7.64,84.62,0
3117,47.56,19.62,73.36,0
3118,47.57,15.49,30.07,0
3119,47.59,3.02,7.21,0
3120,47.6,15.58,22.48,0
3121,47.61,20.6,28.05,0
3122,47.63,-3.06,-16.34,0
3123,47.64,-15.75,-60.42,0
3124,47.65,3.2,-54.69,0
3125,47.67,25.44,-55.79,0
3126,47.68,27.76,-101.19,0
3127,47.69,9.72,-103.31,0
3128,47.71,-13.13,-42.71,0
3129,47.72,-20.2,-40.21,0
3130,47.73,-16.17,-73.03,0
3131,47.75,-6.3,-8.97,0
3132,47.76,20.84,65.21,0
3133,47.77,39.09,28.19,0
3134,47.78,10.86,-15.06,0
3135,47.8,-30.34,18.85,0
3136,47.81,-29.97,59.88,0
3137,47.82,-9.4,60.24,0
3138,47.84,-17.41,33.95,0
3139,47.85,-33.99,0.21,0
3140,47.86,-21.2,-4.42,0
3141,47.88,-11.16,15.93,0
3142,47.89,-23.19,-5.02,0
3143,47.9,-7.03,-32.63,0
3144,47.92,27.39,9.6,0
3145,47.93,20.4,36.99,0
3146,47.95,-6.41,-4.38,0
3147,47.96,-10.55,-15.96,0
3148,47.97,-1.85,6.49,0
3149,47.99,0.86,-18.01,0
3150,48.0,-4.57,-71.78,0
3151,48.01,-2.11,-75.16,0
3152,48.03,8.44,-17.27,0
3153,48.04,7.4,14.87,0
3154,48.05,0.15,-2.84,0
3155,48.06,-4.4,-10.69,0
3156,48.08,-17.9,-26.31,0
3157,48.09,-29.92,-66.44,0
3158,48.11,-12.52,-68.53,1
3159,48.12,21.37,-20.79,1
3160,48.13,32.49,-11.38,1
3161,48.15,20.31,-80.2,1
3162,48.16,12.31,-118.84,1
3163,48.17,9.01,-68.56,1
3164,48.19,-4.34,-36.6,1
3165,48.2,-15.14,-60.72,1
3166,48.21,-2.31,-46.33,1
3167,48.22,21.11,10.82,1
3168,48.24,21.7,21.42,1
3169,48.25,6.06,-20.87,1
3170,48.27,20.75,-57.52,1
3171,48.28,56.62,-84.01,1
3172,48.29,49.91,-132.29,1
3173,48.31,10.83,-184.54,1
3174,48.32,3.95,-171.03,1
3175,48.33,20.03,-67.66,1
3176,48.35,13.95,29.84,1
3177,48.36,-0.03,38.36,1
3178,48.37,4.11,23.0,1
3179,48.38,8.55,45.47,1
3180,48.4,-4.25,67.82,1
3181,48.41,-18.56,70.81,1
3182,48.42,-16.89,73.68,1
3183,48.44,-8.88,75.09,1
3184,48.45,-7.87,66.97,1
3185,48.46,-10.42,55.77,1
3186,48.48,-14.61,47.53,1
3187,48.49,-21.22,41.4,1
3188,48.5,-20.3,35.82,1
3189,48.52,-9.94,31.33,1
3190,48.53,-7.51,27.94,1
3191,48.54,-18.51,22.58,1
3192,48.56,-21.24,16.61,1
3193,48.57,-9.72,16.32,1
3194,48.59,-6.41,19.81,1
3195,48.6,-11.13,16.88,1
3196,48.61,-0.93,6.72,1
3197,48.63,15.04,2.8,1
3198,48.64,9.57,6.83,1
3199,48.65,-8.82,3.16,1
3200,48.67,-10.57,-4.48,1
3201,48.68,-0.02,2.97,1
3202,48.69,-3.89,18.58,1
3203,48.71,-12.08,21.25,1
3204,48.72,-5.18,15.37,1
3205,48.73,-2.1,16.45,1
3206,48.75,-13.37,18.82,1
3207,48.76,-17.89,14.89,1
3208,48.77,-9.72,12.32,1
3209,48.79,-4.77,12.55,1
3210,48.8,-11.82,7.21,1
3211,48.81,-21.62,3.37,1
3212,48.83,-18.56,19.2,1
3213,48.84,-2.75,38.73,1
3214,48.85,9.18,30.09,1
3215,48.87,6.79,7.8,1
3216,48.88,-5.91,-2.89,1
3217,48.89,-18.09,-11.69,1
3218,48.9,-14.34,-20.62,1
3219,48.92,5.89,-13.35,0
3220,48.93,14.36,3.66,0
3221,48.95,-0.36,8.41,0
3222,48.96,-11.06,-2.27,0
3223,48.97,-4.35,-12.03,0
3224,48.99,0.59,-12.41,0
3225,49.0,-6.83,-9.41,0
3226,49.01,-11.71,-4.21,0
3227,49.03,-1.66,-2.6,0
3228,49.04,11.24,-11.18,0
3229,49.05,13.91,-12.5,0
3230,49.06,12.22,0.88,0
3231,49.08,8.94,6.03,0
3232,49.09,-0.66,-1.43,0
3233,49.1,-10.72,-3.46,0
3234,49.12,-13.57,-4.96,0
3235,49.13,-10.07,-15.67,0
3236,49.14,-3.84,-14.35,0
3237,49.16,0.58,2.95,0
3238,49.17,1.93,1.92,0
3239,49.19,4.01,-19.82,0
3240,49.2,6.68,-29.72,0
3241,49.21,6.69,-21.63,0
3242,49.22,7.94,-9.94,0
3243,49.24,13.48,2.36,0
3244,49.25,13.92,14.04,0
3245,49.27,3.26,10.52,0
3246,49.28,-9.95,-9.39,0
3247,49.29,-11.8,-16.36,0
3248,49.31,2.8,-0.85,0
3249,49.32,17.51,5.75,0
3250,49.33,12.3,-9.97,0
3251,49.35,-1.96,-27.45,0
3252,49.36,-1.5,-28.18,0
3253,49.37,10.58,-8.81,0
3254,49.38,16.68,11.42,0
3255,49.4,12.8,4.66,0
3256,49.41,1.97,-18.36,0
3257,49.43,-8.42,-22.43,0
3258,49.44,-5.34,-9.81,0
3259,49.45,8.96,-1.6,0
3260,49.47,12.49,5.21,0
3261,49.48,-1.67,7.39,0
3262,49.49,-8.04,-5.35,0
3263,49.51,7.51,-11.62,0
3264,49.52,15.73,2.22,0
3265,49.53,-0.59,10.74,0
3266,49.54,-7.65,6.02,0
3267,49.56,12.96,8.8,0
3268,49.57,26.91,13.4,0
3269,49.59,13.27,-4.83,0
3270,49.6,-3.36,-27.41,0
3271,49.61,-3.91,-17.96,0
3272,49.63,3.25,5.15,0
3273,49.64,9.56,10.48,0
3274,49.65,13.1,3.37,0
3275,49.67,9.67,-5.94,0
3276,49.68,-1.71,-12.18,0
3277,49.69,-9.68,-10.87,0
3278,49.7,-0.76,-6.55,0
3279,49.72,14.71,-2.25,0
3280,49.73,13.29,8.46,0
3281,49.74,-0.54,18.56,0
3282,49.76,-5.16,11.57,0
3283,49.77,-2.13,-3.17,0
3284,49.78,-4.66,-8.29,0
3285,49.8,-7.05,-9.6,0
3286,49.81,0.31,-9.57,0
3287,49.83,9.76,2.13,0
3288,49.84,6.96,18.02,0
3289,49.85,-2.77,20.52,0
3290,49.87,-1.56,15.31,0
3291,49.88,3.32,15.88,0
3292,49.89,-3.38,15.21,0
3293,49.9,-8.06,7.25,0
3294,49.92,-5.96,3.67,0
3295,49.93,-17.79,0.26,0
3296,49.95,-29.79,-16.79,0
3297,49.96,-12.3,-27.26,0
3298,49.97,9.35,-8.99,0
3299,49.99,3.11,17.85,0
3300,50.0,-4.07,25.09,0
3301,50.01,9.45,17.62,0
3302,50.03,12.79,12.03,0
3303,50.04,-6.35,6.72,0
3304,50.05,-14.63,-0.42,0
3305,50.06,-6.83,-3.18,0
3306,50.08,-20.69,2.33,0
3307,50.09,-48.93,4.73,0
3308,50.11,-33.22,-8.25,1
3309,50.12,16.73,-12.04,1
3310,50.13,34.17,12.06,1
3311,50.15,21.93,24.98,1
3312,50.16,22.74,2.51,1
3313,50.17,27.58,-15.23,1
3314,50.19,10.95,-8.68,1
3315,50.2,-7.61,-25.33,1
3316,50.21,4.64,-89.83,1
3317,50.22,23.54,-147.62,1
3318,50.24,5.47,-151.21,1
3319,50.25,-19.18,-130.1,1
3320,50.27,11.15,-125.72,1
3321,50.28,74.81,-124.72,1
3322,50.29,90.89,-104.18,1
3323,50.31,47.82,-82.42,1
3324,50.32,17.32,-76.4,1
3325,50.33,21.46,-64.05,1
3326,50.34,10.42,-31.45,1
3327,50.36,-12.85,-2.61,1
3328,50.37,-3.18,10.95,1
3329,50.38,13.09,30.6,1
3330,50.4,-10.92,59.92,1
3331,50.41,-39.42,76.98,1
3332,50.42,-33.7,81.28,1
3333,50.44,-28.72,92.28,1
3334,50.45,-40.35,111.94,1
3335,50.46,-34.98,125.12,1
3336,50.48,-17.94,125.46,1
3337,50.49,-20.6,124.03,1
3338,50.51,-28.84,127.37,1
3339,50.52,-16.02,125.48,1
3340,50.53,-2.82,114.97,1
3341,50.54,-17.05,114.11,1
3342,50.56,-34.25,131.13,1
3343,50.57,-24.61,144.0,1
3344,50.59,-14.64,138.99,1
3345,50.6,-33.88,126.22,1
3346,50.61,-48.47,113.94,1
3347,50.63,-22.12,101.08,1
3348,50.64,10.36,83.67,1
3349,50.65,4.74,65.95,1
3350,50.67,-13.94,57.52,1
3351,50.68,-7.93,52.21,1
3352,50.69,1.07,41.65,1
3353,50.71,-11.05,34.95,1
3354,50.72,-14.94,32.76,1
3355,50.73,4.94,21.48,1
3356,50.75,11.67,6.63,1
3357,50.76,-5.69,1.29,1
3358,50.77,-10.33,-1.7,1
3359,50.79,2.19,-9.7,1
3360,50.8,-0.77,-16.38,1
3361,50.81,-12.05,-18.92,1
3362,50.83,-0.05,-19.08,1
3363,50.84,20.17,-19.3,1
3364,50.85,15.24,-25.33,1
3365,50.87,0.22,-31.81,1
3366,50.88,5.56,-32.03,1
3367,50.89,18.35,-36.68,1
3368,50.9,12.81,-45.87,1
3369,50.92,2.45,-45.92,0
3370,50.93,12.72,-39.61,0
3371,50.95,24.56,-39.21,0
3372,50.96,6.05,-44.83,0
3373,50.97,-16.4,-49.66,0
3374,50.98,-5.82,-54.45,0
3375,51.0,6.79,-61.09,0
3376,51.01,-4.81,-63.15,0
3377,51.02,-3.77,-59.35,0
3378,51.04,18.43,-56.97,0
3379,51.05,16.49,-56.12,0
3380,51.06,-10.21,-52.51,0
3381,51.08,-13.57,-50.7,0
3382,51.09,5.67,-54.13,0
3383,51.1,7.34,-53.36,0
3384,51.12,-1.4,-45.04,0
3385,51.13,8.31,-40.94,0
3386,51.15,20.5,-43.24,0
3387,51.16,12.97,-42.36,0
3388,51.17,0.92,-39.15,0
3389,51.19,4.55,-40.52,0
3390,51.2,12.38,-44.83,0
3391,51.21,1.64,-45.5,0
3392,51.22,-12.44,-43.37,0
3393,51.24,2.53,-43.93,0
3394,51.25,24.29,-45.5,0
3395,51.27,14.02,-42.88,0
3396,51.28,-4.58,-35.97,0
3397,51.29,0.47,-31.8,0
3398,51.31,6.85,-36.29,0
3399,51.32,-5.22,-42.8,0
3400,51.33,-9.97,-41.95,0
3401,51.35,5.43,-34.79,0
3402,51.36,7.3,-27.18,0
3403,51.37,-10.03,-23.85,0
3404,51.38,-3.57,-22.92,0
3405,51.4,19.8,-18.58,0
3406,51.41,10.14,-16.35,0
3407,51.43,-14.24,-20.1,0
3408,51.44,-0.95,-19.67,0
3409,51.45,26.5,-13.67,0
3410,51.47,15.16,-11.46,0
3411,51.48,-12.14,-12.98,0
3412,51.49,-3.21,-11.62,0
3413,51.51,23.1,-7.05,0
3414,51.52,17.51,-3.19,0
3415,51.53,-5.72,-2.13,0
3416,51.54,-6.88,-4.25,0
3417,51.56,2.59,-2.95,0
3418,51.57,0.87,3.93,0
3419,51.59,2.0,4.47,0
3420,51.6,13.42,-0.76,0
3421,51.61,17.46,0.1,0
3422,51.62,8.62,2.32,0
3423,51.64,2.7,-0.24,0
3424,51.65,5.3,-0.7,0
3425,51.66,1.68,2.65,0
3426,51.68,-8.45,4.8,0
3427,51.69,-1.44,6.31,0
3428,51.7,18.04,10.06,0
3429,51.72,10.64,15.86,0
3430,51.73,-17.71,22.04,0
3431,51.74,-17.31,25.22,0
3432,51.76,9.42,22.16,0
3433,51.77,14.75,15.71,0
3434,51.79,-1.7,13.68,0
3435,51.8,-4.15,19.16,0
3436,51.81,3.27,28.08,0
3437,51.83,-2.36,33.68,0
3438,51.84,-8.69,28.89,0
3439,51.85,-0.43,17.23,0
3440,51.87,1.73,13.24,0
3441,51.88,-15.8,19.97,0
3442,51.89,-20.45,24.05,0
3443,51.9,5.01,16.97,0
3444,51.92,14.74,8.55,0
3445,51.93,-10.6,12.68,0
3446,51.95,-15.08,23.63,0
3447,51.96,17.45,23.83,0
3448,51.97,26.91,11.29,0
3449,51.99,-0.46,5.24,0
3450,52.0,-13.12,16.44,0
3451,52.01,2.45,25.82,0
3452,52.03,10.1,20.33,0
3453,52.04,-1.32,15.42,0
3454,52.05,-8.88,22.92,0
3455,52.06,-15.54,32.8,0
3456,52.08,-45.4,31.72,0
3457,52.09,-69.28,26.06,0
3458,52.11,-40.04,25.69,1
3459,52.12,6.96,19.97,1
3460,52.13,12.5,9.89,1
3461,52.15,-1.8,15.26,1
3462,52.16,9.9,34.99,1
3463,52.17,27.69,60.1,1
3464,52.19,18.24,101.2,1
3465,52.2,5.98,171.78,1
3466,52.21,10.58,254.54,1
3467,52.22,8.78,305.14,1
3468,52.24,-4.45,297.4,1
3469,52.25,-12.05,242.32,1
3470,52.26,-1.74,177.25,1
3471,52.28,29.69,132.24,1
3472,52.29,51.98,91.51,1
3473,52.3,32.78,33.05,1
3474,52.32,-10.23,-26.92,1
3475,52.33,-42.65,-74.5,1
3476,52.34,-50.73,-122.19,1
3477,52.36,-40.0,-172.69,1
3478,52.37,-28.97,-209.23,1
3479,52.38,-24.6,-220.24,1
3480,52.4,-17.72,-213.0,1
3481,52.41,-9.16,-202.99,1
3482,52.425,-6.58,-193.61,1
3483,52.44,-8.64,-177.54,1
3484,52.45,-7.9,-158.92,1
3485,52.47,-1.92,-152.41,1
3486,52.48,0.0,-155.02,1
3487,52.49,-5.45,-140.94,1
3488,52.51,-3.75,-110.19,1
3489,52.52,9.09,-97.2,1
3490,52.53,11.96,-101.03,1
3491,52.54,-3.53,-89.82,1
3492,52.56,-9.98,-63.45,1
3493,52.57,8.1,-42.62,1
3494,52.59,25.43,-33.05,1
3495,52.6,19.62,-27.15,1
3496,52.61,6.88,-20.31,1
3497,52.63,12.28,-18.88,1
3498,52.64,26.55,-22.73,1
3499,52.65,24.84,-26.61,1
3500,52.67,8.14,-31.39,1
3501,52.68,-1.58,-29.13,1
3502,52.69,3.54,-16.54,1
3503,52.71,11.9,-9.52,1
3504,52.72,16.16,-6.61,1
3505,52.73,12.61,4.63,1
3506,52.75,-0.46,9.79,1
3507,52.76,-9.35,4.06,1
3508,52.77,-5.75,9.01,1
3509,52.79,-4.73,22.84,1
3510,52.8,-14.35,28.37,1
3511,52.81,-15.89,34.96,1
3512,52.83,0.56,51.16,1
3513,52.84,10.01,56.81,1
3514,52.85,-4.9,39.28,1
3515,52.87,-19.81,19.25,1
3516,52.88,-12.42,21.42,1
3517,52.89,3.01,36.9,1
3518,52.9,6.68,44.15,1
3519,52.92,2.01,49.26,0
3520,52.93,0.32,59.9,0
3521,52.94,0.13,58.9,0
3522,52.96,-2.13,42.88,0
3523,52.97,0.33,34.41,0
3524,52.98,6.71,42.67,0
3525,53.0,2.61,49.66,0
3526,53.01,-7.45,41.98,0
3527,53.02,-0.92,37.52,0
3528,53.04,13.1,49.23,0
3529,53.05,6.11,55.55,0
3530,53.06,-8.0,45.02,0
3531,53.08,-1.75,36.43,0
3532,53.09,9.65,40.4,0
3533,53.11,6.72,46.85,0
3534,53.12,-1.18,49.82,0
3535,53.13,-3.57,49.8,0
3536,53.15,-3.48,40.7,0
3537,53.16,-6.71,28.43,0
3538,53.17,-10.48,29.33,0
3539,53.19,-8.4,36.03,0
3540,53.2,-1.77,34.39,0
3541,53.21,4.86,28.5,0
3542,53.22,7.41,26.96,0
3543,53.24,3.36,31.63,0
3544,53.25,-4.15,36.17,0
3545,53.27,-8.71,34.35,0
3546,53.28,-9.59,28.72,0
3547,53.29,-11.95,22.55,0
3548,53.31,-10.58,17.4,0
3549,53.32,2.29,15.98,0
3550,53.33,13.98,15.32,0
3551,53.35,11.21,10.59,0
3552,53.36,3.03,10.43,0
3553,53.37,1.24,24.06,0
3554,53.38,1.57,36.11,0
3555,53.4,-8.24,24.39,0
3556,53.41,-20.91,-3.08,0
3557,53.43,-12.44,-16.39,0
3558,53.44,11.81,-5.08,0
3559,53.45,21.16,9.3,0
3560,53.47,11.14,7.35,0
3561,53.48,3.42,-2.68,0
3562,53.49,5.3,-5.02,0
3563,53.51,2.92,-1.47,0
3564,53.52,-4.99,0.85,0
3565,53.53,-1.04,5.98,0
3566,53.54,14.03,5.03,0
3567,53.56,18.01,-14.53,0
3568,53.57,2.94,-23.59,0
3569,53.58,-14.04,-4.51,0
3570,53.6,-12.69,3.49,0
3571,53.61,4.45,-15.7,0
3572,53.62,15.08,-28.15,0
3573,53.64,9.92,-18.3,0
3574,53.65,-0.12,-9.02,0
3575,53.66,-7.89,-19.45,0
3576,53.68,-10.63,-35.56,0
3577,53.69,-3.18,-37.18,0
3578,53.7,10.91,-29.9,0
3579,53.72,19.25,-21.73,0
3580,53.73,12.63,-10.99,0
3581,53.75,-2.55,-4.72,0
3582,53.76,-5.88,-5.5,0
3583,53.77,2.74,-7.1,0
3584,53.79,-0.66,-12.82,0
3585,53.8,-15.37,-19.56,0
3586,53.81,-18.58,-20.88,0
3587,53.83,-6.92,-24.52,0
3588,53.84,6.47,-26.76,0
3589,53.85,10.47,-17.01,0
3590,53.87,2.68,-6.78,0
3591,53.88,-9.47,-9.5,0
3592,53.89,-15.96,-15.13,0
3593,53.9,-12.23,-10.34,0
3594,53.92,-7.18,-4.27,0
3595,53.93,-8.73,-8.41,0
3596,53.95,-3.78,-12.38,0
3597,53.96,10.88,-11.98,0
3598,53.97,11.94,-21.24,0
3599,53.99,-3.04,-31.17,0
3600,54.0,-8.62,-24.4,0
3601,54.01,0.51,-16.7,0
3602,54.03,7.9,-18.83,0
3603,54.04,5.91,-10.68,0
3604,54.05,-1.77,11.18,0
3605,54.06,-16.35,14.34,0
3606,54.08,-44.19,-11.36,0
3607,54.09,-66.22,-29.25,0
3608,54.11,-44.41,-21.86,1
3609,54.12,9.24,-14.81,1
3610,54.13,39.06,-26.14,1
3611,54.15,31.88,-41.05,1
3612,54.16,18.21,-42.55,1
3613,54.17,10.44,-47.65,1
3614,54.18,5.17,-75.95,1
3615,54.2,3.97,-117.91,1
3616,54.21,7.26,-144.49,1
3617,54.22,12.15,-117.54,1
3618,54.24,6.22,-38.46,1
3619,54.25,-12.6,60.26,1
3620,54.26,-11.81,149.78,1
3621,54.28,26.39,180.94,1
3622,54.29,54.32,171.75,1
3623,54.3,28.4,197.62,1
3624,54.32,-6.29,211.32,1
3625,54.33,-0.32,133.64,1
3626,54.34,12.7,13.98,1
3627,54.36,-0.43,-52.72,1
3628,54.37,-12.68,-32.93,1
3629,54.38,-0.81,27.69,1
3630,54.4,12.47,76.84,1
3631,54.41,-0.72,85.98,1
3632,54.43,-26.75,40.81,1
3633,54.44,-26.97,1.08,1
3634,54.45,0.07,25.06,1
3635,54.47,22.36,51.39,1
3636,54.48,37.71,4.92,1
3637,54.49,45.21,-74.08,1
3638,54.51,22.74,-128.95,1
3639,54.52,-10.56,-185.62,1
3640,54.53,-12.06,-236.62,1
3641,54.54,9.23,-208.64,1
3642,54.56,13.84,-126.04,1
3643,54.57,3.11,-103.12,1
3644,54.59,2.09,-108.7,1
3645,54.6,-0.65,-21.41,1
3646,54.61,-24.15,71.42,1
3647,54.63,-31.65,36.5,1
3648,54.64,10.97,-27.66,1
3649,54.65,40.29,-20.61,1
3650,54.67,-5.07,12.03,1
3651,54.68,-63.91,51.78,1
3652,54.69,-55.17,79.87,1
3653,54.71,-0.51,35.99,1
3654,54.72,29.04,-33.32,1
3655,54.73,19.1,-45.92,1
3656,54.75,2.5,-33.73,1
3657,54.76,-6.16,-36.37,1
3658,54.77,-6.5,-36.11,1
3659,54.79,-0.33,-23.26,1
3660,54.8,0.96,12.77,1
3661,54.81,3.27,42.32,1
3662,54.82,14.63,-15.67,1
3663,54.84,9.96,-114.07,1
3664,54.85,-12.17,-90.04,1
3665,54.86,-11.82,30.26,1
3666,54.88,7.85,42.91,1
3667,54.89,11.85,-56.59,1
3668,54.9,6.1,-81.91,1
3669,54.92,1.46,-26.46,0
3670,54.93,-14.47,-18.8,0
3671,54.94,-30.18,-28.33,0
3672,54.96,-22.13,11.94,0
3673,54.97,-1.15,28.3,0
3674,54.98,7.6,-8.36,0
3675,55.0,8.67,-11.5,0
3676,55.01,16.4,34.34,0
3677,55.025000000000006,14.28,60.26,0
3678,55.04,-6.91,49.58,0
3679,55.05,-13.41,40.3,0
3680,55.06,2.93,29.52,0
3681,55.08,0.27,-5.17,0
3682,55.09,-24.76,-8.85,0
3683,55.11,-29.57,42.91,0
3684,55.12,-11.25,64.1,0
3685,55.13,-3.0,26.94,0
3686,55.15,-4.76,-9.76,0
3687,55.16,2.84,-1.09,0
3688,55.17,-1.66,51.02,0
3689,55.19,-29.4,95.89,0
3690,55.2,-30.53,92.66,0
3691,55.21,7.21,40.17,0
3692,55.22,24.58,-19.18,0
3693,55.24,3.86,-11.74,0
3694,55.25,-10.07,52.21,0
3695,55.27,-2.87,76.26,0
3696,55.28,-2.57,35.19,0
3697,55.29,-14.82,-8.15,0
3698,55.31,-20.57,-7.27,0
3699,55.32,-22.93,33.51,0
3700,55.33,-30.28,64.22,0
3701,55.35,-15.96,42.75,0
3702,55.36,18.95,19.53,0
3703,55.37,20.03,42.95,0
3704,55.38,-14.52,30.2,0
3705,55.4,-25.44,-41.02,0
3706,55.41,1.81,-23.3,0
3707,55.43,22.97,93.57,0
3708,55.44,10.27,126.27,0
3709,55.45,-4.7,52.92,0
3710,55.46,15.7,24.58,0
3711,55.48,38.03,44.31,0
3712,55.49,17.69,16.48,0
3713,55.5,-8.11,-19.9,0
3714,55.52,-0.21,-9.21,0
3715,55.53,10.8,13.03,0
3716,55.54,7.43,7.63,0
3717,55.56,15.33,-43.68,0
3718,55.57,28.09,-76.06,0
3719,55.58,15.38,-10.81,0
3720,55.6,-2.36,47.39,0
3721,55.61,8.92,-5.9,0
3722,55.62,28.81,-57.51,0
3723,55.64,24.69,-27.94,0
3724,55.65,2.26,-2.07,0
3725,55.66,-12.27,-20.62,0
3726,55.68,-6.56,-27.06,0
3727,55.69,6.56,9.93,0
3728,55.71,10.35,30.33,0
3729,55.72,5.61,-7.39,0
3730,55.73,1.62,-11.12,0
3731,55.75,5.53,62.91,0
3732,55.76,16.29,70.4,0
3733,55.77,17.25,-27.41,0
3734,55.79,0.03,-60.66,0
3735,55.8,-15.53,-14.66,0
3736,55.81,-7.86,-21.92,0
3737,55.83,9.94,-43.8,0
3738,55.84,4.67,-5.15,0
3739,55.85,-19.21,27.45,0
3740,55.87,-25.4,32.25,0
3741,55.88,-0.35,53.07,0
3742,55.89,24.19,65.19,0
3743,55.9,15.19,43.07,0
3744,55.92,0.87,9.93,0
3745,55.93,9.1,7.01,0
3746,55.95,11.22,38.73,0
3747,55.96,-4.02,14.41,0
3748,55.97,-14.41,-72.57,0
3749,55.99,-4.74,-84.69,0
3750,56.0,12.09,-25.91,0
3751,56.01,2.68,-10.3,0
3752,56.03,-21.59,-17.4,0
3753,56.04,-23.76,12.28,0
3754,56.05,-13.65,26.9,0
3755,56.06,-19.68,-38.63,0
3756,56.08,-48.89,-114.11,0
3757,56.09,-64.66,-76.23,0
3758,56.1,-25.78,26.33,1
3759,56.12,26.1,43.11,1
3760,56.13,43.76,-28.85,1
3761,56.14,52.7,-76.97,1
3762,56.16,49.19,-50.82,1
3763,56.17,12.61,2.18,1
3764,56.18,-6.47,8.3,1
3765,56.2,16.33,-58.87,1
3766,56.21,28.53,-157.57,1
3767,56.22,9.93,-219.06,1
3768,56.24,-10.24,-223.59,1
3769,56.25,-21.3,-204.04,1
3770,56.26,-14.27,-170.85,1
3771,56.28,35.96,-118.13,1
3772,56.29,90.19,-44.14,1
3773,56.3,72.36,71.36,1
3774,56.32,14.5,194.68,1
3775,56.33,1.51,236.13,1
3776,56.35,13.41,199.84,1
3777,56.36,-9.98,165.69,1
3778,56.37,-40.53,147.92,1
3779,56.38,-32.09,110.65,1
3780,56.4,-15.14,61.34,1
3781,56.41,-28.02,36.93,1
3782,56.43,-43.67,34.79,1
3783,56.44,-27.69,27.04,1
3784,56.45,-4.98,9.53,1
3785,56.47,-9.85,0.34,1
3786,56.48,-25.61,8.43,1
3787,56.49,-26.49,13.09,1
3788,56.51,-20.87,1.03,1
3789,56.52,-21.99,-7.3,1
3790,56.53,-23.48,-4.79,1
3791,56.54,-16.45,-6.57,1
3792,56.56,-7.74,-14.81,1
3793,56.57,-12.21,-25.43,1
3794,56.59,-23.99,-37.07,1
3795,56.6,-16.68,-36.93,1
3796,56.61,8.46,-14.12,1
3797,56.63,18.27,10.76,1
3798,56.64,4.8,11.54,1
3799,56.65,-8.74,-2.22,1
3800,56.67,-10.29,-10.72,1
3801,56.68,-3.66,-10.45,1
3802,56.69,7.87,-1.04,1
3803,56.71,15.06,12.62,1
3804,56.72,6.14,13.07,1
3805,56.73,-12.87,-3.5,1
3806,56.74,-20.81,-12.24,1
3807,56.76,-8.21,0.7,1
3808,56.77,7.51,14.13,1
3809,56.78,3.33,11.11,1
3810,56.8,-9.6,6.94,1
3811,56.81,-6.37,13.76,1
3812,56.82,3.71,13.23,1
3813,56.84,5.64,1.11,1
3814,56.85,4.83,-2.28,1
3815,56.86,-0.61,-2.44,1
3816,56.88,-7.57,-8.24,1
3817,56.89,-0.74,-4.04,1
3818,56.9,13.09,7.6,1
3819,56.92,13.64,14.32,0
3820,56.93,2.87,18.61,0
3821,56.94,0.42,10.16,0
3822,56.96,11.48,-11.72,0
3823,56.97,17.31,-10.26,0
3824,56.99,6.39,22.57,0
3825,57.0,-6.26,35.48,0
3826,57.01,-6.39,6.13,0
3827,57.03,-2.25,-19.81,0
3828,57.04,-1.86,-14.13,0
3829,57.05,4.15,1.25,0
3830,57.06,13.27,7.92,0
3831,57.08,5.35,0.17,0
3832,57.09,-12.41,-18.02,0
3833,57.11,-7.47,-23.19,0
3834,57.12,15.55,-10.76,0
3835,57.13,18.49,-2.82,0
3836,57.15,1.43,-4.0,0
3837,57.16,-5.2,-9.96,0
3838,57.17,-3.09,-19.7,0
3839,57.19,-8.32,-21.92,0
3840,57.2,-8.12,-16.5,0
3841,57.21,7.68,-16.67,0
3842,57.22,13.42,-16.91,0
3843,57.24,-1.45,-5.03,0
3844,57.25,-6.08,7.08,0
3845,57.27,5.76,4.55,0
3846,57.28,7.63,-4.19,0
3847,57.29,1.71,-7.17,0
3848,57.31,8.44,-5.01,0
3849,57.32,19.95,0.13,0
3850,57.33,15.91,11.46,0
3851,57.35,2.91,18.6,0
3852,57.36,0.99,7.55,0
3853,57.37,5.09,-4.3,0
3854,57.38,-0.5,-2.29,0
3855,57.4,-4.86,-3.22,0
3856,57.41,6.93,-9.21,0
3857,57.42,16.99,-4.43,0
3858,57.44,6.91,2.14,0
3859,57.45,-6.47,-4.32,0
3860,57.46,-5.55,-12.39,0
3861,57.48,0.78,-9.05,0
3862,57.49,2.58,-1.78,0
3863,57.5,2.0,0.94,0
3864,57.52,3.31,-0.58,0
3865,57.53,6.45,-3.92,0
3866,57.54,6.39,-9.1,0
3867,57.56,4.48,-14.88,0
3868,57.57,9.84,-9.54,0
3869,57.58,13.01,2.46,0
3870,57.6,-1.18,-4.12,0
3871,57.61,-12.94,-16.68,0
3872,57.62,-2.59,-8.66,0
3873,57.64,9.06,-1.39,0
3874,57.65,8.66,-9.51,0
3875,57.67,10.82,-10.42,0
3876,57.68,14.23,-3.33,0
3877,57.69,3.7,-1.56,0
3878,57.71,-12.91,4.45,0
3879,57.72,-14.19,16.67,0
3880,57.73,-3.55,14.91,0
3881,57.75,-3.11,0.28,0
3882,57.76,-8.46,-6.23,0
3883,57.77,0.37,0.18,0
3884,57.79,11.11,17.44,0
3885,57.8,1.79,31.97,0
3886,57.81,-13.56,16.68,0
3887,57.83,-9.36,-16.76,0
3888,57.84,3.46,-28.98,0
3889,57.85,0.62,-16.52,0
3890,57.87,-2.82,-3.91,0
3891,57.88,10.76,0.42,0
3892,57.89,13.74,4.84,0
3893,57.9,-4.36,10.73,0
3894,57.92,-9.77,10.3,0
3895,57.93,-1.34,6.9,0
3896,57.95,-9.76,14.94,0
3897,57.96,-21.81,27.39,0
3898,57.97,-9.14,19.06,0
3899,57.99,6.21,1.46,0
3900,58.0,-0.85,2.96,0
3901,58.01,-4.85,8.72,0
3902,58.02,11.56,-3.06,0
3903,58.04,14.42,-13.03,0
3904,58.05,-13.71,-5.15,0
3905,58.06,-40.58,-0.96,0
3906,58.08,-51.64,-12.65,0
3907,58.09,-57.81,-19.27,0
3908,58.1,-39.22,-10.94,1
3909,58.12,10.27,0.09,1
3910,58.13,36.14,5.04,1
3911,58.14,13.83,-2.8,1
3912,58.16,-3.25,-34.96,1
3913,58.17,17.86,-84.35,1
3914,58.18,38.25,-116.52,1
3915,58.2,21.42,-118.75,1
3916,58.21,-5.99,-117.2,1
3917,58.22,1.57,-118.24,1
3918,58.24,29.06,-108.24,1
3919,58.25,29.62,-98.02,1
3920,58.26,25.99,-99.2,1
3921,58.28,72.2,-100.65,1
3922,58.29,120.78,-89.39,1
3923,58.31,81.9,-65.97,1
3924,58.32,-3.86,-34.99,1
3925,58.33,-29.95,6.27,1
3926,58.35,-6.79,46.43,1
3927,58.36,-10.04,59.83,1
3928,58.37,-34.37,56.54,1
3929,58.38,-36.26,71.84,1
3930,58.4,-25.5,99.82,1
3931,58.41,-26.68,112.18,1
3932,58.43,-27.97,116.02,1
3933,58.44,-25.04,131.26,1
3934,58.45,-36.84,152.53,1
3935,58.47,-45.97,158.29,1
3936,58.48,-22.68,142.46,1
3937,58.49,2.75,127.8,1
3938,58.51,-10.98,127.16,1
3939,58.52,-39.46,120.09,1
3940,58.53,-36.99,103.06,1
3941,58.54,-12.54,102.81,1
3942,58.56,-9.0,116.2,1
3943,58.57,-26.17,112.9,1
3944,58.59,-23.87,92.29,1
3945,58.6,-0.54,78.65,1
3946,58.61,3.58,77.58,1
3947,58.63,-14.53,69.46,1
3948,58.64,-21.46,48.5,1
3949,58.65,-16.96,34.29,1
3950,58.66,-20.81,35.41,1
3951,58.68,-17.35,37.51,1
3952,58.69,4.0,30.26,1
3953,58.7,11.31,21.27,1
3954,58.72,-2.09,15.13,1
3955,58.73,-4.64,1.31,1
3956,58.74,4.62,-16.31,1
3957,58.76,6.15,-17.73,1
3958,58.77,8.78,-5.16,1
3959,58.78,24.0,-2.45,1
3960,58.8,31.39,-21.33,1
3961,58.81,11.38,-44.36,1
3962,58.82,-13.72,-47.09,1
3963,58.84,-11.15,-34.6,1
3964,58.85,5.73,-28.27,1
3965,58.86,5.99,-29.05,1
3966,58.88,2.11,-31.09,1
3967,58.89,10.06,-37.11,1
3968,58.9,3.62,-37.65,1
3969,58.92,-13.37,-26.8,0
3970,58.93,2.74,-26.46,0
3971,58.95,29.07,-46.42,0
3972,58.96,12.8,-63.49,0
3973,58.97,-9.29,-58.94,0
3974,58.99,6.7,-44.58,0
3975,59.0,16.59,-44.15,0
3976,59.01,-7.22,-54.94,0
3977,59.03,-17.79,-56.25,0
3978,59.04,7.37,-50.98,0
3979,59.05,24.02,-54.33,0
3980,59.06,4.4,-54.82,0
3981,59.08,-15.34,-44.38,0
3982,59.09,-0.01,-44.48,0
3983,59.11,32.57,-53.67,0
3984,59.12,39.78,-51.18,0
3985,59.13,12.6,-46.97,0
3986,59.15,-4.64,-52.72,0
3987,59.16,15.1,-53.84,0
3988,59.17,31.29,-40.4,0
3989,59.19,14.38,-26.74,0
3990,59.2,-2.36,-29.43,0
3991,59.21,2.64,-38.84,0
3992,59.22,7.11,-38.81,0
3993,59.24,5.3,-37.79,0
3994,59.25,11.48,-46.34,0
3995,59.27,12.13,-49.39,0
3996,59.28,-2.25,-36.79,0
3997,59.29,-3.38,-26.16,0
3998,59.3,11.66,-27.52,0
3999,59.32,10.21,-28.15,0
4000,59.33,-6.14,-24.19,0
4001,59.34,-7.11,-22.41,0
4002,59.36,6.34,-21.8,0
4003,59.37,7.8,-20.18,0
4004,59.38,-4.73,-17.35,0
4005,59.4,-5.63,-13.29,0
4006,59.41,10.93,-14.55,0
4007,59.42,12.08,-20.32,0
4008,59.44,-10.8,-17.68,0
4009,59.45,-14.57,-6.54,0
4010,59.46,11.44,1.2,0
4011,59.48,25.14,3.66,0
4012,59.49,12.26,2.86,0
4013,59.5,-4.38,-1.9,0
4014,59.52,-12.07,-5.69,0
4015,59.53,-13.81,-4.41,0
4016,59.54,-11.5,-3.99,0
4017,59.56,-6.53,-9.5,0
4018,59.57,-5.32,-13.16,0
4019,59.59,-9.7,-4.0,0
4020,59.6,-13.3,9.01,0
4021,59.61,-12.12,6.09,0
4022,59.63,-7.04,-3.46,0
4023,59.64,0.89,2.31,0
4024,59.65,9.58,14.45,0
4025,59.67,8.79,17.92,0
4026,59.68,-4.64,18.6,0
4027,59.69,-12.74,17.78,0
4028,59.71,-9.01,11.84,0
4029,59.72,-5.13,7.15,0
4030,59.73,-2.05,6.78,0
4031,59.75,3.6,7.57,0
4032,59.76,7.72,10.04,0
4033,59.77,7.21,17.19,0
4034,59.79,3.91,27.38,0
4035,59.8,3.12,34.05,0
4036,59.81,1.85,34.43,0
4037,59.83,-5.08,29.98,0
4038,59.84,-8.88,22.21,0
4039,59.85,-1.89,11.83,0
4040,59.87,4.48,6.12,0
4041,59.88,-6.22,12.3,0
4042,59.89,-22.46,18.98,0
4043,59.9,-17.2,14.58,0
4044,59.92,1.78,8.1,0
4045,59.93,6.76,11.69,0
4046,59.94,-1.85,23.17,0
4047,59.96,-4.98,28.48,0
4048,59.97,5.43,24.58,0
4049,59.98,17.45,25.34,0
4050,60.0,14.92,28.64,0
4051,60.01,3.34,23.53,0
4052,60.02,-2.54,20.79,0
4053,60.04,-1.84,26.15,0
4054,60.05,1.98,25.03,0
4055,60.06,-0.11,16.02,0
4056,60.08,-27.7,13.58,0
4057,60.09,-63.08,20.18,0
4058,60.1,-54.92,22.77,1
4059,60.12,-5.82,13.82,1
4060,60.13,26.03,7.14,1
4061,60.14,14.27,15.89,1
4062,60.16,-2.22,24.41,1
4063,60.17,11.77,17.97,1
4064,60.18,27.69,18.03,1
4065,60.2,16.85,54.01,1
4066,60.21,8.96,129.47,1
4067,60.22,22.37,219.33,1
4068,60.24,30.89,283.4,1
4069,60.25,16.53,292.94,1
4070,60.27,-6.45,251.68,1
4071,60.28,-3.02,196.43,1
4072,60.29,30.27,157.47,1
4073,60.31,41.74,117.09,1
4074,60.32,10.67,56.24,1
4075,60.33,-20.48,-2.34,1
4076,60.35,-22.63,-43.12,1
4077,60.36,-9.21,-81.42,1
4078,60.37,-4.72,-122.53,1
4079,60.38,-13.73,-151.82,1
4080,60.4,-18.53,-166.78,1
4081,60.41,-9.88,-181.25,1
4082,60.43,-4.59,-196.28,1
4083,60.44,-15.84,-195.43,1
4084,60.45,-28.59,-177.86,1
4085,60.47,-20.46,-164.59,1
4086,60.48,2.99,-161.46,1
4087,60.49,14.46,-152.72,1
4088,60.51,7.5,-138.81,1
4089,60.52,2.58,-133.63,1
4090,60.53,8.68,-129.46,1
4091,60.54,15.14,-115.6,1
4092,60.56,17.12,-106.18,1
4093,60.57,10.8,-105.74,1
4094,60.58,-8.66,-93.78,1
4095,60.6,-26.36,-70.66,1
4096,60.61,-20.34,-60.37,1
4097,60.62,-0.81,-63.88,1
4098,60.64,3.12,-61.99,1
4099,60.65,-5.23,-50.45,1
4100,60.66,-2.01,-38.77,1
4101,60.68,6.75,-27.85,1
4102,60.69,3.57,-17.34,1
4103,60.7,-6.12,-13.56,1
4104,60.72,-11.99,-14.25,1
4105,60.73,-12.17,-9.71,1
4106,60.74,-8.35,1.15,1
4107,60.76,-5.66,13.65,1
4108,60.77,-1.23,23.11,1
4109,60.78,8.78,25.24,1
4110,60.8,11.5,21.67,1
4111,60.81,1.77,20.86,1
4112,60.82,-2.41,24.66,1
4113,60.84,8.23,33.46,1
4114,60.85,17.75,45.14,1
4115,60.865,15.85,43.77,1
4116,60.88,12.07,33.8,1
4117,60.89,5.01,36.89,1
4118,60.9,-12.83,41.07,1
4119,60.92,-23.3,38.7,0
4120,60.93,-13.53,48.87,0
4121,60.95,-1.22,60.77,0
4122,60.96,3.43,53.58,0
4123,60.97,3.49,45.44,0
4124,60.99,-0.17,54.17,0
4125,61.0,-5.34,62.88,0
4126,61.01,-11.13,56.86,0
4127,61.03,-13.1,48.4,0
4128,61.04,-5.29,47.46,0
4129,61.05,1.09,47.44,0
4130,61.06,-2.9,42.14,0
4131,61.08,-5.28,35.75,0
4132,61.09,-1.75,38.05,0
4133,61.11,-0.36,50.65,0
4134,61.12,2.89,54.28,0
4135,61.13,13.38,37.82,0
4136,61.15,15.31,26.46,0
4137,61.16,-1.29,33.72,0
4138,61.17,-15.09,36.04,0
4139,61.19,-10.45,28.85,0
4140,61.2,-1.15,32.86,0
4141,61.21,3.59,44.9,0
4142,61.22,8.9,45.66,0
4143,61.24,10.99,36.38,0
4144,61.25,5.44,28.91,0
4145,61.26,1.74,24.21,0
4146,61.28,3.37,21.81,0
4147,61.29,2.57,22.19,0
4148,61.3,2.85,24.77,0
4149,61.32,7.21,27.53,0
4150,61.33,3.36,21.54,0
4151,61.34,-7.57,11.52,0
4152,61.36,-6.27,15.8,0
4153,61.37,5.72,24.24,0
4154,61.38,5.46,15.07,0
4155,61.4,-6.97,-0.75,0
4156,61.41,-8.12,2.82,0
4157,61.42,2.96,20.8,0
4158,61.44,6.45,27.26,0
4159,61.45,1.85,16.48,0
4160,61.46,-4.23,2.15,0
4161,61.48,-12.81,-3.36,0
4162,61.49,-15.32,-1.89,0
4163,61.5,-7.05,-0.81,0
4164,61.52,-1.54,-0.47,0
4165,61.53,-3.64,-4.52,0
4166,61.54,-2.42,-8.88,0
4167,61.56,5.18,-2.02,0
4168,61.57,8.16,3.44,0
4169,61.59,-1.28,-0.74,0
4170,61.6,-6.77,-1.63,0
4171,61.61,8.32,-1.21,0
4172,61.63,21.57,-0.31,0
4173,61.64,14.37,9.98,0
4174,61.65,7.17,15.46,0
4175,61.67,7.91,4.1,0
4176,61.68,0.26,-4.77,0
4177,61.69,-9.78,-5.58,0
4178,61.71,-5.58,-15.61,0
4179,61.72,-1.6,-23.51,0
4180,61.73,-9.02,-11.79,0
4181,61.75,-7.13,0.65,0
4182,61.76,6.77,-8.32,0
4183,61.77,6.86,-29.44,0
4184,61.79,-5.88,-36.89,0
4185,61.8,-3.96,-26.74,0
4186,61.81,11.5,-18.13,0
4187,61.83,11.18,-18.03,0
4188,61.84,-2.0,-20.38,0
4189,61.85,3.27,-19.43,0
4190,61.86,20.9,-16.32,0
4191,61.88,19.86,-21.71,0
4192,61.89,2.38,-31.46,0
4193,61.9,-6.7,-28.23,0
4194,61.92,2.3,-17.15,0
4195,61.93,9.52,-16.69,0
4196,61.94,-7.0,-24.21,0
4197,61.96,-23.1,-25.18,0
4198,61.97,-4.54,-19.27,0
4199,61.98,22.15,-14.13,0
4200,62.0,17.61,-12.8,0
4201,62.01,5.93,-15.37,0
4202,62.02,15.93,-17.4,0
4203,62.04,19.01,-15.34,0
4204,62.05,-0.53,-14.06,0
4205,62.06,-16.17,-15.01,0
4206,62.08,-28.33,-14.13,0
4207,62.09,-53.66,-13.84,0
4208,62.1,-60.81,-18.64,1
4209,62.12,-18.32,-23.81,1
4210,62.13,26.71,-18.38,1
4211,62.14,19.63,-4.55,1
4212,62.16,-5.58,-5.23,1
4213,62.17,6.08,-22.14,1
4214,62.19,35.22,-29.17,1
4215,62.2,34.84,-11.62,1
4216,62.21,14.04,7.0,1
4217,62.22,15.26,-24.71,1
4218,62.24,30.5,-77.84,1
4219,62.25,17.35,-71.02,1
4220,62.27,-9.23,-10.26,1
4221,62.28,-6.93,69.48,1
4222,62.29,28.76,182.77,1
4223,62.31,70.92,275.27,1
4224,62.32,61.48,200.76,1
4225,62.33,-1.53,19.56,1
4226,62.35,-48.16,-50.74,1
4227,62.36,-54.72,-17.95,1
4228,62.37,-23.39,4.62,1
4229,62.38,16.87,4.39,1
4230,62.4,8.92,-31.97,1
4231,62.41,-17.92,-83.18,1
4232,62.43,-6.69,-55.21,1
4233,62.44,15.05,22.21,1
4234,62.45,11.01,0.92,1
4235,62.47,1.63,-109.36,1
4236,62.48,4.57,-135.09,1
4237,62.49,9.16,-44.11,1
4238,62.5,5.81,8.69,1
4239,62.52,-8.32,-37.08,1
4240,62.53,-30.72,-82.73,1
4241,62.54,-48.38,-73.89,1
4242,62.56,-47.98,-60.05,1
4243,62.57,-35.13,-72.36,1
4244,62.58,-23.18,-74.11,1
4245,62.6,-21.17,-59.99,1
4246,62.61,-31.26,-59.57,1
4247,62.62,-29.35,-43.78,1
4248,62.64,-3.61,-4.71,1
4249,62.65,5.91,8.8,1
4250,62.66,-14.25,22.44,1
4251,62.68,-16.63,63.02,1
4252,62.69,-0.2,50.66,1
4253,62.7,-9.8,-16.47,1
4254,62.72,-29.97,-13.33,1
4255,62.73,-21.4,49.84,1
4256,62.74,3.69,25.88,1
4257,62.76,13.1,-76.51,1
4258,62.77,0.57,-89.19,1
4259,62.78,-7.88,9.68,1
4260,62.8,2.81,49.77,1
4261,62.81,14.95,-9.41,1
4262,62.82,14.6,-14.08,1
4263,62.84,10.61,49.29,1
4264,62.85,12.1,47.51,1
4265,62.87,10.74,-3.52,1
4266,62.88,6.06,-14.97,1
4267,62.89,15.1,-10.55,1
4268,62.9,29.5,-14.06,1
4269,62.92,21.69,-6.5,0
4270,62.93,4.07,-6.66,0
4271,62.95,7.5,-4.02,0
4272,62.96,19.89,35.73,0
4273,62.97,21.66,57.98,0
4274,62.99,18.51,9.29,0
4275,63.0,6.72,-45.29,0
4276,63.01,-9.85,-42.22,0
4277,63.03,-5.96,-14.89,0
4278,63.04,15.45,1.98,0
4279,63.05,15.98,14.61,0
4280,63.06,-14.71,14.97,0
4281,63.08,-29.38,-5.32,0
4282,63.09,0.12,-18.48,0
4283,63.11,25.58,10.54,0
4284,63.12,8.72,60.22,0
4285,63.13,-11.08,67.99,0
4286,63.14,-8.1,36.68,0
4287,63.16,-13.38,27.02,0
4288,63.17,-14.1,44.36,0
4289,63.18,30.48,50.75,0
4290,63.2,69.69,42.0,0
4291,63.21,36.43,31.39,0
4292,63.22,-16.47,28.68,0
4293,63.24,-17.34,36.31,0
4294,63.25,2.12,14.86,0
4295,63.26,-4.29,-61.77,0
4296,63.28,-15.35,-117.44,0
4297,63.29,-7.79,-68.83,0
4298,63.3,-4.29,33.39,0
4299,63.32,-13.02,74.35,0
4300,63.33,-2.49,30.8,0
4301,63.34,24.13,-16.1,0
4302,63.36,17.2,4.78,0
4303,63.37,-24.73,55.27,0
4304,63.38,-41.17,52.42,0
4305,63.4,-17.89,11.63,0
4306,63.41,-1.41,18.82,0
4307,63.42,-0.94,59.32,0
4308,63.44,12.03,35.29,0
4309,63.45,32.54,-19.88,0
4310,63.46,28.12,7.99,0
4311,63.48,3.59,64.05,0
4312,63.49,3.94,33.04,0
4313,63.51,24.33,-12.28,0
4314,63.52,13.3,25.89,0
4315,63.53,-19.0,69.27,0
4316,63.54,-21.84,40.98,0
4317,63.56,3.84,-1.76,0
4318,63.57,13.24,-0.68,0
4319,63.59,-4.4,19.92,0
4320,63.6,-16.05,12.39,0
4321,63.61,-12.19,-8.93,0
4322,63.63,-11.9,13.98,0
4323,63.64,-20.09,58.1,0
4324,63.65,-22.44,45.54,0
4325,63.67,-20.17,-5.64,0
4326,63.68,-31.59,-11.06,0
4327,63.69,-32.05,16.11,0
4328,63.71,8.06,-5.73,0
4329,63.72,46.06,-29.64,0
4330,63.73,37.27,21.29,0
4331,63.75,7.82,57.66,0
4332,63.76,-3.06,11.06,0
4333,63.77,-12.97,-42.95,0
4334,63.78,-39.21,-40.59,0
4335,63.8,-29.14,-1.43,0
4336,63.81,21.26,3.38,0
4337,63.82,21.46,-42.87,0
4338,63.84,-23.76,-41.5,0
4339,63.85,-17.93,39.15,0
4340,63.86,19.91,66.69,0
4341,63.88,4.93,2.3,0
4342,63.89,-32.91,-26.42,0
4343,63.9,-23.54,-2.6,0
4344,63.92,0.28,0.38,0
4345,63.93,-1.95,-17.3,0
4346,63.94,2.27,-52.16,0
4347,63.96,12.89,-67.17,0
4348,63.97,-0.53,-10.42,0
4349,63.98,-12.72,29.83,0
4350,64.0,-5.3,-14.89,0
4351,64.01,-1.34,-41.81,0
4352,64.02,-1.63,-0.52,0
4353,64.04,9.65,15.6,0
4354,64.05,26.98,-14.49,0
4355,64.06,21.26,-13.44,0
4356,64.08,-26.07,5.03,0
4357,64.09,-69.72,-6.32,0
4358,64.1,-35.93,-8.43,0
4359,64.12,45.25,-4.28,1
4360,64.13,59.02,-24.5,1
4361,64.14,6.58,-25.93,1
4362,64.16,-8.08,-22.12,1
4363,64.17,26.98,-55.69,1
4364,64.18,46.07,-78.17,1
4365,64.2,30.99,-76.89,1
4366,64.21,11.64,-105.04,1
4367,64.22,2.33,-157.28,1
4368,64.24,-3.27,-185.76,1
4369,64.25,1.38,-172.32,1
4370,64.26,10.16,-118.46,1
4371,64.28,14.5,-14.77,1
4372,64.29,39.56,94.89,1
4373,64.3,74.34,110.28,1
4374,64.32,62.36,49.97,1
4375,64.33,12.73,33.76,1
4376,64.34,-14.33,72.72,1
4377,64.36,-8.23,90.91,1
4378,64.37,5.67,75.48,1
4379,64.38,8.45,63.86,1
4380,64.4,-13.75,64.14,1
4381,64.41,-42.81,58.8,1
4382,64.42,-44.55,45.06,1
4383,64.44,-32.83,32.18,1
4384,64.45,-34.15,25.46,1
4385,64.46,-30.78,23.96,1
4386,64.48,-15.87,17.78,1
4387,64.49,-11.82,3.79,1
4388,64.5,-13.94,-3.56,1
4389,64.52,-12.34,-1.36,1
4390,64.53,-14.49,-8.98,1
4391,64.54,-13.4,-29.67,1
4392,64.56,-3.87,-33.2,1
4393,64.57,1.8,-4.65,1
4394,64.58,-5.89,18.08,1
4395,64.6,-21.86,5.72,1
4396,64.61,-20.24,-6.84,1
4397,64.62,2.45,8.87,1
4398,64.64,7.6,24.2,1
4399,64.65,-7.48,19.28,1
4400,64.66,-6.8,15.33,1
4401,64.68,4.93,23.06,1
4402,64.69,0.69,25.34,1
4403,64.7,-13.19,13.15,1
4404,64.72,-17.22,0.54,1
4405,64.73,-10.35,2.67,1
4406,64.74,-1.92,17.38,1
4407,64.76,5.82,27.31,1
4408,64.77,14.81,21.62,1
4409,64.79,18.31,13.56,1
4410,64.8,11.86,15.59,1
4411,64.81,5.8,16.43,1
4412,64.82,4.86,7.11,1
4413,64.84,-1.87,-0.09,1
4414,64.85,-10.83,1.32,1
4415,64.86,-3.0,5.84,1
4416,64.88,15.69,16.59,1
4417,64.89,20.09,27.92,1
4418,64.9,4.98,21.22,0
4419,64.92,-9.18,2.39,0
4420,64.93,-1.04,-9.93,0
4421,64.94,15.54,-15.89,0
4422,64.96,9.39,-16.41,0
4423,64.97,-7.46,-7.62,0
4424,64.98,-7.21,-1.72,0
4425,65.0,-4.28,-8.79,0
4426,65.01,-14.14,-17.17,0
4427,65.02,-15.74,-18.7,0
4428,65.04,-0.73,-20.33,0
4429,65.05,6.75,-19.43,0
4430,65.06,-2.44,-3.24,0
4431,65.08,-7.22,13.84,0
4432,65.09,2.69,6.39,0
4433,65.1,8.22,-13.2,0
4434,65.12,2.98,-20.71,0
4435,65.13,8.02,-15.59,0
4436,65.14,19.96,-9.39,0
4437,65.16,10.8,-8.25,0
4438,65.17,-6.49,-8.13,0
4439,65.18,-1.69,-9.4,0
4440,65.2,8.69,-12.87,0
4441,65.21,2.24,-10.26,0
4442,65.22,-0.96,-2.49,0
4443,65.24,13.51,1.63,0
4444,65.25,20.54,0.45,0
4445,65.26,6.03,-7.5,0
4446,65.28,-7.54,-17.67,0
4447,65.29,-4.71,-16.98,0
4448,65.3,1.79,-11.14,0
4449,65.32,-3.25,-13.3,0
4450,65.33,-10.64,-16.64,0
4451,65.34,-2.43,-17.34,0
4452,65.36,9.83,-16.21,0
4453,65.37,5.46,-5.06,0
4454,65.38,-3.1,9.21,0
4455,65.4,-1.21,11.67,0
4456,65.41,-1.12,5.46,0
4457,65.43,-7.91,-5.54,0
4458,65.44,-8.32,-17.19,0
4459,65.45,-2.11,-14.45,0
4460,65.46,-2.34,-5.24,0
4461,65.48,-6.01,-12.46,0
4462,65.49,0.49,-19.36,0
4463,65.5,10.31,-2.83,0
4464,65.52,6.65,8.79,0
4465,65.53,-2.44,-6.94,0
4466,65.54,-0.56,-16.16,0
4467,65.56,4.63,0.1,0
4468,65.57,2.43,7.41,0
4469,65.58,3.16,-7.77,0
4470,65.6,11.78,-6.23,0
4471,65.61,12.78,19.67,0
4472,65.62,3.67,17.67,0
4473,65.64,-0.64,-19.75,0
4474,65.65,0.24,-29.84,0
4475,65.66,0.88,1.77,0
4476,65.68,2.66,17.96,0
4477,65.69,1.53,5.43,0
4478,65.7,-1.11,3.89,0
4479,65.72,1.9,10.13,0
4480,65.73,4.97,0.2,0
4481,65.74,1.82,-8.9,0
4482,65.76,-1.16,-1.62,0
4483,65.77,1.36,5.13,0
4484,65.78,7.7,-3.46,0
4485,65.8,12.06,-14.34,0
4486,65.81,9.01,-11.4,0
4487,65.82,-1.44,-7.15,0
4488,65.84,-15.73,-9.7,0
4489,65.85,-23.14,0.31,0
4490,65.86,-13.11,17.85,0
4491,65.88,4.54,12.95,0
4492,65.89,13.62,-2.76,0
4493,65.9,14.37,3.77,0
4494,65.92,11.71,18.84,0
4495,65.93,6.9,14.69,0
4496,65.94,1.73,1.87,0
4497,65.96,-2.37,-2.44,0
4498,65.97,-3.37,-1.99,0
4499,65.98,0.05,-3.55,0
4500,66.0,1.62,-7.14,0
4501,66.01,-4.91,-3.93,0
4502,66.02,-11.89,9.22,0
4503,66.04,-9.8,14.14,0
4504,66.05,-2.87,2.89,0
4505,66.06,0.82,-3.28,0
4506,66.08,-11.11,3.72,0
4507,66.09,-46.82,5.69,0
4508,66.11,-69.85,-4.86,1
4509,66.12,-37.96,-11.16,1
4510,66.13,11.11,1.62,1
4511,66.14,20.64,10.92,1
4512,66.16,9.75,-20.16,1
4513,66.17,12.96,-78.18,1
4514,66.18,21.03,-120.63,1
4515,66.2,22.49,-134.6,1
4516,66.21,24.06,-128.96,1
4517,66.22,30.44,-116.75,1
4518,66.24,34.51,-114.08,1
4519,66.25,31.48,-120.65,1
4520,66.26,27.95,-117.37,1
4521,66.28,32.32,-95.97,1
4522,66.29,54.96,-65.53,1
4523,66.3,73.9,-36.44,1
4524,66.32,44.44,-14.44,1
4525,66.33,-5.42,2.73,1
4526,66.34,-15.17,25.59,1
4527,66.36,-0.6,54.74,1
4528,66.37,-5.94,76.95,1
4529,66.38,-27.96,88.99,1
4530,66.4,-40.21,101.76,1
4531,66.41,-37.38,116.91,1
4532,66.42,-32.97,122.73,1
4533,66.44,-34.56,116.22,1
4534,66.45,-35.38,112.45,1
4535,66.46,-29.46,119.9,1
4536,66.48,-21.99,125.89,1
4537,66.49,-19.01,126.19,1
4538,66.5,-23.12,130.61,1
4539,66.52,-32.53,132.75,1
4540,66.53,-33.41,127.37,1
4541,66.54,-19.42,127.39,1
4542,66.56,-13.83,130.32,1
4543,66.57,-26.35,122.75,1
4544,66.58,-25.51,109.28,1
4545,66.6,-3.99,99.68,1
4546,66.61,4.07,92.27,1
4547,66.62,-3.6,77.81,1
4548,66.64,-4.97,53.56,1
4549,66.65,-6.97,35.2,1
4550,66.66,-16.87,34.7,1
4551,66.68,-18.87,35.72,1
4552,66.69,-7.65,21.29,1
4553,66.7,4.74,-1.78,1
4554,66.72,9.05,-19.76,1
4555,66.73,6.84,-21.97,1
4556,66.75,4.93,-7.28,1
4557,66.76,6.92,5.43,1
4558,66.77,13.02,2.22,1
4559,66.79,19.38,-4.99,1
4560,66.8,16.58,-8.23,1
4561,66.81,4.86,-14.23,1
4562,66.82,-1.98,-20.09,1
4563,66.84,-0.07,-19.8,1
4564,66.85,3.13,-19.51,1
4565,66.86,5.22,-24.39,1
4566,66.88,6.36,-30.33,1
4567,66.89,8.33,-34.38,1
4568,66.9,11.01,-39.68,0
4569,66.92,5.24,-44.92,0
4570,66.93,-6.6,-42.42,0
4571,66.94,-7.08,-39.37,0
4572,66.96,3.16,-51.94,0
4573,66.97,9.71,-67.3,0
4574,66.98,11.41,-61.64,0
4575,67.0,8.56,-47.15,0
4576,67.01,-1.07,-46.96,0
4577,67.02,-6.88,-51.96,0
4578,67.04,-1.02,-48.92,0
4579,67.05,8.06,-47.81,0
4580,67.06,10.06,-52.85,0
4581,67.08,2.73,-53.27,0
4582,67.09,-6.24,-49.66,0
4583,67.1,-5.81,-48.96,0
4584,67.12,4.29,-47.53,0
4585,67.13,16.04,-46.25,0
4586,67.14,19.13,-50.63,0
4587,67.16,10.02,-53.77,0
4588,67.17,-3.02,-50.21,0
4589,67.18,-9.32,-44.78,0
4590,67.2,-3.81,-40.8,0
4591,67.21,9.27,-38.54,0
4592,67.22,17.14,-34.75,0
4593,67.24,12.69,-31.02,0
4594,67.25,6.24,-34.39,0
4595,67.26,7.64,-38.69,0
4596,67.28,4.05,-35.97,0
4597,67.29,-10.85,-32.76,0
4598,67.3,-13.3,-34.0,0
4599,67.32,3.21,-35.4,0
4600,67.33,12.05,-33.04,0
4601,67.34,6.9,-27.26,0
4602,67.36,5.58,-22.95,0
4603,67.37,7.78,-23.05,0
4604,67.38,2.29,-21.64,0
4605,67.4,-4.89,-18.16,0
4606,67.41,-3.48,-20.7,0
4607,67.43,4.3,-27.8,0
4608,67.44,10.9,-33.36,0
4609,67.45,11.98,-31.25,0
4610,67.46,10.36,-17.28,0
4611,67.48,8.39,-4.38,0
4612,67.49,4.16,-6.33,0
4613,67.5,2.93,-10.75,0
4614,67.52,8.69,-5.65,0
4615,67.53,13.19,-2.34,0
4616,67.54,7.35,-7.5,0
4617,67.56,-6.97,-10.47,0
4618,67.57,-14.34,-5.85,0
4619,67.58,-6.79,-0.28,0
4620,67.6,1.05,-0.47,0
4621,67.61,-0.17,-2.09,0
4622,67.62,-5.86,3.49,0
4623,67.64,-11.81,6.72,0
4624,67.65,-10.01,-1.16,0
4625,67.66,0.92,-3.67,0
4626,67.68,7.72,8.44,0
4627,67.69,6.39,17.31,0
4628,67.7,6.45,15.63,0
4629,67.72,6.61,17.01,0
4630,67.73,-1.05,23.1,0
4631,67.74,-6.69,25.83,0
4632,67.76,-1.91,27.6,0
4633,67.77,-0.27,31.45,0
4634,67.78,-6.71,32.25,0
4635,67.8,-8.43,23.12,0
4636,67.81,-5.76,10.2,0
4637,67.82,-6.56,9.98,0
4638,67.84,-6.67,21.55,0
4639,67.85,-2.34,25.93,0
4640,67.86,3.03,17.93,0
4641,67.88,5.71,10.15,0
4642,67.89,2.2,9.59,0
4643,67.9,-7.51,13.53,0
4644,67.92,-15.43,18.89,0
4645,67.93,-7.21,22.67,0
4646,67.94,11.56,22.36,0
4647,67.96,14.06,21.46,0
4648,67.97,4.55,21.74,0
4649,67.98,5.79,18.91,0
4650,68.0,5.34,14.2,0
4651,68.01,-10.69,14.73,0
4652,68.02,-20.35,21.87,0
4653,68.04,-7.93,28.32,0
4654,68.05,8.86,29.46,0
4655,68.06,13.42,27.89,0
4656,68.08,2.42,25.0,0
4657,68.09,-34.76,21.85,0
4658,68.11,-74.44,23.82,1
4659,68.12,-61.79,27.84,1
4660,68.13,-13.44,26.0,1
4661,68.14,10.64,21.49,1
4662,68.16,11.52,22.3,1
4663,68.17,20.51,37.01,1
4664,68.18,33.65,80.02,1
4665,68.2,30.19,152.07,1
4666,68.21,13.88,225.17,1
4667,68.22,1.14,264.96,1
4668,68.24,-3.8,263.28,1
4669,68.25,-4.05,239.94,1
4670,68.26,-9.05,205.96,1
4671,68.28,-8.91,153.16,1
4672,68.29,27.04,89.81,1
4673,68.3,67.03,39.49,1
4674,68.32,46.95,0.59,1
4675,68.33,1.01,-43.25,1
4676,68.34,-2.46,-88.64,1
4677,68.36,7.29,-127.04,1
4678,68.37,-14.06,-158.38,1
4679,68.38,-30.25,-180.03,1
4680,68.4,-14.33,-190.97,1
4681,68.41,-3.82,-194.46,1
4682,68.42,-13.66,-191.98,1
4683,68.44,-15.1,-184.51,1
4684,68.45,-5.29,-171.64,1
4685,68.46,-2.89,-155.4,1
4686,68.48,-8.25,-143.64,1
4687,68.49,-10.13,-136.29,1
4688,68.5,-2.12,-124.5,1
4689,68.52,5.07,-104.07,1
4690,68.53,0.51,-80.74,1
4691,68.54,-3.85,-69.49,1
4692,68.56,-2.03,-75.14,1
4693,68.57,-5.2,-75.99,1
4694,68.58,-10.34,-61.28,1
4695,68.6,-5.6,-52.38,1
4696,68.61,3.49,-57.35,1
4697,68.62,2.37,-55.97,1
4698,68.64,-7.07,-38.66,1
4699,68.65,-8.36,-21.16,1
4700,68.66,-1.54,-16.28,1
4701,68.68,-0.75,-17.31,1
4702,68.69,-1.34,-15.96,1
4703,68.7,4.73,-13.0,1
4704,68.72,6.6,-9.05,1
4705,68.73,2.87,-4.88,1
4706,68.75,7.07,0.35,1
4707,68.76,15.59,10.95,1
4708,68.77,12.56,21.73,1
4709,68.79,3.65,22.53,1
4710,68.8,9.95,15.47,1
4711,68.81,24.3,9.58,1
4712,68.82,16.59,10.76,1
4713,68.84,-8.57,18.63,1
4714,68.85,-17.01,27.29,1
4715,68.86,-8.33,31.08,1
4716,68.88,-7.99,30.78,1
4717,68.89,-11.1,36.07,1
4718,68.9,-0.12,46.82,0
4719,68.92,14.35,49.1,0
4720,68.93,12.28,46.38,0
4721,68.94,-1.78,48.56,0
4722,68.96,-8.77,47.85,0
4723,68.97,-9.08,41.76,0
4724,68.98,-13.98,43.94,0
4725,69.0,-11.88,57.69,0
4726,69.01,8.96,65.27,0
4727,69.02,23.69,53.41,0
4728,69.04,8.85,37.29,0
4729,69.05,-9.66,37.34,0
4730,69.06,-1.5,46.58,0
4731,69.08,12.62,45.45,0
4732,69.09,7.78,35.78,0
4733,69.1,1.69,32.59,0
4734,69.12,6.41,40.26,0
4735,69.13,3.56,49.46,0
4736,69.14,-8.37,49.93,0
4737,69.16,-9.8,41.47,0
4738,69.17,-0.82,31.67,0
4739,69.18,1.37,30.56,0
4740,69.2,-4.05,36.92,0
4741,69.21,-3.46,38.69,0
4742,69.22,0.18,35.33,0
4743,69.24,-6.66,31.88,0
4744,69.25,-14.51,27.09,0
4745,69.26,-3.05,26.33,0
4746,69.28,12.84,33.7,0
4747,69.29,5.37,33.41,0
4748,69.3,-9.31,20.2,0
4749,69.32,-5.9,14.2,0
4750,69.33,-0.68,16.98,0
4751,69.34,-10.11,17.91,0
4752,69.36,-17.52,24.76,0
4753,69.37,-7.68,32.06,0
4754,69.38,7.44,23.17,0
4755,69.4,9.99,9.35,0
4756,69.41,3.26,8.32,0
4757,69.43,-3.96,11.96,0
4758,69.44,-16.08,5.31,0
4759,69.45,-22.11,-7.77,0
4760,69.46,-1.44,-11.74,0
4761,69.48,26.15,-3.33,0
4762,69.49,25.85,7.09,0
4763,69.5,11.71,14.17,0
4764,69.52,14.41,16.7,0
4765,69.53,19.26,11.49,0
4766,69.54,2.8,4.3,0
4767,69.56,-17.16,2.61,0
4768,69.57,-14.7,-1.92,0
4769,69.58,0.84,-16.64,0
4770,69.6,1.93,-25.95,0
4771,69.61,-7.11,-14.8,0
4772,69.62,1.36,-1.03,0
4773,69.64,15.69,-3.93,0
4774,69.65,8.74,-7.48,0
4775,69.66,-2.13,-2.85,0
4776,69.68,-2.92,-10.48,0
4777,69.69,-11.18,-27.61,0
4778,69.7,-16.94,-26.36,0
4779,69.72,-0.66,-6.4,0
4780,69.73,13.09,4.95,0
4781,69.74,2.53,0.41,0
4782,69.76,-11.78,-4.08,0
4783,69.77,-10.22,-6.93,0
4784,69.78,-1.85,-11.05,0
4785,69.8,-0.3,-12.56,0
4786,69.81,-2.73,-17.91,0
4787,69.82,1.08,-27.62,0
4788,69.84,6.45,-28.9,0
4789,69.85,-3.54,-23.49,0
4790,69.86,-17.84,-22.48,0
4791,69.88,-6.3,-23.75,0
4792,69.89,18.12,-22.6,0
4793,69.9,18.45,-22.25,0
4794,69.92,0.51,-23.1,0
4795,69.93,-7.28,-25.34,0
4796,69.94,-6.16,-30.82,0
4797,69.96,-9.6,-27.89,0
4798,69.97,-6.32,-9.12,0
4799,69.98,9.61,6.33,0
4800,70.0,10.36,-3.23,0
4801,70.01,-12.28,-30.15,0
4802,70.02,-20.67,-39.34,0
4803,70.04,-2.49,-16.62,0
4804,70.05,6.32,3.68,0
4805,70.06,-2.89,-1.75,0
4806,70.08,-8.63,-12.34,0
4807,70.09,-24.34,-13.16,0
4808,70.11,-56.77,-12.36,1
4809,70.12,-53.73,-17.63,1
4810,70.13,0.56,-31.27,1
4811,70.14,37.08,-48.43,1
4812,70.16,19.68,-47.3,1
4813,70.17,-1.38,-5.87,1
4814,70.18,14.29,51.86,1
4815,70.2,35.4,99.64,1
4816,70.21,24.31,150.47,1
4817,70.22,8.66,165.1,1
4818,70.24,13.73,98.06,1
4819,70.25,4.75,32.36,1
4820,70.26,-12.16,44.38,1
4821,70.28,17.73,59.36,1
4822,70.29,75.04,6.18,1
4823,70.3,90.46,-65.25,1
4824,70.32,57.79,-109.51,1
4825,70.33,20.83,-118.15,1
4826,70.34,-1.63,-62.29,1
4827,70.36,-8.96,-7.42,1
4828,70.37,-1.58,-55.58,1
4829,70.38,4.51,-94.98,1
4830,70.4,-8.5,-5.39,1
4831,70.41,-35.31,50.5,1
4832,70.42,-44.3,-29.85,1
4833,70.44,-18.12,-94.53,1
4834,70.45,12.15,-111.56,1
4835,70.46,10.45,-137.9,1
4836,70.48,-8.53,-99.76,1
4837,70.49,-11.66,-50.68,1
4838,70.5,-9.4,-124.35,1
