,Timestamp,Data1,Data2,Label
0,6.0,-16.18,-0.53,0
1,6.01,-14.62,2.34,0
2,6.03,-14.96,5.65,0
3,6.04,-11.69,2.16,0
4,6.05,1.83,1.78,0
5,6.07,9.07,14.68,0
6,6.08,-1.93,22.07,0
7,6.09,-12.03,7.14,0
8,6.11,-6.93,-11.79,1
9,6.12,1.28,-11.0,1
10,6.13,3.77,2.23,1
11,6.15,6.87,-1.39,1
12,6.16,11.32,-26.99,1
13,6.17,10.49,-40.6,1
14,6.19,9.39,-20.19,1
15,6.2,20.9,-4.43,1
16,6.21,40.49,-31.4,1
17,6.23,43.41,-59.14,1
18,6.24,9.1,-2.12,1
19,6.25,-56.76,126.72,1
20,6.26,-99.76,117.61,1
21,6.28,-65.14,-9.06,1
22,6.29,6.38,149.02,1
23,6.31,37.5,501.12,1
24,6.32,10.63,530.04,1
25,6.33,-37.17,310.22,1
26,6.35,-41.11,232.69,1
27,6.36,-1.48,271.16,1
28,6.37,24.35,239.41,1
29,6.39,43.97,152.38,1
30,6.4,60.34,67.31,1
31,6.41,32.17,-28.93,1
32,6.43,-11.44,-128.78,1
33,6.44,-5.16,-225.01,1
34,6.45,32.81,-302.39,1
35,6.47,28.49,-274.18,1
36,6.48,-14.93,-187.37,1
37,6.49,-20.83,-205.04,1
38,6.51,18.07,-235.71,1
39,6.52,34.63,-153.82,1
40,6.53,7.27,-118.58,1
41,6.55,-17.45,-187.33,1
42,6.56,-13.03,-212.93,1
43,6.57,0.27,-171.78,1
44,6.59,6.53,-140.38,1
45,6.6,0.32,-154.69,1
46,6.61,-9.71,-186.32,1
47,6.63,-0.54,-178.28,1
48,6.64,14.79,-129.4,1
49,6.65,12.69,-89.57,1
50,6.67,12.69,-80.52,1
51,6.68,22.7,-103.24,1
52,6.69,9.71,-148.8,1
53,6.71,-20.49,-135.26,1
54,6.72,-21.99,-45.59,1
55,6.73,-6.24,-27.56,1
56,6.75,-10.65,-117.19,1
57,6.76,-17.97,-170.27,1
58,6.77,-6.85,-152.4,1
59,6.79,3.45,-134.84,1
60,6.8,-16.02,-110.02,1
61,6.81,-48.11,-50.8,1
62,6.82,-34.76,15.13,1
63,6.84,15.03,41.98,1
64,6.85,26.45,22.55,1
65,6.86,-2.25,6.1,1
66,6.88,-9.31,11.94,1
67,6.89,12.2,19.68,1
68,6.91,25.16,28.9,0
69,6.92,19.28,49.32,0
70,6.93,11.22,77.78,0
71,6.95,16.83,72.1,0
72,6.96,17.68,23.06,0
73,6.97,-10.22,1.27,0
74,6.99,-28.46,17.71,0
75,7.0,-12.72,25.98,0
76,7.01,-6.1,25.02,0
77,7.03,-14.63,34.64,0
78,7.04,-10.98,56.72,0
79,7.05,-3.16,47.8,0
80,7.07,-6.37,7.73,0
81,7.08,-12.3,31.65,0
82,7.09,0.53,118.54,0
83,7.11,15.37,149.77,0
84,7.12,-1.21,101.82,0
85,7.13,-14.31,45.34,0
86,7.15,7.65,20.71,0
87,7.16,26.41,39.08,0
88,7.17,14.62,81.97,0
89,7.19,-5.83,107.68,0
90,7.2,0.38,116.42,0
91,7.21,20.87,126.5,0
92,7.23,10.69,98.2,0
93,7.24,-12.97,24.57,0
94,7.25,-6.04,4.5,0
95,7.27,9.12,59.56,0
96,7.28,-1.22,104.34,0
97,7.29,-13.13,125.66,0
98,7.31,-5.08,124.97,0
99,7.32,6.76,78.34,0
100,7.33,8.6,48.59,0
101,7.35,1.0,74.7,0
102,7.36,-4.56,73.42,0
103,7.37,7.96,29.95,0
104,7.39,34.24,49.04,0
105,7.4,41.94,117.68,0
106,7.41,8.45,113.61,0
107,7.43,-37.43,46.24,0
108,7.44,-40.21,7.61,0
109,7.45,-1.12,15.02,0
110,7.47,15.89,40.68,0
111,7.48,-7.98,48.26,0
112,7.49,-17.48,18.28,0
113,7.51,9.24,-5.66,0
114,7.52,27.38,11.58,0
115,7.53,15.32,20.96,0
116,7.55,2.07,-13.95,0
117,7.56,7.76,-34.27,0
118,7.57,13.63,-13.9,0
119,7.59,3.46,-16.11,0
120,7.6,-3.97,-12.91,0
121,7.61,0.43,62.63,0
122,7.63,-4.37,102.05,0
123,7.64,-12.17,18.99,0
124,7.65,-0.59,-51.18,0
125,7.67,13.58,-0.48,0
126,7.68,11.01,76.13,0
127,7.69,0.09,80.32,0
128,7.71,-12.9,29.52,0
129,7.72,-18.54,-25.96,0
130,7.73,-7.52,-36.25,0
131,7.75,-3.9,-8.1,0
132,7.76,-25.19,-3.61,0
133,7.77,-44.57,-11.98,0
134,7.79,-36.62,-1.5,0
135,7.8,-8.47,-15.56,0
136,7.81,2.51,-65.51,0
137,7.83,-17.22,-95.84,0
138,7.84,-20.63,-94.64,0
139,7.85,-2.02,-92.53,0
140,7.87,-2.92,-73.1,0
141,7.88,-12.97,-22.42,0
142,7.89,-10.82,4.9,0
143,7.91,-6.15,-3.88,0
144,7.92,-9.17,-9.03,0
145,7.93,-19.22,-21.64,0
146,7.95,-17.42,-44.6,0
147,7.96,0.54,-27.54,0
148,7.97,8.61,16.87,0
149,7.99,-1.9,7.35,0
150,8.0,-16.49,-31.7,0
151,8.01,-23.44,-15.87,0
152,8.03,-15.36,22.37,0
153,8.04,5.62,31.25,0
154,8.05,24.67,26.89,0
155,8.07,35.03,12.81,0
156,8.08,36.01,-25.58,0
157,8.09,19.14,-78.66,0
158,8.1,1.67,-90.25,0
159,8.12,11.32,-22.77,1
160,8.13,30.85,43.46,1
161,8.15,39.35,24.4,1
162,8.16,51.2,-10.3,1
163,8.17,54.54,35.98,1
164,8.19,5.75,112.85,1
165,8.2,-45.06,117.65,1
166,8.21,-1.89,80.58,1
167,8.23,66.59,58.94,1
168,8.24,44.54,-37.46,1
169,8.25,-8.79,-216.76,1
170,8.27,-4.16,-308.57,1
171,8.28,17.59,-260.65,1
172,8.29,8.02,-175.9,1
173,8.31,0.85,-127.56,1
174,8.32,14.59,-119.08,1
175,8.33,14.47,-116.59,1
176,8.35,-2.92,-85.03,1
177,8.36,-12.36,-31.05,1
178,8.37,-20.93,7.68,1
179,8.39,-36.04,21.59,1
180,8.4,-38.07,32.47,1
181,8.41,-26.34,49.33,1
182,8.43,-20.36,58.87,1
183,8.44,-18.44,55.39,1
184,8.45,-12.41,50.57,1
185,8.47,-13.02,48.19,1
186,8.48,-20.09,44.68,1
187,8.49,-16.44,45.53,1
188,8.51,-5.93,47.3,1
189,8.52,-8.43,34.34,1
190,8.53,-17.33,9.82,1
191,8.55,-7.62,-4.41,1
192,8.56,11.94,1.91,1
193,8.57,15.25,18.23,1
194,8.59,5.74,28.79,1
195,8.6,-1.05,27.52,1
196,8.61,-1.5,20.99,1
197,8.63,1.88,19.6,1
198,8.64,4.46,25.05,1
199,8.65,6.08,31.78,1
200,8.67,8.08,34.84,1
201,8.68,7.44,32.31,1
202,8.69,4.68,23.74,1
203,8.71,7.24,11.94,1
204,8.72,11.88,8.07,1
205,8.73,2.97,21.37,1
206,8.75,-12.6,40.14,1
207,8.76,-9.93,42.54,1
208,8.77,2.81,28.13,1
209,8.78,0.58,15.95,1
210,8.8,-10.95,14.47,1
211,8.81,-12.86,15.46,1
212,8.82,-2.65,12.67,1
213,8.84,6.99,10.42,1
214,8.85,5.33,14.14,1
215,8.87,-1.23,18.45,1
216,8.88,-2.89,12.73,1
217,8.89,-1.01,2.11,1
218,8.91,3.26,0.98,0
219,8.92,8.18,5.27,0
220,8.93,7.3,3.47,0
221,8.95,-0.24,-1.21,0
222,8.96,-7.12,-4.06,0
223,8.97,-6.87,-4.15,0
224,8.99,-0.27,0.19,0
225,9.0,5.37,2.01,0
226,9.01,2.55,-5.46,0
227,9.03,-7.12,-13.18,0
228,9.04,-9.04,-14.12,0
229,9.05,0.42,-12.57,0
230,9.07,5.18,-8.85,0
231,9.08,2.79,-7.02,0
232,9.09,3.44,-13.23,0
233,9.11,1.24,-14.78,0
234,9.12,-7.13,-5.41,0
235,9.13,-8.49,-5.12,0
236,9.15,-0.92,-19.22,0
237,9.16,5.39,-25.34,0
238,9.17,8.72,-17.33,0
239,9.19,8.78,-12.33,0
240,9.2,-1.31,-13.7,0
241,9.21,-14.87,-10.94,0
242,9.23,-12.02,-4.57,0
243,9.24,0.68,-3.42,0
244,9.25,-0.15,-10.79,0
245,9.27,-2.07,-21.31,0
246,9.28,11.32,-24.37,0
247,9.29,15.72,-16.09,0
248,9.31,-0.58,-7.61,0
249,9.32,-8.81,-8.61,0
250,9.33,0.35,-13.07,0
251,9.35,5.92,-10.01,0
252,9.36,0.71,-0.63,0
253,9.37,-0.16,2.55,0
254,9.39,9.95,-3.44,0
255,9.4,14.97,-9.81,0
256,9.41,4.81,-11.73,0
257,9.43,-4.6,-10.84,0
258,9.44,-1.94,-14.43,0
259,9.45,-0.39,-24.58,0
260,9.47,-4.72,-27.69,0
261,9.48,-1.23,-18.27,0
262,9.49,0.97,-13.57,0
263,9.51,-12.62,-20.95,0
264,9.52,-18.12,-23.81,0
265,9.53,-0.66,-14.44,0
266,9.55,12.76,-4.98,0
267,9.56,6.69,-1.45,0
268,9.57,-1.46,0.09,0
269,9.59,4.61,-1.25,0
270,9.6,16.7,-5.98,0
271,9.61,13.52,-7.28,0
272,9.63,-2.89,0.64,0
273,9.64,-3.77,8.61,0
274,9.65,14.23,2.84,0
275,9.67,20.53,-7.32,0
276,9.68,7.91,-4.31,0
277,9.69,-2.0,3.09,0
278,9.71,-3.56,0.28,0
279,9.72,-6.63,-1.42,0
280,9.73,-6.29,4.07,0
281,9.75,-0.28,1.45,0
282,9.76,-4.78,-4.44,0
283,9.77,-16.37,3.78,0
284,9.79,-9.65,12.5,0
285,9.8,10.26,4.41,0
286,9.81,12.98,-5.92,0
287,9.83,-1.69,-5.86,0
288,9.84,-9.15,-4.34,0
289,9.85,-3.75,-3.22,0
290,9.87,-0.82,5.33,0
291,9.88,-2.81,11.47,0
292,9.89,3.75,3.72,0
293,9.91,13.14,-4.29,0
294,9.92,10.78,-1.31,0
295,9.93,8.29,2.0,0
296,9.95,10.8,0.5,0
297,9.96,-1.38,2.6,0
298,9.97,-22.6,10.19,0
299,9.99,-24.06,15.67,0
300,10.0,-11.87,9.26,0
301,10.01,-13.09,-7.59,0
302,10.02,-23.6,-14.62,0
303,10.04,-20.12,-4.2,0
304,10.05,-1.62,7.68,0
305,10.06,10.0,10.26,0
306,10.08,8.19,5.35,0
307,10.09,9.73,1.78,0
308,10.1,15.68,9.3,0
309,10.12,11.29,20.98,1
310,10.13,1.08,20.68,1
311,10.15,-3.82,13.09,1
312,10.16,-6.13,11.25,1
313,10.17,-3.17,11.09,1
314,10.19,12.9,-0.34,1
315,10.2,34.51,-33.74,1
316,10.21,49.99,-85.22,1
317,10.23,59.1,-129.78,1
318,10.24,62.27,-147.27,1
319,10.25,52.76,-144.4,1
320,10.27,30.85,-138.59,1
321,10.28,17.19,-139.64,1
322,10.29,25.51,-146.63,1
323,10.31,27.12,-146.28,1
324,10.32,2.8,-122.99,1
325,10.33,-12.66,-81.27,1
326,10.35,-4.41,-44.06,1
327,10.36,-6.24,-14.05,1
328,10.37,-26.41,25.67,1
329,10.39,-37.14,64.1,1
330,10.4,-28.94,84.88,1
331,10.41,-20.1,107.63,1
332,10.43,-28.75,137.88,1
333,10.44,-44.11,148.52,1
334,10.45,-41.77,142.48,1
335,10.47,-31.39,149.05,1
336,10.48,-36.94,163.77,1
337,10.49,-50.93,165.11,1
338,10.51,-51.04,159.85,1
339,10.52,-33.3,159.86,1
340,10.53,-21.51,157.7,1
341,10.55,-26.99,150.14,1
342,10.56,-27.0,145.23,1
343,10.57,-16.06,142.58,1
344,10.59,-11.24,134.68,1
345,10.6,-13.92,122.38,1
346,10.61,-16.91,109.44,1
347,10.63,-14.52,96.12,1
348,10.64,-5.42,84.29,1
349,10.65,-2.57,74.12,1
350,10.67,-10.33,65.63,1
351,10.68,-14.21,58.72,1
352,10.69,-11.35,48.37,1
353,10.71,-6.53,32.54,1
354,10.72,5.59,16.59,1
355,10.73,22.02,7.5,1
356,10.75,27.31,7.41,1
357,10.76,20.02,9.8,1
358,10.77,9.85,7.06,1
359,10.78,5.17,-5.42,1
360,10.8,5.8,-25.18,1
361,10.81,0.26,-35.73,1
362,10.83,-6.31,-28.26,1
363,10.84,-0.91,-18.33,1
364,10.85,4.38,-21.01,1
365,10.87,4.76,-34.29,1
366,10.88,8.14,-49.05,1
367,10.89,2.72,-56.58,1
368,10.91,-12.91,-52.46,0
369,10.92,-14.38,-43.2,0
370,10.93,3.65,-42.45,0
371,10.95,22.25,-50.25,0
372,10.96,28.27,-51.08,0
373,10.97,19.68,-47.03,0
374,10.99,3.1,-54.22,0
375,11.0,-6.85,-64.22,0
376,11.01,-1.39,-59.16,0
377,11.03,13.53,-52.87,0
378,11.04,23.29,-63.03,0
379,11.05,19.92,-69.78,0
380,11.07,12.93,-57.02,0
381,11.08,8.98,-46.04,0
382,11.09,5.32,-48.82,0
383,11.11,8.98,-54.53,0
384,11.12,19.83,-63.97,0
385,11.13,17.78,-76.32,0
386,11.15,0.6,-73.91,0
387,11.16,-5.99,-56.08,0
388,11.17,6.89,-48.02,0
389,11.19,20.73,-57.55,0
390,11.2,18.08,-65.63,0
391,11.21,6.42,-60.21,0
392,11.23,10.23,-48.56,0
393,11.24,22.81,-39.79,0
394,11.25,14.21,-34.01,0
395,11.27,-4.2,-31.97,0
396,11.28,2.26,-39.08,0
397,11.29,19.68,-50.89,0
398,11.31,13.1,-54.05,0
399,11.32,-5.28,-48.33,0
400,11.33,-10.3,-41.96,0
401,11.35,-10.96,-30.95,0
402,11.36,-13.71,-14.71,0
403,11.37,-6.6,-8.22,0
404,11.39,6.59,-12.3,0
405,11.4,10.61,-14.25,0
406,11.41,7.55,-16.58,0
407,11.43,3.91,-22.0,0
408,11.44,-1.84,-20.75,0
409,11.45,-4.19,-10.19,0
410,11.47,0.76,0.17,0
411,11.48,5.93,-1.02,0
412,11.49,11.49,-14.61,0
413,11.51,18.83,-22.76,0
414,11.52,16.35,-14.99,0
415,11.53,-0.4,-6.59,0
416,11.55,-13.72,-9.17,0
417,11.56,-5.67,-15.39,0
418,11.57,13.39,-15.65,0
419,11.59,16.9,-6.74,0
420,11.6,1.09,6.83,0
421,11.61,-10.55,14.03,0
422,11.63,-3.13,10.74,0
423,11.64,10.07,4.28,0
424,11.65,11.5,1.88,0
425,11.67,1.0,5.79,0
426,11.68,-11.41,10.77,0
427,11.69,-17.41,11.8,0
428,11.71,-17.2,11.39,0
429,11.72,-14.06,10.03,0
430,11.73,-4.8,9.68,0
431,11.75,7.09,14.95,0
432,11.76,3.85,18.05,0
433,11.77,-13.27,12.77,0
434,11.79,-16.55,12.83,0
435,11.8,-3.8,27.01,0
436,11.81,-1.78,38.4,0
437,11.83,-7.48,30.9,0
438,11.84,3.67,15.69,0
439,11.85,21.16,11.38,0
440,11.87,13.49,16.0,0
441,11.88,-10.95,18.84,0
442,11.89,-16.36,21.13,0
443,11.91,-2.9,26.04,0
444,11.92,4.13,25.29,0
445,11.93,3.0,17.4,0
446,11.94,5.02,17.77,0
447,11.96,5.34,28.18,0
448,11.97,-4.73,30.56,0
449,11.98,-15.29,24.57,0
450,12.0,-14.13,25.88,0
451,12.01,-9.35,29.58,0
452,12.02,-10.39,19.79,0
453,12.04,-10.07,7.51,0
454,12.05,-3.03,14.18,0
455,12.06,3.0,29.6,0
456,12.08,-3.08,31.89,0
457,12.09,-16.89,23.22,0
458,12.105,-18.6,16.36,1
459,12.12,-7.82,16.78,1
460,12.13,-7.67,25.02,1
461,12.15,-15.94,33.39,1
462,12.16,-6.25,35.42,1
463,12.17,13.94,55.43,1
464,12.19,12.83,137.46,1
465,12.2,-10.77,269.48,1
466,12.21,-33.38,368.03,1
467,12.23,-39.64,376.74,1
468,12.24,-33.99,310.53,1
469,12.25,-32.2,206.72,1
470,12.27,-37.78,109.02,1
471,12.28,-35.69,48.65,1
472,12.29,-11.44,2.89,1
473,12.31,23.39,-61.29,1
474,12.32,33.12,-129.98,1
475,12.33,10.34,-176.43,1
476,12.35,-6.36,-197.09,1
477,12.36,8.09,-202.46,1
478,12.37,30.52,-200.34,1
479,12.39,29.89,-190.56,1
480,12.4,13.95,-174.85,1
481,12.41,11.54,-163.65,1
482,12.43,23.37,-159.6,1
483,12.44,26.86,-152.84,1
484,12.45,18.45,-140.95,1
485,12.47,15.54,-131.62,1
486,12.48,22.94,-126.66,1
487,12.49,22.8,-117.38,1
488,12.51,10.43,-90.25,1
489,12.52,4.33,-48.97,1
490,12.53,6.28,-26.5,1
491,12.55,5.14,-39.8,1
492,12.56,4.67,-61.21,1
493,12.57,5.99,-64.67,1
494,12.59,4.14,-54.2,1
495,12.6,6.09,-41.73,1
496,12.61,12.18,-31.1,1
497,12.63,7.97,-22.56,1
498,12.64,-4.96,-17.84,1
499,12.65,-12.21,-17.57,1
500,12.67,-12.97,-14.21,1
501,12.68,-9.3,-4.38,1
502,12.69,-2.89,-1.21,1
503,12.71,0.05,-3.44,1
504,12.72,1.74,8.55,1
505,12.73,6.88,23.84,1
506,12.75,10.85,16.97,1
507,12.76,9.33,5.35,1
508,12.77,3.5,12.44,1
509,12.79,-3.28,18.33,1
510,12.8,-2.85,12.79,1
511,12.81,7.11,16.02,1
512,12.83,8.53,28.34,1
513,12.84,-5.71,37.17,1
514,12.85,-15.24,41.57,1
515,12.87,-10.9,39.17,1
516,12.88,-4.08,31.4,1
517,12.89,-5.52,31.38,1
518,12.91,-12.09,41.58,0
519,12.92,-9.57,43.49,0
520,12.93,-0.48,31.65,0
521,12.95,-0.08,27.73,0
522,12.96,-3.84,35.67,0
523,12.97,1.58,35.43,0
524,12.99,12.39,30.85,0
525,13.0,16.73,38.95,0
526,13.01,14.68,49.64,0
527,13.03,11.2,47.92,0
528,13.04,1.69,39.98,0
529,13.05,-11.13,34.18,0
530,13.07,-13.23,30.97,0
531,13.08,-5.08,34.18,0
532,13.09,-2.05,42.26,0
533,13.11,-9.32,41.89,0
534,13.12,-16.11,34.59,0
535,13.13,-14.85,33.39,0
536,13.15,-8.82,34.32,0
537,13.16,-4.2,32.11,0
538,13.17,-2.98,33.96,0
539,13.19,-2.16,38.51,0
540,13.2,-2.2,32.79,0
541,13.21,-7.09,21.1,0
542,13.23,-9.81,20.48,0
543,13.24,-0.37,27.35,0
544,13.25,9.0,24.2,0
545,13.27,3.23,13.2,0
546,13.28,-5.56,14.61,0
547,13.29,-5.95,31.36,0
548,13.31,-8.69,40.01,0
549,13.32,-10.14,27.01,0
550,13.33,3.34,10.52,0
551,13.35,14.65,10.86,0
552,13.36,5.69,20.7,0
553,13.37,-4.85,19.8,0
554,13.39,-0.69,5.83,0
555,13.4,5.16,-1.04,0
556,13.41,0.95,6.8,0
557,13.43,-6.8,12.62,0
558,13.44,-9.57,11.51,0
559,13.45,-8.87,11.98,0
560,13.47,-7.61,12.98,0
561,13.48,-1.91,11.01,0
562,13.49,2.34,5.25,0
563,13.51,-5.29,-3.66,0
564,13.52,-10.18,-5.11,0
565,13.53,0.16,5.97,0
566,13.55,3.49,16.67,0
567,13.56,-10.13,15.64,0
568,13.57,-14.0,0.54,0
569,13.59,2.46,-18.4,0
570,13.6,16.23,-22.89,0
571,13.61,11.13,-15.2,0
572,13.63,-2.17,-9.9,0
573,13.64,-4.9,-7.0,0
574,13.65,0.37,-3.87,0
575,13.67,-2.37,-2.82,0
576,13.68,-6.55,-2.43,0
577,13.69,2.84,-3.83,0
578,13.71,12.1,-12.55,0
579,13.72,4.65,-21.29,0
580,13.73,-5.52,-15.73,0
581,13.75,-3.44,-4.78,0
582,13.76,1.78,-8.04,0
583,13.77,1.46,-18.24,0
584,13.79,1.52,-17.44,0
585,13.8,1.33,-11.13,0
586,13.81,-6.86,-14.63,0
587,13.83,-14.28,-22.99,0
588,13.84,-7.45,-23.59,0
589,13.85,1.8,-21.25,0
590,13.86,-1.7,-21.51,0
591,13.88,-4.03,-17.47,0
592,13.89,8.94,-10.96,0
593,13.9,17.34,-13.51,0
594,13.92,3.86,-22.77,0
595,13.93,-8.53,-24.15,0
596,13.94,2.98,-20.44,0
597,13.96,21.6,-26.4,0
598,13.97,22.2,-34.88,0
599,13.98,9.75,-31.79,0
600,14.0,6.44,-24.68,0
601,14.01,13.57,-21.21,0
602,14.02,13.17,-15.62,0
603,14.04,-1.14,-11.87,0
604,14.05,-17.77,-16.33,0
605,14.07,-21.57,-17.7,0
606,14.08,-10.72,-12.05,0
607,14.09,1.51,-14.11,0
608,14.11,4.11,-21.25,1
609,14.12,2.28,-19.0,1
610,14.13,6.5,-15.98,1
611,14.15,13.83,-21.02,1
612,14.16,13.66,-24.15,1
613,14.17,4.78,-27.64,1
614,14.19,-0.2,-36.98,1
615,14.2,14.49,-26.97,1
616,14.21,32.9,17.78,1
617,14.23,26.35,55.41,1
618,14.24,24.44,37.04,1
619,14.25,41.0,39.36,1
620,14.27,1.03,197.32,1
621,14.28,-72.09,356.62,1
622,14.29,-46.27,264.32,1
623,14.31,38.21,93.89,1
624,14.32,42.78,95.86,1
625,14.33,-7.11,137.42,1
626,14.35,-20.56,66.43,1
627,14.36,-2.81,-36.5,1
628,14.37,9.72,-86.32,1
629,14.39,14.97,-96.32,1
630,14.4,11.1,-97.28,1
631,14.41,-1.87,-110.6,1
632,14.43,3.01,-138.32,1
633,14.44,20.17,-152.54,1
634,14.45,1.42,-143.6,1
635,14.47,-39.69,-137.14,1
636,14.48,-46.79,-134.08,1
637,14.49,-23.52,-116.51,1
638,14.51,-7.49,-118.08,1
639,14.52,-10.37,-157.61,1
640,14.53,-17.52,-178.35,1
641,14.55,-15.49,-134.77,1
642,14.56,-6.17,-50.46,1
643,14.57,5.08,-8.01,1
644,14.59,6.36,-54.84,1
645,14.6,-2.01,-107.36,1
646,14.61,-0.61,-70.39,1
647,14.63,5.14,-1.03,1
648,14.64,2.28,-0.54,1
649,14.65,2.47,-25.35,1
650,14.67,7.96,0.83,1
651,14.68,3.64,17.12,1
652,14.69,-10.68,-21.44,1
653,14.71,-15.85,-24.65,1
654,14.72,-2.36,46.19,1
655,14.73,6.59,89.59,1
656,14.75,-5.94,33.72,1
657,14.76,-16.16,-32.88,1
658,14.77,-5.07,6.1,1
659,14.79,9.5,75.37,1
660,14.8,5.91,40.82,1
661,14.81,-7.66,-24.49,1
662,14.83,-11.53,-11.82,1
663,14.84,-7.63,4.21,1
664,14.85,-2.71,-27.11,1
665,14.87,3.25,-29.98,1
666,14.88,-1.83,14.91,1
667,14.89,-15.31,43.99,1
668,14.91,-14.22,24.26,0
669,14.92,-0.14,-7.28,0
670,14.93,9.26,-11.22,0
671,14.95,8.54,-0.61,0
672,14.96,0.26,14.02,0
673,14.97,-5.94,30.8,0
674,14.99,-2.39,32.33,0
675,15.0,1.84,27.31,0
676,15.01,-6.37,24.09,0
677,15.03,-17.42,29.58,0
678,15.04,-7.97,63.01,0
679,15.05,12.95,90.77,0
680,15.07,13.77,74.99,0
681,15.08,2.14,41.16,0
682,15.09,8.73,19.51,0
683,15.11,27.27,21.08,0
684,15.12,26.12,48.92,0
685,15.13,-0.22,70.78,0
686,15.15,-15.82,45.72,0
687,15.16,3.59,3.89,0
688,15.17,21.83,-1.08,0
689,15.19,3.16,5.64,0
690,15.2,-16.56,-3.23,0
691,15.21,5.82,-7.89,0
692,15.23,39.06,-16.04,0
693,15.24,35.47,-6.86,0
694,15.25,8.33,56.18,0
695,15.27,-5.65,90.1,0
696,15.28,-3.69,45.44,0
697,15.29,-1.34,20.2,0
698,15.31,-1.35,46.66,0
699,15.32,0.96,54.36,0
700,15.33,1.39,27.1,0
701,15.35,-8.45,6.19,0
702,15.36,-18.14,19.29,0
703,15.37,-15.21,38.95,0
704,15.39,-12.9,26.56,0
705,15.4,-15.27,9.08,0
706,15.41,-9.73,22.11,0
707,15.43,-0.25,44.89,0
708,15.44,6.69,44.08,0
709,15.45,7.07,13.91,0
710,15.47,-6.3,-14.8,0
711,15.48,-15.41,3.3,0
712,15.49,3.17,51.41,0
713,15.51,27.42,43.83,0
714,15.52,22.54,-28.42,0
715,15.53,-2.76,-49.86,0
716,15.55,-15.41,14.41,0
717,15.56,-6.24,48.43,0
718,15.57,4.88,13.07,0
719,15.59,3.84,-3.28,0
720,15.6,-4.86,18.02,0
721,15.61,-8.98,16.33,0
722,15.63,2.58,-7.49,0
723,15.64,19.53,-8.51,0
724,15.65,20.92,10.33,0
725,15.67,8.14,1.17,0
726,15.68,-4.98,-39.74,0
727,15.69,-7.12,-40.86,0
728,15.71,0.81,2.31,0
729,15.72,-0.72,15.19,0
730,15.73,-8.7,3.77,0
731,15.75,5.82,14.16,0
732,15.76,28.83,22.3,0
733,15.77,20.37,-5.84,0
734,15.78,-11.12,-45.18,0
735,15.8,-25.75,-57.95,0
736,15.81,-8.33,-24.85,0
737,15.82,14.76,31.65,0
738,15.84,8.84,39.68,0
739,15.85,-13.85,-0.33,0
740,15.86,-14.14,-20.42,0
741,15.88,0.51,-28.3,0
742,15.89,-3.19,-51.64,0
743,15.9,-6.84,-35.29,0
744,15.92,13.7,38.89,0
745,15.93,19.62,65.36,0
746,15.94,-7.68,14.56,0
747,15.96,-22.69,-1.34,0
748,15.97,-6.33,28.1,0
749,15.98,8.2,13.84,0
750,16.0,4.84,-23.64,0
751,16.01,8.22,-14.29,0
752,16.03,11.86,27.63,0
753,16.04,-15.63,47.22,0
754,16.05,-33.07,22.09,0
755,16.07,-1.88,-16.68,0
756,16.08,16.17,-24.85,0
757,16.09,-7.17,-12.17,0
758,16.11,-8.41,-14.45,1
759,16.12,18.83,-23.51,1
760,16.13,18.68,-16.38,1
761,16.15,-3.75,5.1,1
762,16.16,-8.54,15.81,1
763,16.17,4.01,-8.08,1
764,16.19,7.04,-40.29,1
765,16.2,-9.15,-40.1,1
766,16.21,-17.02,-24.09,1
767,16.23,2.44,-28.78,1
768,16.24,21.21,-43.49,1
769,16.25,14.24,-58.18,1
770,16.27,-3.6,-98.82,1
771,16.28,-15.67,-156.22,1
772,16.29,-26.81,-191.31,1
773,16.31,-24.63,-194.62,1
774,16.32,9.41,-180.77,1
775,16.33,41.07,-164.65,1
776,16.35,33.66,-140.61,1
777,16.36,14.29,-93.81,1
778,16.37,9.99,-30.38,1
779,16.39,4.84,28.22,1
780,16.4,-8.67,69.85,1
781,16.41,-16.9,96.9,1
782,16.42,-12.91,110.47,1
783,16.44,-3.71,108.54,1
784,16.45,-3.06,99.02,1
785,16.46,-14.21,90.1,1
786,16.48,-22.25,84.3,1
787,16.49,-19.31,84.09,1
788,16.5,-16.58,80.5,1
789,16.52,-13.97,61.97,1
790,16.53,-5.86,37.94,1
791,16.54,-8.42,24.28,1
792,16.56,-21.26,23.66,1
793,16.57,-16.02,31.47,1
794,16.58,2.41,41.69,1
795,16.6,4.2,45.6,1
796,16.61,-4.13,36.87,1
797,16.62,-0.3,21.7,1
798,16.64,6.17,14.37,1
799,16.65,1.0,18.36,1
800,16.67,-5.15,21.39,1
801,16.68,-1.97,15.88,1
802,16.69,2.52,9.82,1
803,16.71,1.59,10.73,1
804,16.72,3.18,16.75,1
805,16.73,8.47,22.4,1
806,16.75,0.7,23.16,1
807,16.76,-16.89,19.02,1
808,16.77,-16.41,14.92,1
809,16.79,1.4,14.03,1
810,16.8,3.31,14.63,1
811,16.81,-14.96,14.66,1
812,16.83,-16.56,12.19,1
813,16.84,7.14,3.97,1
814,16.85,21.04,-6.93,1
815,16.87,15.91,-11.43,1
816,16.88,13.45,-6.6,1
817,16.89,14.5,1.62,1
818,16.91,5.25,7.78,0
819,16.92,-9.57,10.08,0
820,16.93,-14.14,4.38,0
821,16.95,-8.17,-8.52,0
822,16.96,-0.68,-17.6,0
823,16.97,8.24,-16.53,0
824,16.99,16.84,-10.08,0
825,17.0,12.02,-5.66,0
826,17.01,-5.62,-1.73,0
827,17.03,-11.95,6.66,0
828,17.04,-0.22,8.74,0
829,17.05,6.78,-6.4,0
830,17.06,5.17,-21.89,0
831,17.08,9.95,-19.4,0
832,17.09,11.78,-11.46,0
833,17.1,-0.9,-13.93,0
834,17.12,-8.57,-18.32,0
835,17.13,0.51,-15.76,0
836,17.14,9.88,-16.36,0
837,17.16,9.13,-25.3,0
838,17.17,2.67,-27.03,0
839,17.18,-0.48,-14.08,0
840,17.2,7.35,-4.43,0
841,17.21,15.99,-9.92,0
842,17.22,11.93,-18.6,0
843,17.24,1.88,-20.25,0
844,17.25,-6.37,-16.91,0
845,17.26,-11.88,-11.52,0
846,17.28,-5.9,-9.99,0
847,17.29,6.95,-14.94,0
848,17.3,2.74,-14.92,0
849,17.32,-14.57,-6.55,0
850,17.33,-14.14,-3.68,0
851,17.35,6.15,-10.9,0
852,17.36,20.02,-18.67,0
853,17.37,17.5,-20.78,0
854,17.39,7.49,-14.23,0
855,17.4,-0.25,-3.56,0
856,17.41,-4.32,-3.41,0
857,17.43,-11.91,-9.51,0
858,17.44,-17.07,-4.81,0
859,17.45,-8.03,0.94,0
860,17.47,3.43,-8.24,0
861,17.48,5.19,-18.58,0
862,17.49,9.35,-11.96,0
863,17.51,17.47,2.81,0
864,17.52,12.05,7.17,0
865,17.53,-3.91,2.49,0
866,17.55,-9.56,-2.32,0
867,17.56,0.08,-10.2,0
868,17.57,9.42,-17.65,0
869,17.59,6.86,-14.3,0
870,17.6,4.4,-7.74,0
871,17.61,12.2,-9.15,0
872,17.63,11.01,-12.86,0
873,17.64,-6.25,-9.55,0
874,17.65,-10.47,0.3,0
875,17.67,3.24,7.28,0
876,17.68,4.24,5.89,0
877,17.69,-8.01,1.69,0
878,17.7,-8.66,-1.14,0
879,17.72,3.51,-2.51,0
880,17.73,11.8,-1.1,0
881,17.75,7.85,0.44,0
882,17.76,2.97,-0.67,0
883,17.77,6.74,-3.14,0
884,17.78,3.75,-5.61,0
885,17.8,-11.8,-5.27,0
886,17.81,-17.39,-1.3,0
887,17.82,-5.66,1.65,0
888,17.84,4.92,3.43,0
889,17.85,4.38,6.23,0
890,17.86,-0.96,5.72,0
891,17.88,-4.11,2.27,0
892,17.89,-4.78,4.83,0
893,17.9,-6.26,10.94,0
894,17.92,-3.06,10.8,0
895,17.93,11.04,6.08,0
896,17.94,19.95,3.21,0
897,17.96,10.7,4.97,0
898,17.97,1.9,9.7,0
899,17.99,2.97,12.01,0
900,18.0,-1.94,10.74,0
901,18.01,-9.85,7.61,0
902,18.03,-5.51,4.05,0
903,18.04,1.15,3.2,0
904,18.05,-6.11,6.03,0
905,18.07,-18.27,6.62,0
906,18.08,-15.55,1.4,0
907,18.09,1.58,-3.06,0
908,18.11,9.97,-1.35,1
909,18.12,1.67,2.5,1
910,18.13,-1.41,1.25,1
911,18.15,7.7,-3.26,1
912,18.16,8.18,-0.19,1
913,18.17,-2.68,2.55,1
914,18.19,-4.55,-30.75,1
915,18.2,9.95,-98.58,1
916,18.21,29.53,-139.36,1
917,18.23,41.67,-132.17,1
918,18.24,48.09,-122.51,1
919,18.25,53.54,-124.34,1
920,18.27,45.54,-120.43,1
921,18.28,26.21,-117.96,1
922,18.29,20.7,-120.55,1
923,18.31,23.73,-113.52,1
924,18.32,6.13,-85.87,1
925,18.33,-32.78,-34.4,1
926,18.34,-60.6,22.4,1
927,18.36,-51.06,57.96,1
928,18.37,-18.37,76.52,1
929,18.38,3.84,94.78,1
930,18.4,2.49,112.4,1
931,18.41,-18.35,128.71,1
932,18.42,-43.56,145.35,1
933,18.44,-46.16,152.73,1
934,18.45,-21.1,151.89,1
935,18.46,-4.69,157.06,1
936,18.48,-19.89,158.64,1
937,18.49,-39.34,146.11,1
938,18.5,-44.81,132.98,1
939,18.52,-49.29,122.36,1
940,18.53,-39.98,115.39,1
941,18.54,-13.45,121.73,1
942,18.56,-14.33,130.32,1
943,18.57,-38.35,124.9,1
944,18.58,-33.69,111.65,1
945,18.6,-11.81,101.79,1
946,18.61,-10.29,92.67,1
947,18.63,-15.96,78.26,1
948,18.64,-8.67,62.55,1
949,18.65,-0.22,51.82,1
950,18.67,-2.25,45.8,1
951,18.68,-9.18,41.14,1
952,18.69,-7.06,30.98,1
953,18.71,5.75,13.25,1
954,18.72,9.18,1.89,1
955,18.73,-0.44,3.94,1
956,18.75,-2.01,3.29,1
957,18.76,8.0,-10.07,1
958,18.77,9.47,-23.19,1
959,18.79,-3.82,-25.31,1
960,18.8,-10.37,-23.76,1
961,18.81,-0.33,-24.03,1
962,18.83,8.68,-20.21,1
963,18.84,10.41,-16.78,1
964,18.85,16.34,-27.73,1
965,18.87,21.78,-46.96,1
966,18.88,14.14,-52.13,1
967,18.89,5.4,-45.88,1
968,18.91,9.51,-51.91,0
969,18.92,13.04,-63.42,0
970,18.93,8.16,-60.84,0
971,18.95,8.35,-56.65,0
972,18.96,12.14,-58.4,0
973,18.97,5.86,-53.92,0
974,18.98,-0.92,-49.57,0
975,19.0,7.82,-57.86,0
976,19.01,20.15,-68.46,0
977,19.02,15.38,-66.23,0
978,19.04,2.54,-56.01,0
979,19.05,4.09,-51.51,0
980,19.06,14.27,-54.8,0
981,19.08,14.06,-57.65,0
982,19.09,8.95,-55.54,0
983,19.1,10.39,-52.74,0
984,19.12,9.33,-52.2,0
985,19.13,2.66,-51.83,0
986,19.14,4.5,-53.53,0
987,19.16,13.22,-55.72,0
988,19.17,12.27,-52.93,0
989,19.18,6.76,-50.23,0
990,19.2,14.6,-48.44,0
991,19.21,24.27,-38.05,0
992,19.22,13.04,-27.37,0
993,19.24,-4.5,-29.92,0
994,19.25,-0.68,-35.57,0
995,19.27,15.12,-35.09,0
996,19.28,17.97,-35.57,0
997,19.29,12.64,-38.72,0
998,19.31,12.89,-37.9,0
999,19.32,12.51,-33.16,0
1000,19.33,4.75,-30.3,0
1001,19.35,-2.97,-27.95,0
1002,19.36,0.62,-21.9,0
1003,19.37,11.75,-18.61,0
1004,19.39,7.83,-24.02,0
1005,19.4,-13.23,-31.62,0
1006,19.41,-20.12,-33.15,0
1007,19.43,-4.65,-24.11,0
1008,19.44,4.43,-7.93,0
1009,19.45,-3.81,3.62,0
1010,19.47,-8.95,7.83,0
1011,19.48,-3.08,11.76,0
1012,19.49,-1.44,15.63,0
1013,19.51,-4.63,15.0,0
1014,19.52,6.01,7.96,0
1015,19.53,26.43,-2.42,0
1016,19.55,26.69,-7.69,0
1017,19.56,2.63,-6.21,0
1018,19.57,-14.19,-4.69,0
1019,19.59,-9.09,-1.72,0
1020,19.6,2.77,4.63,0
1021,19.61,12.26,8.21,0
1022,19.62,16.01,8.31,0
1023,19.64,7.42,10.8,0
1024,19.65,-6.7,15.46,0
1025,19.67,-10.87,16.23,0
1026,19.68,-4.65,13.21,0
1027,19.69,-2.48,11.54,0
1028,19.7,-4.69,12.72,0
1029,19.72,1.24,15.8,0
1030,19.73,9.48,17.26,0
1031,19.75,6.27,14.09,0
1032,19.76,-3.23,9.46,0
1033,19.77,-6.52,8.46,0
1034,19.78,-3.55,11.39,0
1035,19.8,-3.72,13.37,0
1036,19.81,-5.98,14.58,0
1037,19.82,-1.94,18.66,0
1038,19.84,3.8,20.71,0
1039,19.85,3.16,15.43,0
1040,19.86,-1.62,9.66,0
1041,19.88,-5.37,11.23,0
1042,19.89,-4.75,18.99,0
1043,19.9,-0.33,28.23,0
1044,19.92,3.4,32.35,0
1045,19.93,-0.16,27.04,0
1046,19.95,-11.0,20.22,0
1047,19.96,-14.56,20.07,0
1048,19.97,-2.36,20.52,0
1049,19.99,8.0,17.73,0
1050,20.0,4.09,16.65,0
1051,20.01,0.64,13.46,0
1052,20.03,1.04,6.55,0
1053,20.04,-11.69,6.81,0
1054,20.05,-30.14,15.37,0
1055,20.07,-27.5,22.38,0
1056,20.08,-5.84,22.83,0
1057,20.09,4.68,17.32,0
1058,20.11,-4.89,13.7,1
1059,20.12,-8.97,18.04,1
1060,20.13,1.97,23.31,1
1061,20.15,5.75,24.63,1
1062,20.16,-0.77,34.49,1
1063,20.17,1.71,82.55,1
1064,20.19,9.59,186.93,1
1065,20.2,3.83,307.59,1
1066,20.21,-12.94,377.39,1
1067,20.23,-20.31,380.33,1
1068,20.24,-14.35,336.58,1
1069,20.25,-21.48,255.12,1
1070,20.26,-51.92,155.01,1
1071,20.28,-66.31,63.96,1
1072,20.29,-43.54,-15.79,1
1073,20.3,-16.37,-89.03,1
1074,20.32,-5.09,-153.68,1
1075,20.33,2.63,-210.74,1
1076,20.34,8.77,-249.0,1
1077,20.36,9.98,-255.64,1
1078,20.37,18.98,-241.83,1
1079,20.38,30.24,-223.64,1
1080,20.4,18.5,-206.58,1
1081,20.41,-3.84,-195.19,1
1082,20.42,-4.5,-185.46,1
1083,20.44,11.78,-167.02,1
1084,20.45,21.85,-145.04,1
1085,20.46,21.71,-129.42,1
1086,20.48,19.77,-122.9,1
1087,20.49,19.71,-123.11,1
1088,20.5,20.42,-114.57,1
1089,20.52,16.33,-90.56,1
1090,20.53,6.65,-71.84,1
1091,20.54,1.75,-70.33,1
1092,20.56,3.72,-70.68,1
1093,20.57,5.94,-61.95,1
1094,20.59,8.7,-49.66,1
1095,20.6,11.36,-39.79,1
1096,20.61,10.89,-35.1,1
1097,20.63,11.35,-29.57,1
1098,20.64,11.72,-15.64,1
1099,20.65,8.55,-4.04,1
1100,20.67,7.53,-2.04,1
1101,20.68,6.15,3.62,1
1102,20.69,-5.32,15.1,1
1103,20.71,-18.68,16.49,1
1104,20.72,-16.6,5.77,1
1105,20.73,-1.9,1.71,1
1106,20.75,4.48,17.5,1
1107,20.76,-2.97,41.05,1
1108,20.77,-3.62,49.96,1
1109,20.79,7.66,45.64,1
1110,20.8,8.33,43.03,1
1111,20.81,-3.66,39.32,1
1112,20.83,-8.34,32.95,1
1113,20.84,-3.29,37.87,1
1114,20.85,2.13,49.5,1
1115,20.87,2.58,49.58,1
1116,20.88,-2.44,47.0,1
1117,20.89,-4.54,54.47,1
1118,20.9,0.27,57.56,1
1119,20.92,0.93,48.34,0
1120,20.93,-7.24,41.65,0
1121,20.94,-10.15,44.75,0
1122,20.96,-0.76,51.71,0
1123,20.97,7.4,55.84,0
1124,20.98,3.86,54.21,0
1125,21.0,-5.76,51.47,0
1126,21.01,-12.58,53.29,0
1127,21.02,-15.51,56.77,0
1128,21.04,-16.64,50.52,0
1129,21.05,-13.26,33.81,0
1130,21.06,-2.53,24.42,0
1131,21.08,9.84,29.5,0
1132,21.09,12.51,34.97,0
1133,21.1,0.26,31.27,0
1134,21.12,-14.93,27.19,0
1135,21.13,-11.47,31.75,0
1136,21.14,5.03,39.87,0
1137,21.16,6.24,41.44,0
1138,21.17,-5.98,35.96,0
1139,21.18,-8.13,34.5,0
1140,21.2,-1.76,39.61,0
1141,21.21,-1.67,38.52,0
1142,21.23,-4.77,30.93,0
1143,21.24,3.2,27.43,0
1144,21.25,16.85,23.71,0
1145,21.27,15.5,18.06,0
1146,21.28,4.19,21.02,0
1147,21.29,3.97,32.41,0
1148,21.31,6.88,39.06,0
1149,21.32,-3.38,33.99,0
1150,21.33,-15.53,23.27,0
1151,21.35,-16.29,16.37,0
1152,21.36,-9.93,12.06,0
1153,21.37,2.94,4.36,0
1154,21.39,17.94,1.67,0
1155,21.4,16.32,10.78,0
1156,21.41,-2.21,13.94,0
1157,21.43,-14.51,1.91,0
1158,21.44,-10.1,-9.69,0
1159,21.45,-2.5,-10.67,0
1160,21.47,-4.99,-5.79,0
1161,21.48,-8.38,-3.2,0
1162,21.49,0.02,-3.88,0
1163,21.51,5.93,0.07,0
1164,21.52,-1.78,7.27,0
1165,21.53,-4.81,6.52,0
1166,21.54,4.0,-1.25,0
1167,21.56,3.45,-6.47,0
1168,21.57,-7.41,-10.83,0
1169,21.58,-3.08,-19.47,0
1170,21.6,12.66,-25.16,0
1171,21.61,9.39,-21.66,0
1172,21.62,-11.23,-17.17,0
1173,21.64,-21.04,-19.1,0
1174,21.65,-11.33,-22.6,0
1175,21.67,-0.46,-20.22,0
1176,21.68,-6.17,-13.86,0
1177,21.69,-17.13,-13.6,0
1178,21.7,-11.64,-23.76,0
1179,21.72,3.03,-32.54,0
1180,21.73,5.58,-27.78,0
1181,21.75,-0.09,-16.64,0
1182,21.76,1.55,-14.32,0
1183,21.77,8.1,-21.66,0
1184,21.78,10.78,-24.5,0
1185,21.8,9.24,-19.8,0
1186,21.81,4.63,-22.95,0
1187,21.82,1.06,-29.32,0
1188,21.84,6.97,-22.28,0
1189,21.85,16.82,-14.73,0
1190,21.87,14.52,-16.14,0
1191,21.88,3.77,-11.07,0
1192,21.89,2.34,-0.91,0
1193,21.91,5.7,-1.38,0
1194,21.92,-0.09,-11.02,0
1195,21.93,-2.88,-16.91,0
1196,21.95,8.04,-12.46,0
1197,21.96,16.21,-5.51,0
1198,21.97,13.28,-8.81,0
1199,21.99,8.3,-20.69,0
1200,22.0,0.39,-25.98,0
1201,22.01,-13.06,-21.13,0
1202,22.03,-20.6,-15.58,0
1203,22.04,-14.09,-12.16,0
1204,22.05,-1.95,-9.46,0
1205,22.07,2.79,-6.42,0
1206,22.08,-3.87,-7.02,0
1207,22.09,-10.81,-22.53,0
1208,22.11,-4.03,-39.8,1
1209,22.12,9.09,-29.7,1
1210,22.13,8.79,-9.32,1
1211,22.15,-2.55,-14.3,1
1212,22.16,-5.04,-26.26,1
1213,22.17,4.74,-18.61,1
1214,22.18,16.44,-0.21,1
1215,22.2,27.43,48.64,1
1216,22.21,22.79,152.12,1
1217,22.22,-11.12,231.04,1
1218,22.24,-30.16,174.82,1
1219,22.25,9.0,41.52,1
1220,22.26,54.22,20.76,1
1221,22.28,30.84,103.98,1
1222,22.29,-31.75,86.41,1
1223,22.3,-45.0,-15.22,1
1224,22.32,-1.73,-33.95,1
1225,22.33,29.41,-3.92,1
1226,22.34,20.1,11.75,1
1227,22.36,-0.9,42.43,1
1228,22.37,-9.62,26.18,1
1229,22.38,-1.47,-66.86,1
1230,22.4,11.68,-110.78,1
1231,22.41,13.98,-67.72,1
1232,22.42,9.05,-50.14,1
1233,22.44,-2.33,-83.33,1
1234,22.45,-17.74,-97.07,1
1235,22.46,-19.99,-87.22,1
1236,22.48,-23.94,-101.9,1
1237,22.49,-37.2,-155.89,1
1238,22.5,-22.43,-186.63,1
1239,22.52,11.46,-128.4,1
1240,22.53,8.2,-72.9,1
1241,22.55,-26.42,-127.77,1
1242,22.56,-26.92,-164.69,1
1243,22.57,22.51,-88.48,1
1244,22.59,56.98,-50.2,1
1245,22.6,25.54,-72.35,1
1246,22.61,-28.95,-28.38,1
1247,22.63,-33.37,9.07,1
1248,22.64,0.91,-20.58,1
1249,22.65,6.22,-14.67,1
1250,22.67,-23.92,6.63,1
1251,22.68,-32.32,-16.84,1
1252,22.69,1.57,-25.11,1
1253,22.71,28.04,-16.09,1
1254,22.72,13.81,-45.42,1
1255,22.73,-3.17,-79.6,1
1256,22.75,5.2,-50.92,1
1257,22.76,6.98,29.04,1
1258,22.77,-10.86,94.65,1
1259,22.79,-17.49,114.68,1
1260,22.8,-9.31,90.99,1
1261,22.81,-6.0,36.4,1
1262,22.82,-2.37,0.17,1
1263,22.84,7.9,13.45,1
1264,22.85,16.66,39.37,1
1265,22.86,19.3,57.39,1
1266,22.88,7.71,64.63,1
1267,22.89,-10.36,14.82,1
1268,22.9,-6.2,-78.27,1
1269,22.92,9.73,-93.83,0
1270,22.93,2.3,-6.45,0
1271,22.94,-8.15,51.58,0
1272,22.96,13.26,46.93,0
1273,22.97,34.87,70.81,0
1274,22.98,12.09,103.02,0
1275,23.0,-23.31,88.22,0
1276,23.01,-20.0,83.15,0
1277,23.02,-2.19,111.25,0
1278,23.04,-5.21,101.64,0
1279,23.05,-5.0,43.43,0
1280,23.06,13.59,-10.51,0
1281,23.08,19.78,-34.24,0
1282,23.09,-5.05,2.46,0
1283,23.1,-29.79,68.07,0
1284,23.12,-20.06,60.89,0
1285,23.13,0.5,17.3,0
1286,23.14,-1.42,36.13,0
1287,23.16,-2.59,64.7,0
1288,23.17,16.41,44.47,0
1289,23.19,26.39,33.75,0
1290,23.2,10.51,64.49,0
1291,23.21,-9.52,91.64,0
1292,23.23,-5.57,71.58,0
1293,23.24,14.82,18.51,0
1294,23.25,10.79,-7.78,0
1295,23.27,-13.21,10.63,0
1296,23.28,-15.66,30.27,0
1297,23.29,-2.95,23.56,0
1298,23.31,0.63,-4.76,0
1299,23.32,4.91,-29.18,0
1300,23.33,11.82,-4.67,0
1301,23.35,11.51,35.72,0
1302,23.36,13.94,-7.15,0
1303,23.37,17.05,-82.36,0
1304,23.39,2.66,-52.87,0
1305,23.4,-17.05,28.84,0
1306,23.41,-13.9,33.38,0
1307,23.43,11.83,-12.51,0
1308,23.44,35.19,-31.31,0
1309,23.45,37.34,-7.7,0
1310,23.46,17.13,37.77,0
1311,23.48,-5.86,56.99,0
1312,23.49,-10.6,38.87,0
1313,23.5,-6.18,24.45,0
1314,23.52,-11.95,21.87,0
1315,23.53,-22.96,20.37,0
1316,23.54,-17.18,22.5,0
1317,23.56,1.7,21.87,0
1318,23.57,-0.06,15.18,0
1319,23.58,-18.06,-4.04,0
1320,23.6,-15.09,-41.35,0
1321,23.61,3.62,-66.07,0
1322,23.62,8.38,-34.83,0
1323,23.64,-0.86,29.99,0
1324,23.65,-9.29,38.39,0
1325,23.67,-10.51,-10.38,0
1326,23.68,-4.79,-4.75,0
1327,23.69,-1.9,59.92,0
1328,23.7,-5.13,54.04,0
1329,23.72,-1.24,-35.25,0
1330,23.73,6.99,-69.5,0
1331,23.75,15.86,-39.41,0
1332,23.76,39.0,-48.65,0
1333,23.77,41.43,-49.74,0
1334,23.78,-0.27,8.6,0
1335,23.8,-19.74,19.49,0
1336,23.81,-4.84,-27.44,0
1337,23.83,-11.91,-10.5,0
1338,23.84,-25.56,55.41,0
1339,23.85,-14.81,55.29,0
1340,23.87,3.45,3.55,0
1341,23.88,21.49,-23.11,0
1342,23.89,32.13,-31.38,0
1343,23.91,10.32,-32.88,0
1344,23.92,-31.31,-33.92,0
1345,23.93,-34.64,-48.6,0
1346,23.95,5.13,-28.18,0
1347,23.96,22.87,30.73,0
1348,23.97,3.86,46.56,0
1349,23.99,-11.54,4.98,0
1350,24.0,-10.05,-21.77,0
1351,24.01,-5.27,6.96,0
1352,24.03,-14.75,14.2,0
1353,24.04,-28.79,-52.46,0
1354,24.05,-21.41,-78.29,0
1355,24.07,1.22,-9.26,0
1356,24.08,19.03,32.36,0
1357,24.09,15.51,4.98,0
1358,24.1,-8.75,2.57,1
1359,24.12,-22.56,38.22,1
1360,24.13,-23.75,35.47,1
1361,24.14,-31.07,-7.64,1
1362,24.16,-23.16,-45.92,1
1363,24.17,4.31,-77.9,1
1364,24.18,14.36,-83.46,1
1365,24.2,2.86,-42.96,1
1366,24.21,-3.54,-18.12,1
1367,24.22,2.01,-51.79,1
1368,24.24,12.8,-95.09,1
1369,24.25,25.29,-103.33,1
1370,24.26,25.92,-94.51,1
1371,24.28,7.42,-107.46,1
1372,24.29,1.82,-151.13,1
1373,24.3,27.77,-191.36,1
1374,24.32,42.08,-187.14,1
1375,24.33,22.39,-136.63,1
1376,24.34,6.48,-69.84,1
1377,24.36,7.54,-8.63,1
1378,24.37,5.69,43.34,1
1379,24.38,-2.24,82.83,1
1380,24.4,-15.68,102.38,1
1381,24.41,-29.05,103.9,1
1382,24.42,-26.59,95.46,1
1383,24.44,-15.5,85.18,1
1384,24.45,-14.16,85.98,1
1385,24.46,-16.52,98.53,1
1386,24.48,-14.88,100.53,1
1387,24.49,-14.35,81.68,1
1388,24.51,-8.44,63.71,1
1389,24.52,5.3,63.58,1
1390,24.53,6.05,68.8,1
1391,24.55,-11.98,64.25,1
1392,24.56,-23.72,55.59,1
1393,24.57,-14.37,50.44,1
1394,24.59,1.9,45.58,1
1395,24.6,8.3,42.37,1
1396,24.61,4.71,46.46,1
1397,24.63,-4.66,50.26,1
1398,24.64,-22.8,43.75,1
1399,24.65,-39.87,32.68,1
1400,24.67,-36.47,22.22,1
1401,24.68,-19.05,12.99,1
1402,24.69,-9.94,12.62,1
1403,24.71,-6.57,18.57,1
1404,24.72,5.84,19.47,1
1405,24.73,20.36,17.74,1
1406,24.75,22.05,17.18,1
1407,24.76,12.5,12.36,1
1408,24.77,2.97,5.45,1
1409,24.78,1.03,3.35,1
1410,24.8,7.63,4.31,1
1411,24.81,16.29,4.04,1
1412,24.82,17.96,3.54,1
1413,24.84,11.87,5.74,1
1414,24.85,7.95,10.46,1
1415,24.86,12.13,9.62,1
1416,24.88,13.34,0.21,1
1417,24.89,3.13,-7.79,1
1418,24.9,-1.53,-9.35,1
1419,24.92,12.55,-5.57,0
1420,24.93,23.64,-0.46,0
1421,24.94,11.61,-5.77,0
1422,24.96,-4.52,-19.28,0
1423,24.97,1.51,-21.72,0
1424,24.98,17.89,-11.62,0
1425,25.0,17.86,-7.64,0
1426,25.01,7.33,-15.04,0
1427,25.02,2.89,-18.4,0
1428,25.04,0.02,-12.71,0
1429,25.05,-4.33,-11.99,0
1430,25.06,-0.12,-17.89,0
1431,25.08,14.17,-18.77,0
1432,25.09,21.81,-15.63,0
1433,25.1,14.12,-17.24,0
1434,25.12,5.32,-22.48,0
1435,25.13,2.85,-22.88,0
1436,25.15,-1.11,-16.38,0
1437,25.16,-4.76,-12.15,0
1438,25.17,1.36,-15.29,0
1439,25.19,11.86,-19.34,0
1440,25.2,8.7,-18.66,0
1441,25.21,-5.25,-16.81,0
1442,25.23,-4.74,-19.5,0
1443,25.24,10.77,-23.05,0
1444,25.25,15.54,-20.19,0
1445,25.27,7.38,-14.68,0
1446,25.28,4.77,-13.47,0
1447,25.29,1.86,-13.88,0
1448,25.31,-14.63,-15.66,0
1449,25.32,-23.36,-23.19,0
1450,25.33,-8.28,-28.49,0
1451,25.35,4.59,-23.12,0
1452,25.36,-1.15,-16.1,0
1453,25.37,-4.25,-13.87,0
1454,25.38,7.26,-8.79,0
1455,25.4,13.43,-2.77,0
1456,25.41,4.2,-8.5,0
1457,25.42,-3.85,-19.03,0
1458,25.44,-5.14,-16.95,0
1459,25.45,-7.04,-6.91,0
1460,25.46,-3.37,-3.06,0
1461,25.48,8.1,-6.84,0
1462,25.49,12.36,-10.64,0
1463,25.5,0.28,-11.67,0
1464,25.52,-13.43,-14.14,0
1465,25.53,-5.42,-18.92,0
1466,25.54,13.77,-21.61,0
1467,25.56,8.09,-15.51,0
1468,25.57,-14.86,-0.42,0
1469,25.58,-17.0,8.84,0
1470,25.6,-4.06,3.52,0
1471,25.61,-1.9,-4.43,0
1472,25.62,-3.29,-4.45,0
1473,25.64,-1.29,-0.95,0
1474,25.65,-7.54,1.01,0
1475,25.67,-17.34,4.2,0
1476,25.68,-12.33,4.51,0
1477,25.69,5.85,-4.38,0
1478,25.7,13.81,-9.31,0
1479,25.72,2.32,-3.46,0
1480,25.73,-9.27,-0.66,0
1481,25.75,-8.73,-0.03,0
1482,25.76,-7.13,8.34,0
1483,25.77,-5.88,17.0,0
1484,25.79,4.87,14.56,0
1485,25.8,15.26,4.83,0
1486,25.81,9.95,-4.09,0
1487,25.83,-2.58,-9.08,0
1488,25.84,-7.98,-3.87,0
1489,25.85,-6.38,9.63,0
1490,25.87,1.43,12.57,0
1491,25.88,12.87,3.82,0
1492,25.89,16.44,4.13,0
1493,25.91,8.83,9.72,0
1494,25.92,-1.96,2.94,0
1495,25.93,-9.26,-4.0,0
1496,25.95,-8.63,0.17,0
1497,25.96,-3.44,2.75,0
1498,25.97,-7.16,5.13,0
1499,25.99,-18.16,13.33,0
1500,26.0,-18.91,14.31,0
1501,26.01,-9.76,3.73,0
1502,26.02,-3.44,-5.15,0
1503,26.04,-0.15,0.01,0
1504,26.05,-2.8,14.5,0
1505,26.06,-12.56,19.03,0
1506,26.08,-10.09,9.61,0
1507,26.09,8.42,1.02,0
1508,26.1,18.44,1.38,1
1509,26.12,7.8,6.5,1
1510,26.13,-6.92,9.43,1
1511,26.14,-3.37,4.61,1
1512,26.16,7.1,-2.82,1
1513,26.17,-2.19,2.83,1
1514,26.18,-13.95,18.96,1
1515,26.2,0.43,15.96,1
1516,26.21,18.9,-22.7,1
1517,26.22,15.37,-80.34,1
1518,26.24,9.66,-130.58,1
1519,26.25,18.43,-157.95,1
1520,26.26,24.74,-161.78,1
1521,26.28,24.03,-155.88,1
1522,26.29,32.42,-155.35,1
1523,26.3,41.1,-153.2,1
1524,26.32,27.65,-134.88,1
1525,26.33,4.51,-104.79,1
1526,26.34,1.51,-70.32,1
1527,26.36,12.47,-30.27,1
1528,26.37,8.57,13.17,1
1529,26.38,-6.84,54.06,1
1530,26.4,-11.34,86.22,1
1531,26.41,-8.52,104.3,1
1532,26.43,-16.58,113.38,1
1533,26.44,-27.62,125.89,1
1534,26.45,-22.27,140.81,1
1535,26.47,-18.3,146.36,1
1536,26.48,-36.36,145.1,1
1537,26.49,-49.17,149.29,1
1538,26.51,-39.38,155.19,1
1539,26.52,-30.79,151.82,1
1540,26.53,-34.59,144.68,1
1541,26.55,-35.38,140.19,1
1542,26.56,-27.89,130.01,1
1543,26.57,-26.89,117.96,1
1544,26.59,-28.38,121.31,1
1545,26.6,-16.99,133.34,1
1546,26.61,-6.43,130.52,1
1547,26.63,-7.02,112.23,1
1548,26.64,-3.67,94.72,1
1549,26.65,2.46,83.65,1
1550,26.67,-2.86,77.78,1
1551,26.68,-16.0,73.16,1
1552,26.69,-24.69,58.9,1
1553,26.7,-17.69,33.69,1
1554,26.72,4.41,16.65,1
1555,26.73,14.38,17.91,1
1556,26.75,-1.54,21.13,1
1557,26.76,-11.84,7.74,1
1558,26.77,0.01,-21.87,1
1559,26.78,9.68,-45.57,1
1560,26.8,4.16,-42.09,1
1561,26.81,-2.64,-24.19,1
1562,26.82,3.88,-19.02,1
1563,26.84,14.31,-25.98,1
1564,26.85,10.64,-28.2,1
1565,26.86,4.01,-20.9,1
1566,26.88,11.54,-14.51,1
1567,26.89,17.57,-21.98,1
1568,26.9,11.61,-39.75,1
1569,26.92,12.18,-48.82,0
1570,26.93,19.28,-41.83,0
1571,26.94,18.31,-32.9,0
1572,26.96,17.06,-37.34,0
1573,26.97,18.13,-48.57,0
1574,26.98,11.85,-50.69,0
1575,27.0,5.94,-49.52,0
1576,27.01,10.44,-53.86,0
1577,27.02,18.1,-53.68,0
1578,27.04,19.15,-50.55,0
1579,27.05,12.57,-54.62,0
1580,27.06,5.33,-59.92,0
1581,27.08,4.74,-61.98,0
1582,27.09,12.19,-61.34,0
1583,27.11,19.76,-52.75,0
1584,27.12,16.45,-42.12,0
1585,27.13,7.05,-41.84,0
1586,27.15,3.7,-46.72,0
1587,27.16,7.11,-49.03,0
1588,27.17,14.06,-51.95,0
1589,27.19,19.05,-52.64,0
1590,27.2,14.64,-47.88,0
1591,27.21,4.18,-44.18,0
1592,27.23,-0.03,-45.04,0
1593,27.24,6.24,-47.59,0
1594,27.25,9.95,-47.53,0
1595,27.27,5.29,-44.16,0
1596,27.28,6.04,-41.43,0
1597,27.29,12.73,-37.64,0
1598,27.3,11.25,-33.13,0
1599,27.32,4.3,-35.65,0
1600,27.33,1.49,-38.98,0
1601,27.34,0.39,-32.83,0
1602,27.36,-3.71,-29.35,0
1603,27.37,-7.34,-37.8,0
1604,27.38,-5.99,-42.31,0
1605,27.4,-4.18,-35.29,0
1606,27.41,-8.22,-30.69,0
1607,27.42,-12.73,-32.06,0
1608,27.44,-7.44,-27.19,0
1609,27.45,3.94,-13.37,0
1610,27.46,3.53,-2.14,0
1611,27.48,-10.81,-1.68,0
1612,27.49,-14.63,-9.63,0
1613,27.5,5.88,-19.81,0
1614,27.52,23.31,-25.17,0
1615,27.53,15.64,-20.27,0
1616,27.54,3.71,-10.77,0
1617,27.56,2.54,-6.69,0
1618,27.57,1.28,-5.84,0
1619,27.58,-0.1,-0.04,0
1620,27.6,4.06,8.7,0
1621,27.61,3.62,11.3,0
1622,27.62,-1.85,8.89,0
1623,27.64,3.79,9.39,0
1624,27.65,13.6,12.35,0
1625,27.67,7.46,8.81,0
1626,27.68,-8.54,-3.05,0
1627,27.69,-16.72,-7.77,0
1628,27.7,-10.31,6.53,0
1629,27.72,1.98,22.1,0
1630,27.73,5.21,19.26,0
1631,27.75,3.49,11.06,0
1632,27.76,4.18,12.22,0
1633,27.77,1.35,13.54,0
1634,27.79,0.64,13.08,0
1635,27.8,4.54,17.21,0
1636,27.81,-3.82,19.17,0
1637,27.83,-18.59,15.22,0
1638,27.84,-16.2,11.14,0
1639,27.85,-4.26,10.22,0
1640,27.87,-2.48,14.35,0
1641,27.88,-6.54,19.62,0
1642,27.89,-5.37,19.1,0
1643,27.91,1.43,15.17,0
1644,27.92,7.71,14.1,0
1645,27.93,3.87,18.32,0
1646,27.94,-6.79,25.0,0
1647,27.96,-7.65,27.37,0
1648,27.97,-0.09,22.53,0
1649,27.98,0.81,17.05,0
1650,28.0,-5.9,18.89,0
1651,28.01,-12.5,23.02,0
1652,28.02,-14.05,23.48,0
1653,28.04,-10.33,27.73,0
1654,28.05,-9.74,35.96,0
1655,28.06,-16.3,35.27,0
1656,28.08,-19.73,25.27,0
1657,28.09,-10.87,19.87,0
1658,28.1,2.65,24.45,1
1659,28.12,6.25,27.56,1
1660,28.13,0.85,19.75,1
1661,28.14,-1.66,9.27,1
1662,28.16,1.66,8.03,1
1663,28.17,5.84,20.07,1
1664,28.18,3.81,52.32,1
1665,28.2,-3.59,116.96,1
1666,28.21,-10.51,207.74,1
1667,28.22,-21.42,291.55,1
1668,28.24,-34.95,336.34,1
1669,28.25,-30.07,335.77,1
1670,28.26,-4.98,297.69,1
1671,28.28,6.07,232.26,1
1672,28.29,-8.29,158.37,1
1673,28.3,-13.57,86.4,1
1674,28.32,3.83,6.62,1
1675,28.33,14.54,-74.83,1
1676,28.34,4.33,-131.64,1
1677,28.36,-10.29,-168.55,1
1678,28.37,-15.66,-213.06,1
1679,28.39,-9.81,-254.58,1
1680,28.4,-1.13,-260.86,1
1681,28.41,-1.73,-239.11,1
1682,28.43,-4.29,-219.64,1
1683,28.44,2.15,-209.67,1
1684,28.45,7.01,-196.82,1
1685,28.47,7.33,-179.65,1
1686,28.48,16.26,-168.13,1
1687,28.49,27.19,-155.52,1
1688,28.51,20.69,-129.23,1
1689,28.52,0.28,-102.09,1
1690,28.53,-11.75,-89.26,1
1691,28.55,-5.96,-81.36,1
1692,28.56,2.48,-70.15,1
1693,28.57,0.53,-61.88,1
1694,28.58,3.71,-59.5,1
1695,28.6,18.53,-57.72,1
1696,28.61,20.39,-52.08,1
1697,28.62,8.97,-42.81,1
1698,28.64,7.64,-32.43,1
1699,28.65,11.74,-22.97,1
1700,28.67,7.35,-14.29,1
1701,28.68,3.9,-5.0,1
1702,28.69,9.23,1.94,1
1703,28.7,11.95,3.51,1
1704,28.72,8.9,6.84,1
1705,28.73,8.22,16.56,1
1706,28.75,4.57,24.1,1
1707,28.76,-7.32,27.0,1
1708,28.77,-12.99,32.39,1
1709,28.78,-1.24,38.05,1
1710,28.8,12.71,38.25,1
1711,28.81,7.53,34.42,1
1712,28.82,-5.01,31.48,1
1713,28.84,-2.5,34.68,1
1714,28.85,3.97,41.34,1
1715,28.86,3.48,45.06,1
1716,28.88,2.51,44.13,1
1717,28.89,-1.26,38.65,1
1718,28.9,-4.9,35.51,1
1719,28.92,0.7,42.35,0
1720,28.93,8.62,52.25,0
1721,28.94,11.91,52.72,0
1722,28.96,11.3,47.41,0
1723,28.97,2.82,49.94,0
1724,28.98,-9.85,59.16,0
1725,29.0,-13.46,54.68,0
1726,29.01,-9.71,37.78,0
1727,29.03,-7.31,34.77,0
1728,29.04,-2.91,45.22,0
1729,29.05,-0.27,45.77,0
1730,29.07,-7.39,36.48,0
1731,29.08,-12.94,35.94,0
1732,29.09,-3.45,43.26,0
1733,29.11,7.69,41.59,0
1734,29.12,-1.12,34.43,0
1735,29.13,-16.81,35.15,0
1736,29.15,-10.74,40.44,0
1737,29.16,5.41,41.28,0
1738,29.17,1.34,36.24,0
1739,29.19,-16.55,30.83,0
1740,29.2,-22.2,29.09,0
1741,29.21,-9.17,28.44,0
1742,29.22,7.72,30.14,0
1743,29.24,6.52,36.4,0
1744,29.25,-10.53,38.71,0
1745,29.26,-13.88,31.59,0
1746,29.28,-2.54,24.9,0
1747,29.29,2.14,24.89,0
1748,29.3,7.55,23.97,0
1749,29.32,18.4,18.35,0
1750,29.33,12.08,16.99,0
1751,29.34,-5.47,21.89,0
1752,29.36,-6.33,21.42,0
1753,29.37,-0.08,12.8,0
1754,29.38,-5.77,9.86,0
1755,29.4,-7.62,14.05,0
1756,29.41,4.69,8.97,0
1757,29.42,10.55,-0.1,0
1758,29.44,-1.6,7.3,0
1759,29.45,-15.06,20.92,0
1760,29.46,-12.14,17.5,0
1761,29.48,1.74,4.78,0
1762,29.49,9.32,2.16,0
1763,29.5,6.74,6.99,0
1764,29.52,-0.46,4.97,0
1765,29.53,-8.84,-5.84,0
1766,29.54,-10.58,-15.43,0
1767,29.56,0.79,-16.26,0
1768,29.57,18.8,-11.64,0
1769,29.58,26.2,-9.54,0
1770,29.6,14.46,-10.08,0
1771,29.61,-1.39,-8.34,0
1772,29.62,-2.82,-5.38,0
1773,29.64,4.34,-5.45,0
1774,29.65,-0.42,-7.57,0
1775,29.67,-13.66,-7.17,0
1776,29.68,-15.09,-8.39,0
1777,29.69,-7.89,-15.6,0
1778,29.71,-5.55,-20.96,0
1779,29.72,-4.15,-19.19,0
1780,29.73,1.43,-18.87,0
1781,29.75,7.34,-21.43,0
1782,29.76,7.53,-18.13,0
1783,29.77,0.32,-16.87,0
1784,29.79,-3.58,-27.12,0
1785,29.8,2.25,-33.75,0
1786,29.81,6.08,-25.16,0
1787,29.83,1.65,-11.69,0
1788,29.84,-1.73,-5.3,0
1789,29.85,0.33,-11.66,0
1790,29.86,5.65,-26.87,0
1791,29.88,14.07,-33.21,0
1792,29.89,16.93,-23.0,0
1793,29.9,6.27,-11.09,0
1794,29.92,-6.46,-9.62,0
1795,29.93,-11.53,-17.14,0
1796,29.94,-11.61,-23.69,0
1797,29.96,-4.77,-23.4,0
1798,29.97,5.56,-25.05,0
1799,29.98,5.28,-28.97,0
1800,30.0,-5.18,-21.14,0
1801,30.01,-8.41,-9.13,0
1802,30.02,-0.27,-11.53,0
1803,30.04,4.36,-19.16,0
1804,30.05,-2.4,-14.02,0
1805,30.06,-8.89,2.55,0
1806,30.08,-3.76,15.68,0
1807,30.09,5.09,8.99,0
1808,30.1,5.45,-12.31,1
1809,30.12,0.0,-21.88,1
1810,30.13,-1.62,-20.96,1
1811,30.14,4.19,-39.41,1
1812,30.16,11.56,-68.29,1
1813,30.17,12.28,-64.03,1
1814,30.18,4.36,-32.08,1
1815,30.2,-7.45,9.26,1
1816,30.21,-15.36,110.01,1
1817,30.22,-18.49,241.57,1
1818,30.24,-20.56,242.48,1
1819,30.25,-20.34,120.89,1
1820,30.26,-13.5,66.68,1
1821,30.28,4.5,98.42,1
1822,30.29,12.91,94.18,1
1823,30.3,-1.34,39.47,1
1824,30.32,8.63,-25.77,1
1825,30.33,49.85,-79.76,1
1826,30.35,49.27,-56.12,1
1827,30.36,-1.12,23.2,1
1828,30.37,-20.53,4.62,1
1829,30.39,10.45,-94.9,1
1830,30.4,26.33,-110.39,1
1831,30.41,6.96,-68.1,1
1832,30.43,-8.46,-92.91,1
1833,30.44,-9.26,-120.93,1
1834,30.45,-4.65,-73.28,1
1835,30.47,10.74,-54.28,1
1836,30.48,28.54,-84.77,1
1837,30.49,32.19,-53.77,1
1838,30.5,22.19,-10.03,1
1839,30.52,6.19,-64.52,1
1840,30.53,-8.99,-153.66,1
1841,30.54,-17.41,-157.02,1
1842,30.56,-14.48,-81.66,1
1843,30.57,-4.77,-25.88,1
1844,30.58,-4.6,-48.85,1
1845,30.6,-11.83,-92.01,1
1846,30.61,-10.11,-68.58,1
1847,30.62,-6.16,-13.13,1
1848,30.64,-13.7,17.11,1
1849,30.65,-19.96,28.96,1
1850,30.67,-2.99,19.86,1
1851,30.68,22.16,-3.58,1
1852,30.69,17.55,-32.68,1
1853,30.7,-7.66,-56.86,1
1854,30.72,-9.59,-43.48,1
1855,30.73,7.85,-27.59,1
1856,30.75,5.04,-53.42,1
1857,30.76,-9.25,-59.18,1
1858,30.77,-4.71,-12.56,1
1859,30.78,-2.14,17.21,1
1860,30.8,-20.37,6.01,1
1861,30.81,-27.0,4.39,1
1862,30.82,-6.89,19.53,1
1863,30.84,10.0,19.92,1
1864,30.85,7.76,-5.36,1
1865,30.86,-3.87,-49.76,1
1866,30.88,-17.63,-42.58,1
1867,30.89,-19.41,57.44,1
1868,30.9,-2.35,113.77,1
1869,30.92,9.45,29.7,0
1870,30.93,-2.08,-66.56,0
1871,30.94,-21.37,-34.28,0
1872,30.96,-23.38,83.26,0
1873,30.97,-5.4,135.26,0
1874,30.99,6.34,84.56,0
1875,31.0,-2.32,45.86,0
1876,31.01,-3.03,47.54,0
1877,31.03,15.61,20.28,0
1878,31.04,17.71,-8.11,0
1879,31.05,-4.1,8.97,0
1880,31.07,-15.2,37.45,0
1881,31.08,-4.53,53.86,0
1882,31.09,10.86,55.9,0
1883,31.11,16.19,43.68,0
1884,31.12,11.45,28.83,0
1885,31.13,-0.19,16.25,0
1886,31.14,-12.66,18.66,0
1887,31.16,-7.42,40.96,0
1888,31.17,5.93,50.81,0
1889,31.18,5.04,23.62,0
1890,31.2,11.15,-5.4,0
1891,31.21,29.26,19.64,0
1892,31.22,21.27,77.74,0
1893,31.24,-7.39,76.27,0
1894,31.25,-20.41,6.78,0
1895,31.26,-19.65,-23.53,0
1896,31.28,-14.13,5.32,0
1897,31.29,1.41,19.11,0
1898,31.3,10.46,21.27,0
1899,31.32,-8.34,50.56,0
1900,31.33,-32.68,74.0,0
1901,31.34,-27.62,44.97,0
1902,31.36,-4.48,6.15,0
1903,31.37,10.46,0.98,0
1904,31.38,14.05,-17.19,0
1905,31.4,6.69,-20.46,0
1906,31.41,6.17,55.82,0
1907,31.42,31.7,107.81,0
1908,31.44,43.23,59.68,0
1909,31.45,13.79,19.1,0
1910,31.46,-6.24,30.55,0
1911,31.48,4.88,17.97,0
1912,31.49,9.98,-32.5,0
1913,31.5,-4.12,-51.12,0
1914,31.52,-15.44,-16.21,0
1915,31.53,-0.46,12.76,0
1916,31.54,31.83,20.25,0
1917,31.56,39.73,29.98,0
1918,31.57,18.1,22.98,0
1919,31.58,7.11,2.62,0
1920,31.6,7.37,-3.58,0
1921,31.61,-1.0,-1.71,0
1922,31.63,7.01,9.66,0
1923,31.64,31.07,35.7,0
1924,31.65,25.75,27.32,0
1925,31.67,1.3,-25.35,0
1926,31.68,-2.32,-32.58,0
1927,31.69,2.84,9.84,0
1928,31.71,-3.07,12.63,0
1929,31.72,-12.25,4.44,0
1930,31.73,-17.92,25.65,0
1931,31.75,-13.32,-0.4,0
1932,31.76,1.85,-55.59,0
1933,31.77,5.33,-40.05,0
1934,31.78,-13.64,5.33,0
1935,31.8,-32.2,6.72,0
1936,31.81,-25.94,-0.76,0
1937,31.82,-2.24,13.18,0
1938,31.84,9.96,10.92,0
1939,31.85,-1.8,1.3,0
1940,31.86,-21.51,27.13,0
1941,31.88,-29.19,34.38,0
1942,31.89,-20.66,-14.47,0
1943,31.9,-8.22,-46.74,0
1944,31.92,-5.12,-40.5,0
1945,31.93,-2.61,-20.53,0
1946,31.94,9.27,16.48,0
1947,31.96,9.77,9.95,0
1948,31.97,-7.99,-68.39,0
1949,31.98,-11.02,-88.43,0
1950,32.0,10.18,-6.1,0
1951,32.01,20.71,30.8,0
1952,32.03,0.57,-47.14,0
1953,32.04,-33.05,-118.64,0
1954,32.05,-45.27,-65.7,0
1955,32.06,-14.41,18.5,0
1956,32.08,16.35,1.94,0
1957,32.09,0.41,-26.24,0
1958,32.11,-15.35,-6.58,1
1959,32.12,9.49,-34.17,1
1960,32.13,26.06,-69.78,1
1961,32.15,-3.46,-28.78,1
1962,32.16,-34.01,-1.23,1
1963,32.17,-10.53,-16.56,1
1964,32.19,30.06,35.3,1
1965,32.2,21.85,103.13,1
1966,32.21,-9.82,72.76,1
1967,32.22,-6.23,18.33,1
1968,32.24,18.69,5.37,1
1969,32.25,20.51,-24.35,1
1970,32.27,3.86,-88.75,1
1971,32.28,-1.44,-142.89,1
1972,32.29,1.55,-157.96,1
1973,32.31,-8.74,-133.7,1
1974,32.32,-23.39,-102.27,1
1975,32.33,-16.2,-108.87,1
1976,32.35,11.54,-141.58,1
1977,32.36,34.73,-136.22,1
1978,32.37,32.45,-77.08,1
1979,32.39,9.91,-12.14,1
1980,32.4,-7.46,29.58,1
1981,32.41,-11.35,55.78,1
1982,32.43,-12.53,73.17,1
1983,32.44,-15.06,79.43,1
1984,32.45,-15.49,74.92,1
1985,32.47,-11.94,69.77,1
1986,32.48,-7.42,72.16,1
1987,32.49,-8.49,76.78,1
1988,32.51,-14.07,71.81,1
1989,32.52,-17.09,56.81,1
1990,32.53,-15.67,50.91,1
1991,32.54,-12.08,62.77,1
1992,32.56,-6.85,65.83,1
1993,32.57,-2.84,39.33,1
1994,32.59,-2.89,9.72,1
1995,32.6,1.67,12.06,1
1996,32.61,14.86,34.63,1
1997,32.63,18.31,44.51,1
1998,32.64,3.53,44.45,1
1999,32.65,-12.46,47.9,1
2000,32.67,-13.5,43.68,1
2001,32.68,1.83,32.63,1
2002,32.69,14.59,30.25,1
2003,32.71,7.56,33.17,1
2004,32.72,-3.71,33.52,1
2005,32.73,-5.06,31.77,1
2006,32.75,-8.11,27.66,1
2007,32.76,-12.4,23.94,1
2008,32.77,-4.6,21.74,1
2009,32.79,8.48,16.08,1
2010,32.8,10.82,14.5,1
2011,32.81,7.73,24.62,1
2012,32.83,13.31,26.85,1
2013,32.84,18.52,6.09,1
2014,32.85,6.71,-13.92,1
2015,32.87,-8.39,-6.56,1
2016,32.88,-5.24,11.12,1
2017,32.89,4.13,9.33,1
2018,32.9,0.21,-1.31,1
2019,32.92,-8.55,-0.05,0
2020,32.93,-7.72,3.43,0
2021,32.95,-0.59,-2.36,0
2022,32.96,4.72,-12.49,0
2023,32.97,6.93,-19.46,0
2024,32.99,12.19,-16.47,0
2025,33.0,23.35,-4.47,0
2026,33.01,25.54,1.64,0
2027,33.03,10.9,-7.29,0
2028,33.04,-1.81,-18.96,0
2029,33.05,-4.29,-18.72,0
2030,33.06,-4.8,-9.79,0
2031,33.08,2.3,-3.47,0
2032,33.09,17.99,-5.96,0
2033,33.11,22.17,-14.14,0
2034,33.12,6.99,-15.35,0
2035,33.13,-8.79,-9.43,0
2036,33.15,-8.7,-13.31,0
2037,33.16,2.12,-23.95,0
2038,33.17,9.61,-19.9,0
2039,33.19,8.72,-7.23,0
2040,33.2,2.53,-9.08,0
2041,33.21,-3.81,-19.66,0
2042,33.22,-2.33,-23.53,0
2043,33.24,5.74,-25.67,0
2044,33.25,9.58,-26.1,0
2045,33.27,8.06,-14.68,0
2046,33.28,5.08,-3.12,0
2047,33.29,-0.76,-9.16,0
2048,33.31,-3.76,-19.81,0
2049,33.32,4.62,-16.12,0
2050,33.33,14.05,-9.6,0
2051,33.35,10.48,-9.86,0
2052,33.36,-0.44,-8.96,0
2053,33.37,-9.9,-14.27,0
2054,33.38,-11.74,-26.8,0
2055,33.4,-2.69,-23.57,0
2056,33.41,0.9,-4.44,0
2057,33.43,-8.06,4.42,0
2058,33.44,-10.42,-8.39,0
2059,33.45,-3.97,-25.72,0
2060,33.47,2.1,-24.55,0
2061,33.48,11.36,-12.96,0
2062,33.49,16.62,-15.4,0
2063,33.51,7.64,-25.01,0
2064,33.52,-5.43,-21.33,0
2065,33.53,-8.37,-11.34,0
2066,33.54,-1.27,-10.19,0
2067,33.56,5.93,-14.05,0
2068,33.57,3.56,-12.22,0
2069,33.59,-1.81,-8.03,0
2070,33.6,3.58,-12.38,0
2071,33.61,10.27,-17.39,0
2072,33.63,5.36,-10.76,0
2073,33.64,0.46,-3.12,0
2074,33.65,-0.69,-4.14,0
2075,33.67,-11.24,-8.48,0
2076,33.68,-22.76,-10.24,0
2077,33.69,-18.79,-6.14,0
2078,33.71,-5.86,2.37,0
2079,33.72,1.6,10.64,0
2080,33.73,3.21,12.0,0
2081,33.75,5.79,3.12,0
2082,33.76,6.71,-9.2,0
2083,33.77,1.26,-14.2,0
2084,33.79,-3.22,-6.68,0
2085,33.8,-0.68,5.11,0
2086,33.81,-1.28,8.87,0
2087,33.83,-11.93,6.33,0
2088,33.84,-19.88,2.68,0
2089,33.85,-12.74,-1.63,0
2090,33.87,-1.48,-2.42,0
2091,33.88,-4.76,1.58,0
2092,33.89,-17.2,2.93,0
2093,33.9,-20.86,1.0,0
2094,33.92,-16.59,3.66,0
2095,33.93,-11.11,6.24,0
2096,33.95,0.47,0.46,0
2097,33.96,15.1,-4.36,0
2098,33.97,17.01,-2.75,0
2099,33.99,9.11,-6.86,0
2100,34.0,12.47,-13.0,0
2101,34.01,21.04,-3.97,0
2102,34.03,11.41,9.12,0
2103,34.04,-8.97,6.6,0
2104,34.05,-19.62,1.72,0
2105,34.06,-20.72,8.54,0
2106,34.08,-17.44,15.05,0
2107,34.09,-8.14,16.77,0
2108,34.11,5.02,16.71,1
2109,34.12,12.54,10.16,1
2110,34.13,6.13,6.61,1
2111,34.15,-3.47,13.29,1
2112,34.16,0.97,15.63,1
2113,34.17,8.85,1.52,1
2114,34.19,6.71,-44.41,1
2115,34.2,9.16,-121.53,1
2116,34.21,21.77,-174.69,1
2117,34.23,27.89,-164.17,1
2118,34.24,32.72,-126.26,1
2119,34.25,57.02,-110.19,1
2120,34.27,82.42,-120.0,1
2121,34.28,72.9,-125.75,1
2122,34.29,38.07,-104.43,1
2123,34.31,12.52,-70.1,1
2124,34.32,-0.32,-47.37,1
2125,34.33,-20.21,-26.38,1
2126,34.35,-41.55,11.91,1
2127,34.36,-42.04,54.36,1
2128,34.37,-31.81,79.46,1
2129,34.38,-31.4,90.32,1
2130,34.4,-33.39,103.67,1
2131,34.41,-31.86,124.23,1
2132,34.43,-38.87,141.02,1
2133,34.44,-50.73,148.87,1
2134,34.45,-44.61,153.8,1
2135,34.47,-26.91,156.64,1
2136,34.48,-30.01,153.92,1
2137,34.49,-45.16,147.36,1
2138,34.51,-33.85,139.09,1
2139,34.52,-4.53,131.4,1
2140,34.53,-0.03,131.8,1
2141,34.54,-19.82,136.72,1
2142,34.56,-21.79,130.71,1
2143,34.57,-0.78,118.65,1
2144,34.59,6.27,117.6,1
2145,34.6,-5.93,118.24,1
2146,34.61,-9.32,104.27,1
2147,34.63,-1.08,82.64,1
2148,34.64,-0.19,64.21,1
2149,34.65,-9.33,53.29,1
2150,34.67,-13.73,51.59,1
2151,34.68,-3.53,52.35,1
2152,34.69,9.89,47.05,1
2153,34.71,9.97,33.17,1
2154,34.72,2.79,16.9,1
2155,34.73,2.94,10.78,1
2156,34.75,6.34,13.32,1
2157,34.76,6.81,6.07,1
2158,34.77,8.5,-14.38,1
2159,34.79,9.18,-30.3,1
2160,34.8,3.9,-34.21,1
2161,34.81,0.86,-34.86,1
2162,34.83,9.6,-33.9,1
2163,34.84,22.06,-28.75,1
2164,34.85,22.84,-27.89,1
2165,34.87,13.94,-37.72,1
2166,34.88,9.0,-47.36,1
2167,34.89,7.51,-46.4,1
2168,34.91,3.87,-42.14,0
2169,34.92,6.52,-47.23,0
2170,34.93,15.42,-59.31,0
2171,34.95,17.15,-63.07,0
2172,34.96,10.73,-61.29,0
2173,34.97,4.8,-69.75,0
2174,34.99,2.42,-74.05,0
2175,35.0,2.01,-60.3,0
2176,35.01,3.49,-54.17,0
2177,35.03,10.64,-66.92,0
2178,35.04,21.58,-74.14,0
2179,35.05,23.55,-65.29,0
2180,35.06,15.11,-54.08,0
2181,35.08,11.27,-51.7,0
2182,35.09,10.07,-52.99,0
2183,35.11,3.26,-50.66,0
2184,35.12,5.34,-47.94,0
2185,35.13,16.19,-45.4,0
2186,35.15,9.83,-42.74,0
2187,35.16,-10.53,-43.7,0
2188,35.17,-15.25,-48.21,0
2189,35.19,-5.61,-57.52,0
2190,35.2,-5.1,-68.42,0
2191,35.21,-7.42,-67.38,0
2192,35.22,3.79,-54.5,0
2193,35.24,11.91,-44.37,0
2194,35.25,0.93,-40.45,0
2195,35.27,-9.45,-37.23,0
2196,35.28,-1.82,-32.16,0
2197,35.29,7.9,-28.42,0
2198,35.31,3.77,-32.32,0
2199,35.32,-8.36,-38.26,0
2200,35.33,-14.57,-32.85,0
2201,35.35,-8.38,-22.44,0
2202,35.36,0.57,-20.27,0
2203,35.37,3.5,-18.83,0
2204,35.38,7.67,-13.58,0
2205,35.4,14.08,-17.96,0
2206,35.41,13.92,-27.89,0
2207,35.43,11.31,-23.53,0
2208,35.44,10.38,-8.74,0
2209,35.45,2.03,-1.52,0
2210,35.47,-10.89,-2.04,0
2211,35.48,-9.7,-2.14,0
2212,35.49,2.84,-0.46,0
2213,35.51,2.37,2.43,0
2214,35.52,-5.9,1.41,0
2215,35.53,1.62,-5.79,0
2216,35.55,14.72,-8.24,0
2217,35.56,13.8,-2.11,0
2218,35.57,3.88,4.86,0
2219,35.59,-4.99,6.41,0
2220,35.6,-7.26,0.64,0
2221,35.61,-3.05,-3.82,0
2222,35.63,-0.46,-1.68,0
2223,35.64,-4.36,-2.83,0
2224,35.65,-9.94,-7.47,0
2225,35.67,-8.14,-2.47,0
2226,35.68,1.74,12.45,0
2227,35.69,7.75,22.42,0
2228,35.71,5.22,18.09,0
2229,35.72,5.06,9.62,0
2230,35.73,7.0,13.25,0
2231,35.75,-0.1,25.27,0
2232,35.76,-11.82,27.97,0
2233,35.77,-16.33,19.73,0
2234,35.79,-9.51,14.45,0
2235,35.8,4.59,17.31,0
2236,35.81,12.74,22.87,0
2237,35.83,6.85,25.53,0
2238,35.84,-3.69,20.81,0
2239,35.85,-9.69,11.83,0
2240,35.87,-12.79,10.35,0
2241,35.88,-11.78,18.8,0
2242,35.89,-6.84,26.09,0
2243,35.9,-8.91,26.36,0
2244,35.92,-14.53,25.07,0
2245,35.93,-5.93,27.65,0
2246,35.95,8.71,28.49,0
2247,35.96,7.19,20.15,0
2248,35.97,-4.1,9.41,0
2249,35.99,-1.98,5.48,0
2250,36.0,11.68,6.97,0
2251,36.01,13.05,12.91,0
2252,36.03,-1.02,22.17,0
2253,36.04,-13.47,26.21,0
2254,36.05,-17.89,21.45,0
2255,36.06,-15.36,17.29,0
2256,36.08,-6.75,17.71,0
2257,36.09,-0.84,16.89,0
2258,36.11,-4.66,16.76,1
2259,36.12,-11.77,20.44,1
2260,36.13,-10.58,22.17,1
2261,36.15,-3.37,19.8,1
2262,36.16,-1.91,18.1,1
2263,36.17,-4.81,19.72,1
2264,36.19,-2.92,23.14,1
2265,36.2,3.29,43.98,1
2266,36.21,9.59,115.69,1
2267,36.23,7.55,217.32,1
2268,36.24,-4.25,278.57,1
2269,36.25,-2.87,289.3,1
2270,36.27,14.29,282.99,1
2271,36.28,13.24,261.3,1
2272,36.29,-10.43,218.08,1
2273,36.31,-26.35,156.46,1
2274,36.32,-23.99,83.61,1
2275,36.33,-16.91,14.78,1
2276,36.35,-18.36,-43.64,1
2277,36.36,-23.17,-100.52,1
2278,36.37,-14.36,-163.56,1
2279,36.38,0.24,-217.27,1
2280,36.4,1.02,-235.19,1
2281,36.41,-2.91,-221.16,1
2282,36.43,1.53,-198.61,1
2283,36.44,6.7,-183.84,1
2284,36.45,11.61,-182.98,1
2285,36.47,22.85,-188.17,1
2286,36.48,29.33,-181.25,1
2287,36.49,16.88,-155.2,1
2288,36.51,-2.6,-124.55,1
2289,36.52,-4.85,-108.62,1
2290,36.53,10.47,-107.7,1
2291,36.54,20.75,-108.51,1
2292,36.56,17.86,-103.1,1
2293,36.57,15.18,-90.95,1
2294,36.59,17.75,-77.02,1
2295,36.6,18.83,-66.92,1
2296,36.61,13.98,-58.66,1
2297,36.63,-0.79,-46.08,1
2298,36.64,-17.1,-32.44,1
2299,36.65,-13.63,-26.25,1
2300,36.67,8.44,-23.51,1
2301,36.68,22.08,-19.42,1
2302,36.69,14.63,-19.69,1
2303,36.71,-0.06,-19.65,1
2304,36.72,-7.29,-9.82,1
2305,36.73,-7.23,0.26,1
2306,36.75,-8.56,3.22,1
2307,36.76,-8.46,9.61,1
2308,36.77,8.97,20.44,1
2309,36.79,32.96,28.06,1
2310,36.8,29.07,33.47,1
2311,36.81,1.38,35.39,1
2312,36.83,-12.09,30.42,1
2313,36.84,-3.95,28.98,1
2314,36.85,2.08,38.44,1
2315,36.87,-1.7,45.05,1
2316,36.88,-4.14,39.47,1
2317,36.89,-6.32,30.27,1
2318,36.9,-11.61,28.11,1
2319,36.92,-8.9,37.54,0
2320,36.93,0.53,53.23,0
2321,36.95,0.57,62.94,0
2322,36.96,-8.21,59.21,0
2323,36.97,-14.01,46.59,0
2324,36.99,-13.52,39.18,0
2325,37.0,-8.21,45.99,0
2326,37.01,-2.92,53.3,0
2327,37.03,-1.79,46.28,0
2328,37.04,-1.75,40.97,0
2329,37.05,-2.62,52.24,0
2330,37.06,-4.89,59.23,0
2331,37.08,-2.77,45.48,0
2332,37.09,-0.06,33.12,0
2333,37.11,-4.36,40.64,0
2334,37.12,-5.91,48.03,0
2335,37.13,-0.95,37.16,0
2336,37.15,-3.68,26.62,0
2337,37.16,-9.66,31.37,0
2338,37.17,-2.94,35.72,0
2339,37.19,6.26,32.31,0
2340,37.2,4.45,33.18,0
2341,37.21,0.29,36.83,0
2342,37.22,0.53,28.12,0
2343,37.24,1.74,11.88,0
2344,37.25,1.65,10.46,0
2345,37.27,-1.81,22.12,0
2346,37.28,-6.01,25.17,0
2347,37.29,-3.66,18.58,0
2348,37.31,1.66,16.35,0
2349,37.32,2.8,20.1,0
2350,37.33,3.6,22.67,0
2351,37.35,3.87,23.3,0
2352,37.36,-0.7,26.32,0
2353,37.37,-1.49,27.57,0
2354,37.38,6.02,17.51,0
2355,37.4,11.26,0.01,0
2356,37.41,8.76,-6.51,0
2357,37.43,3.32,5.24,0
2358,37.44,-1.24,17.68,0
2359,37.45,-4.38,13.12,0
2360,37.47,-5.82,6.87,0
2361,37.48,-5.3,17.26,0
2362,37.49,-3.97,25.99,0
2363,37.51,-0.31,14.15,0
2364,37.52,6.06,-5.75,0
2365,37.53,4.44,-14.25,0
2366,37.54,-10.39,-5.15,0
2367,37.56,-21.55,7.96,0
2368,37.57,-14.71,6.94,0
2369,37.59,-1.56,-1.32,0
2370,37.6,1.19,-4.01,0
2371,37.61,-3.89,-7.04,0
2372,37.63,-8.0,-13.04,0
2373,37.64,-6.78,-11.04,0
2374,37.65,2.04,-2.28,0
2375,37.67,10.46,-5.5,0
2376,37.68,7.6,-21.98,0
2377,37.69,2.38,-29.3,0
2378,37.71,3.32,-21.52,0
2379,37.72,-2.78,-16.2,0
2380,37.73,-14.06,-16.08,0
2381,37.75,-4.53,-9.84,0
2382,37.76,18.65,-2.55,0
2383,37.77,19.02,-3.95,0
2384,37.79,-0.21,-10.43,0
2385,37.8,-6.26,-16.69,0
2386,37.81,-1.61,-19.85,0
2387,37.83,-5.92,-17.48,0
2388,37.84,-7.58,-14.58,0
2389,37.85,3.85,-16.16,0
2390,37.87,7.65,-15.13,0
2391,37.88,-1.31,-9.66,0
2392,37.89,-0.72,-9.78,0
2393,37.9,7.99,-14.89,0
2394,37.92,6.07,-18.46,0
2395,37.93,1.39,-26.65,0
2396,37.95,7.38,-36.44,0
2397,37.96,11.61,-31.52,0
2398,37.97,2.12,-17.92,0
2399,37.99,-11.2,-14.12,0
2400,38.0,-13.56,-20.62,0
2401,38.01,-6.45,-24.7,0
2402,38.03,-4.04,-17.42,0
2403,38.04,-5.93,-10.62,0
2404,38.05,-5.52,-21.32,0
2405,38.06,-13.74,-33.22,0
2406,38.08,-23.0,-28.75,0
2407,38.09,-6.25,-24.25,0
2408,38.11,18.5,-22.04,1
2409,38.12,13.27,-10.54,1
2410,38.13,-4.32,-6.49,1
2411,38.15,1.73,-8.06,1
2412,38.16,13.4,42.93,1
2413,38.17,-1.81,173.56,1
2414,38.19,-12.42,263.45,1
2415,38.2,11.72,164.68,1
2416,38.21,19.44,24.66,1
2417,38.22,-1.3,86.98,1
2418,38.24,8.51,194.51,1
2419,38.25,24.16,132.41,1
2420,38.27,-3.65,34.11,1
2421,38.28,-32.04,-7.42,1
2422,38.29,-16.03,-38.33,1
2423,38.31,33.64,-23.62,1
2424,38.32,68.41,10.05,1
2425,38.33,39.19,-43.08,1
2426,38.35,-21.46,-172.88,1
2427,38.36,-36.02,-218.15,1
2428,38.37,-1.23,-99.78,1
2429,38.38,27.06,-33.01,1
2430,38.4,21.12,-170.71,1
2431,38.41,1.39,-301.85,1
2432,38.43,-5.49,-236.63,1
2433,38.44,-0.21,-79.28,1
2434,38.45,7.41,-7.37,1
2435,38.47,6.28,-31.87,1
2436,38.48,-8.07,-42.56,1
2437,38.49,-15.59,-21.01,1
2438,38.51,-11.7,-63.66,1
2439,38.52,-17.57,-159.6,1
2440,38.53,-23.35,-133.28,1
2441,38.54,-6.44,52.91,1
2442,38.56,7.36,155.45,1
2443,38.57,-7.74,40.75,1
2444,38.59,-16.24,-68.37,1
2445,38.6,6.96,-10.61,1
2446,38.61,23.37,40.08,1
2447,38.63,3.62,-44.77,1
2448,38.64,-25.98,-126.21,1
2449,38.65,-22.31,-93.06,1
2450,38.67,13.13,-37.52,1
2451,38.68,30.46,-41.96,1
2452,38.69,15.36,-56.03,1
2453,38.71,5.23,-53.1,1
2454,38.72,9.37,-67.89,1
2455,38.73,5.84,-76.42,1
2456,38.75,-4.44,-24.15,1
2457,38.76,-1.81,31.88,1
2458,38.77,11.25,-12.16,1
2459,38.79,12.73,-71.63,1
2460,38.8,4.21,1.35,1
2461,38.81,1.07,108.77,1
2462,38.83,-5.42,103.21,1
2463,38.84,-20.76,25.05,1
2464,38.85,-21.6,-55.26,1
2465,38.87,0.38,-67.83,1
2466,38.88,20.69,15.99,1
2467,38.89,16.02,65.05,1
2468,38.9,-10.81,35.99,1
2469,38.92,-29.55,50.92,0
2470,38.93,-18.36,81.52,0
2471,38.95,2.22,11.47,0
2472,38.96,1.41,-56.85,0
2473,38.97,-11.1,11.49,0
2474,38.99,-12.46,82.37,0
2475,39.0,-11.87,21.25,0
2476,39.01,-9.1,-27.57,0
2477,39.03,10.23,43.84,0
2478,39.04,20.39,101.62,0
2479,39.05,2.64,68.69,0
2480,39.06,-14.86,46.34,0
2481,39.08,-8.45,69.41,0
2482,39.09,12.85,34.81,0
2483,39.11,20.21,-38.23,0
2484,39.12,6.1,11.22,0
2485,39.13,-3.59,155.11,0
2486,39.15,-0.45,200.9,0
2487,39.16,-3.52,120.44,0
2488,39.17,-16.53,55.99,0
2489,39.19,-21.11,66.79,0
2490,39.2,-11.86,70.21,0
2491,39.21,-1.61,46.36,0
2492,39.22,8.35,67.05,0
2493,39.24,15.86,109.98,0
2494,39.25,8.18,84.37,0
2495,39.27,-10.21,-1.16,0
2496,39.28,-24.31,-30.82,0
2497,39.29,-27.65,27.43,0
2498,39.31,-17.56,42.65,0
2499,39.32,2.07,-11.17,0
2500,39.33,21.0,6.58,0
2501,39.35,31.34,85.78,0
2502,39.36,25.06,79.53,0
2503,39.37,6.55,0.08,0
2504,39.38,0.26,-23.66,0
2505,39.4,7.97,18.66,0
2506,39.41,7.58,37.9,0
2507,39.43,1.04,13.45,0
2508,39.44,7.92,-11.43,0
2509,39.45,20.57,-22.37,0
2510,39.47,11.48,-25.19,0
2511,39.48,-8.69,-21.87,0
2512,39.49,-10.19,-4.96,0
2513,39.51,-5.38,15.24,0
2514,39.52,-12.46,-8.79,0
2515,39.53,-6.74,-46.72,0
2516,39.54,21.85,-21.16,0
2517,39.56,31.06,16.22,0
2518,39.57,4.8,-3.71,0
2519,39.59,-20.59,-12.86,0
2520,39.6,-22.55,40.11,0
2521,39.61,-11.78,71.6,0
2522,39.63,-7.23,31.09,0
2523,39.64,-8.87,-9.79,0
2524,39.65,-5.78,-17.37,0
2525,39.67,-0.94,-20.97,0
2526,39.68,8.32,-15.14,0
2527,39.69,22.15,3.32,0
2528,39.71,12.28,2.37,0
2529,39.72,-23.01,-20.28,0
2530,39.73,-26.7,-29.05,0
2531,39.75,13.46,-26.18,0
2532,39.76,20.61,-16.23,0
2533,39.77,-20.19,38.48,0
2534,39.79,-23.47,89.06,0
2535,39.8,18.35,25.5,0
2536,39.81,30.55,-83.4,0
2537,39.83,9.88,-78.26,0
2538,39.84,-6.58,-7.26,0
2539,39.85,-20.93,-0.24,0
2540,39.87,-28.3,-51.84,0
2541,39.88,-8.96,-90.58,0
2542,39.89,21.68,-51.1,0
2543,39.9,30.15,15.89,0
2544,39.92,14.37,-23.52,0
2545,39.93,1.12,-111.18,0
2546,39.95,8.74,-96.34,0
2547,39.96,18.61,-23.78,0
2548,39.97,3.39,7.54,0
2549,39.99,-19.3,27.25,0
2550,40.0,-21.89,50.32,0
2551,40.01,-14.46,20.83,0
2552,40.03,-6.97,-43.87,0
2553,40.04,3.32,-58.58,0
2554,40.05,2.21,10.45,0
2555,40.065,-15.48,87.41,0
2556,40.08,-32.96,64.6,0
2557,40.09,-41.51,-24.86,0
2558,40.11,-27.73,-49.98,1
2559,40.12,14.62,-10.9,1
2560,40.13,41.58,-22.81,1
2561,40.15,24.96,-65.5,1
2562,40.16,-1.45,-41.54,1
2563,40.17,-14.68,-1.88,1
2564,40.19,-16.15,-7.71,1
2565,40.2,-11.18,-23.29,1
2566,40.21,-10.5,-35.12,1
2567,40.22,0.86,-40.07,1
2568,40.24,23.03,-30.33,1
2569,40.25,16.99,-39.89,1
2570,40.27,-7.12,-90.84,1
2571,40.28,-5.14,-157.63,1
2572,40.29,12.29,-208.35,1
2573,40.31,16.48,-223.68,1
2574,40.32,15.14,-196.65,1
2575,40.33,21.97,-136.92,1
2576,40.35,30.11,-67.59,1
2577,40.36,27.89,-13.3,1
2578,40.37,14.12,23.31,1
2579,40.38,-4.43,58.95,1
2580,40.4,-14.66,90.71,1
2581,40.41,-8.71,99.71,1
2582,40.43,1.21,93.16,1
2583,40.44,-0.28,94.06,1
2584,40.45,-8.47,98.16,1
2585,40.47,-9.96,92.62,1
2586,40.48,-2.76,90.54,1
2587,40.49,1.35,94.66,1
2588,40.51,-5.3,84.42,1
2589,40.52,-11.2,64.78,1
2590,40.53,-7.77,56.42,1
2591,40.54,-4.19,55.86,1
2592,40.56,-3.14,55.17,1
2593,40.57,1.75,56.38,1
2594,40.59,4.55,52.06,1
2595,40.6,0.48,42.67,1
2596,40.61,-1.6,46.5,1
2597,40.63,1.08,54.59,1
2598,40.64,2.4,40.91,1
2599,40.65,3.04,20.38,1
2600,40.67,6.63,21.12,1
2601,40.68,6.35,32.02,1
2602,40.69,-3.09,31.6,1
2603,40.71,-9.99,25.52,1
2604,40.72,-9.28,23.33,1
2605,40.73,-15.27,19.72,1
2606,40.75,-27.73,15.9,1
2607,40.76,-31.7,17.03,1
2608,40.77,-22.9,17.27,1
2609,40.79,-5.43,13.42,1
2610,40.8,16.84,10.46,1
2611,40.81,37.45,10.03,1
2612,40.83,41.21,8.02,1
2613,40.84,19.78,5.7,1
2614,40.85,-8.9,9.79,1
2615,40.87,-23.24,16.53,1
2616,40.88,-21.05,10.4,1
2617,40.89,-8.98,-7.6,1
2618,40.9,2.37,-13.04,1
2619,40.92,2.86,-3.22,0
2620,40.93,-2.49,-2.45,0
2621,40.95,-0.1,-11.08,0
2622,40.96,4.47,-9.01,0
2623,40.97,-2.71,-2.95,0
2624,40.99,-7.91,-11.72,0
2625,41.0,5.03,-23.8,0
2626,41.01,13.37,-19.35,0
2627,41.03,-2.4,-9.02,0
2628,41.04,-18.03,-11.2,0
2629,41.05,-12.09,-17.54,0
2630,41.06,-1.19,-11.05,0
2631,41.08,0.01,1.51,0
2632,41.09,2.58,4.75,0
2633,41.11,8.1,-0.09,0
2634,41.12,6.74,-8.37,0
2635,41.13,4.92,-15.81,0
2636,41.15,6.45,-15.91,0
2637,41.16,-1.51,-18.22,0
2638,41.17,-20.26,-30.0,0
2639,41.19,-31.52,-35.6,0
2640,41.2,-20.19,-30.52,0
2641,41.21,1.14,-27.87,0
2642,41.22,6.0,-27.06,0
2643,41.24,-1.99,-22.27,0
2644,41.25,1.4,-18.16,0
2645,41.27,14.86,-17.64,0
2646,41.28,15.8,-18.81,0
2647,41.29,1.71,-20.08,0
2648,41.31,-5.49,-19.26,0
2649,41.32,2.49,-19.67,0
2650,41.33,10.62,-29.27,0
2651,41.35,9.27,-38.05,0
2652,41.36,2.59,-26.57,0
2653,41.37,-1.69,-7.33,0
2654,41.38,0.0,-4.09,0
2655,41.4,3.39,-7.62,0
2656,41.41,6.3,-8.16,0
2657,41.43,7.04,-15.58,0
2658,41.44,0.87,-23.02,0
2659,41.45,-3.29,-17.65,0
2660,41.47,5.24,-9.53,0
2661,41.48,15.75,-11.69,0
2662,41.49,16.09,-17.03,0
2663,41.51,14.09,-12.77,0
2664,41.52,14.09,-3.85,0
2665,41.53,3.94,-4.33,0
2666,41.54,-9.47,-14.38,0
2667,41.56,-4.38,-19.65,0
2668,41.57,8.52,-17.0,0
2669,41.59,7.33,-16.51,0
2670,41.6,0.65,-14.16,0
2671,41.61,0.88,-4.73,0
2672,41.63,0.28,0.92,0
2673,41.64,-4.65,3.18,0
2674,41.65,-4.79,9.28,0
2675,41.67,0.14,8.98,0
2676,41.68,-1.08,-3.11,0
2677,41.69,-10.13,-11.57,0
2678,41.71,-14.14,-7.85,0
2679,41.72,-6.69,-0.46,0
2680,41.73,5.17,2.73,0
2681,41.75,11.78,-0.39,0
2682,41.76,7.08,-4.07,0
2683,41.77,0.66,-0.67,0
2684,41.79,2.91,1.55,0
2685,41.8,1.74,-3.04,0
2686,41.81,-6.37,-0.9,0
2687,41.83,-7.19,6.44,0
2688,41.84,-4.59,1.84,0
2689,41.85,-5.25,-4.2,0
2690,41.87,1.62,5.92,0
2691,41.88,11.9,15.02,0
2692,41.89,7.56,8.15,0
2693,41.9,-5.66,1.37,0
2694,41.92,-9.9,5.33,0
2695,41.93,-4.81,10.83,0
2696,41.95,0.7,9.29,0
2697,41.96,4.98,5.35,0
2698,41.97,10.3,8.9,0
2699,41.99,11.35,17.95,0
2700,42.0,2.97,21.58,0
2701,42.01,-6.03,16.0,0
2702,42.03,-7.18,5.74,0
2703,42.04,-4.35,-3.0,0
2704,42.05,-3.03,-5.03,0
2705,42.06,-6.87,1.63,0
2706,42.08,-13.68,10.25,0
2707,42.09,-12.29,9.73,0
2708,42.11,-0.29,-1.65,1
2709,42.12,9.56,-7.77,1
2710,42.13,9.62,5.85,1
2711,42.15,7.73,22.62,1
2712,42.16,10.19,21.95,1
2713,42.17,8.46,3.07,1
2714,42.19,-1.72,-47.96,1
2715,42.2,-7.41,-119.71,1
2716,42.21,-0.34,-148.77,1
2717,42.22,14.2,-131.62,1
2718,42.24,33.83,-129.02,1
2719,42.25,56.73,-141.0,1
2720,42.27,68.43,-133.43,1
2721,42.28,57.46,-117.11,1
2722,42.29,35.67,-107.31,1
2723,42.31,17.54,-89.07,1
2724,42.32,1.16,-53.55,1
2725,42.33,-8.72,-17.62,1
2726,42.35,-5.53,7.7,1
2727,42.36,-7.0,33.86,1
2728,42.37,-23.84,63.4,1
2729,42.38,-38.0,83.87,1
2730,42.4,-37.54,98.93,1
2731,42.41,-29.02,121.35,1
2732,42.43,-22.31,142.34,1
2733,42.44,-26.33,147.04,1
2734,42.45,-34.61,142.46,1
2735,42.47,-30.84,143.86,1
2736,42.48,-24.34,155.42,1
2737,42.49,-33.46,165.29,1
2738,42.51,-46.5,159.26,1
2739,42.52,-43.5,148.29,1
2740,42.53,-26.51,149.14,1
2741,42.54,-12.69,149.9,1
2742,42.56,-11.14,137.1,1
2743,42.57,-11.43,119.3,1
2744,42.59,-5.63,101.42,1
2745,42.6,-7.0,81.29,1
2746,42.61,-17.37,66.47,1
2747,42.63,-11.34,61.75,1
2748,42.64,8.72,58.38,1
2749,42.65,9.96,51.38,1
2750,42.66,0.24,45.04,1
2751,42.68,9.69,39.6,1
2752,42.69,22.14,36.12,1
2753,42.71,4.58,35.9,1
2754,42.72,-22.57,33.35,1
2755,42.73,-15.23,29.42,1
2756,42.75,10.79,25.25,1
2757,42.76,9.87,12.94,1
2758,42.77,-9.76,-2.08,1
2759,42.79,-14.7,-8.19,1
2760,42.8,-3.75,-12.06,1
2761,42.81,9.05,-21.06,1
2762,42.83,17.01,-29.18,1
2763,42.84,16.36,-30.62,1
2764,42.85,7.97,-30.01,1
2765,42.87,-0.92,-37.04,1
2766,42.88,-1.78,-48.55,1
2767,42.89,6.57,-49.22,1
2768,42.9,13.77,-42.63,1
2769,42.92,10.74,-48.73,0
2770,42.93,2.71,-64.02,0
2771,42.95,3.4,-65.58,0
2772,42.96,15.84,-53.37,0
2773,42.97,22.8,-50.7,0
2774,42.99,16.36,-61.26,0
2775,43.0,11.28,-64.7,0
2776,43.01,14.42,-55.3,0
2777,43.03,16.44,-52.11,0
2778,43.04,10.85,-65.75,0
2779,43.05,2.02,-76.4,0
2780,43.06,-1.06,-67.21,0
2781,43.08,-1.18,-54.39,0
2782,43.09,-5.41,-53.36,0
2783,43.11,-3.82,-56.53,0
2784,43.12,11.02,-58.62,0
2785,43.13,20.75,-62.68,0
2786,43.15,13.65,-65.81,0
2787,43.16,2.71,-62.06,0
2788,43.17,-3.77,-54.48,0
2789,43.19,-7.86,-49.84,0
2790,43.2,-5.69,-48.34,0
2791,43.21,2.9,-45.97,0
2792,43.22,7.21,-42.86,0
2793,43.24,3.57,-45.58,0
2794,43.25,5.44,-53.95,0
2795,43.27,17.37,-54.89,0
2796,43.28,19.66,-43.26,0
2797,43.29,9.4,-30.02,0
2798,43.3,7.72,-25.14,0
2799,43.32,11.96,-27.58,0
2800,43.33,5.35,-29.56,0
2801,43.35,-3.4,-26.31,0
2802,43.36,-0.57,-22.28,0
2803,43.37,5.05,-24.43,0
2804,43.38,-0.13,-29.19,0
2805,43.4,-8.38,-26.14,0
2806,43.41,-5.23,-16.46,0
2807,43.43,3.64,-10.1,0
2808,43.44,7.36,-7.99,0
2809,43.45,7.77,-4.0,0
2810,43.47,7.52,0.12,0
2811,43.48,4.61,-4.87,0
2812,43.49,-0.27,-16.64,0
2813,43.51,-2.82,-18.35,0
2814,43.52,-2.73,-7.15,0
2815,43.53,-4.1,2.84,0
2816,43.54,-7.3,5.48,0
2817,43.56,-11.45,3.51,0
2818,43.57,-12.52,1.8,0
2819,43.59,-1.9,3.69,0
2820,43.6,11.27,3.45,0
2821,43.61,8.45,-1.37,0
2822,43.63,1.23,0.05,0
2823,43.64,7.55,10.04,0
2824,43.65,10.1,15.22,0
2825,43.67,-3.89,13.65,0
2826,43.68,-14.1,15.23,0
2827,43.69,-10.03,14.79,0
2828,43.71,-3.82,4.7,0
2829,43.72,-2.7,-0.16,0
2830,43.73,-5.58,11.42,0
2831,43.75,-10.54,22.4,0
2832,43.76,-12.28,19.88,0
2833,43.77,-8.25,16.6,0
2834,43.79,-2.71,17.57,0
2835,43.8,1.27,13.44,0
2836,43.81,1.08,10.32,0
2837,43.83,-5.94,14.66,0
2838,43.84,-13.89,15.75,0
2839,43.85,-16.42,12.12,0
2840,43.87,-14.37,14.33,0
2841,43.88,-6.55,19.85,0
2842,43.89,5.98,20.05,0
2843,43.9,11.92,21.08,0
2844,43.92,5.79,28.91,0
2845,43.93,-1.1,29.24,0
2846,43.94,-2.46,12.57,0
2847,43.96,-4.03,-1.4,0
2848,43.97,-3.73,6.82,0
2849,43.99,-3.62,25.58,0
2850,44.0,-15.7,33.73,0
2851,44.01,-27.53,30.97,0
2852,44.03,-17.14,25.09,0
2853,44.04,0.09,16.28,0
2854,44.05,-2.03,12.11,0
2855,44.06,-16.54,22.37,0
2856,44.08,-21.52,36.12,0
2857,44.09,-13.31,37.98,0
2858,44.11,-2.52,32.43,1
2859,44.12,4.48,27.37,1
2860,44.13,7.76,24.79,1
2861,44.15,8.68,26.41,1
2862,44.16,6.61,26.33,1
2863,44.17,1.5,22.96,1
2864,44.19,1.73,38.41,1
2865,44.2,10.45,101.69,1
2866,44.21,11.89,207.23,1
2867,44.22,-3.99,301.41,1
2868,44.24,-20.12,332.31,1
2869,44.25,-18.16,304.12,1
2870,44.27,-5.48,250.86,1
2871,44.28,-1.25,185.79,1
2872,44.29,-8.07,114.55,1
2873,44.31,-8.49,51.79,1
2874,44.32,3.09,1.15,1
2875,44.33,8.87,-45.63,1
2876,44.35,7.71,-97.8,1
2877,44.36,16.98,-156.14,1
2878,44.37,25.12,-204.54,1
2879,44.38,16.06,-224.54,1
2880,44.4,5.53,-217.22,1
2881,44.41,3.91,-197.43,1
2882,44.43,5.37,-182.19,1
2883,44.44,8.67,-183.65,1
2884,44.45,8.27,-186.88,1
2885,44.47,1.3,-169.9,1
2886,44.48,-3.08,-145.89,1
2887,44.49,-1.2,-134.74,1
2888,44.51,4.56,-127.76,1
2889,44.52,12.39,-111.87,1
2890,44.53,18.71,-87.54,1
2891,44.54,20.8,-58.41,1
2892,44.56,17.39,-39.0,1
2893,44.57,10.14,-48.5,1
2894,44.58,5.16,-73.02,1
2895,44.6,4.98,-78.36,1
2896,44.61,6.08,-64.48,1
2897,44.625,7.04,-53.14,1
2898,44.64,7.83,-50.21,1
2899,44.65,4.74,-46.25,1
2900,44.67,-1.58,-33.62,1
2901,44.68,-4.38,-20.43,1
2902,44.69,-2.78,-16.96,1
2903,44.71,0.4,-16.1,1
2904,44.72,3.42,-6.08,1
2905,44.73,0.53,10.34,1
2906,44.75,-6.71,17.26,1
2907,44.76,-3.97,13.09,1
2908,44.77,5.73,14.72,1
2909,44.79,0.56,25.34,1
2910,44.8,-13.46,31.24,1
2911,44.81,-9.64,33.69,1
2912,44.83,5.79,42.03,1
2913,44.84,6.45,44.7,1
2914,44.85,-4.66,35.96,1
2915,44.87,-10.8,34.46,1
2916,44.88,-11.98,42.76,1
2917,44.89,-7.89,43.76,1
2918,44.9,1.15,40.43,1
2919,44.92,1.23,43.6,0
2920,44.93,-4.89,45.82,0
2921,44.95,2.63,41.73,0
2922,44.96,13.51,41.45,0
2923,44.97,1.78,46.17,0
2924,44.99,-20.16,46.84,0
2925,45.0,-21.76,43.64,0
2926,45.01,-6.18,41.08,0
2927,45.03,4.37,36.99,0
2928,45.04,5.9,33.41,0
2929,45.05,6.21,39.5,0
2930,45.06,4.98,48.05,0
2931,45.08,-0.42,46.07,0
2932,45.09,-4.86,40.36,0
2933,45.11,-4.76,38.21,0
2934,45.12,-5.56,34.32,0
2935,45.13,-10.32,32.51,0
2936,45.15,-8.01,38.73,0
2937,45.16,2.52,41.45,0
2938,45.17,1.6,35.57,0
2939,45.19,-7.17,33.79,0
2940,45.2,-1.34,37.05,0
2941,45.21,8.55,36.59,0
2942,45.22,3.04,36.09,0
2943,45.24,-7.53,36.65,0
2944,45.25,-11.7,31.49,0
2945,45.26,-15.31,24.61,0
2946,45.28,-17.67,25.49,0
2947,45.29,-8.85,32.3,0
2948,45.31,6.52,34.85,0
2949,45.32,11.22,27.45,0
2950,45.33,5.44,18.53,0
2951,45.35,3.9,21.18,0
2952,45.36,4.96,27.76,0
2953,45.37,-0.15,22.72,0
2954,45.38,-3.1,11.29,0
2955,45.4,0.54,10.61,0
2956,45.41,-1.43,22.8,0
2957,45.43,-7.02,28.48,0
2958,45.44,-3.74,16.97,0
2959,45.45,3.6,8.06,0
2960,45.47,8.21,10.16,0
2961,45.48,13.85,4.53,0
2962,45.49,15.76,-13.41,0
2963,45.51,3.93,-25.34,0
2964,45.52,-15.36,-17.36,0
2965,45.53,-21.84,-0.72,0
2966,45.54,-6.89,2.63,0
2967,45.56,7.7,-4.87,0
2968,45.57,2.33,-5.95,0
2969,45.59,-4.94,-3.11,0
2970,45.6,3.27,-3.92,0
2971,45.61,11.81,-1.69,0
2972,45.63,6.76,0.97,0
2973,45.64,-2.77,-6.95,0
2974,45.65,-5.31,-21.31,0
2975,45.67,-5.05,-27.56,0
2976,45.68,-8.23,-20.35,0
2977,45.69,-7.98,-11.71,0
2978,45.71,0.96,-12.06,0
2979,45.72,7.06,-16.0,0
2980,45.73,2.4,-20.01,0
2981,45.75,-0.3,-23.05,0
2982,45.76,3.26,-16.87,0
2983,45.77,0.14,-6.5,0
2984,45.79,-8.22,-11.68,0
2985,45.8,-9.93,-30.63,0
2986,45.81,-6.52,-35.41,0
2987,45.83,-1.13,-22.01,0
2988,45.84,6.52,-17.61,0
2989,45.85,11.12,-23.88,0
2990,45.86,10.22,-17.97,0
2991,45.88,8.08,-8.72,0
2992,45.89,3.95,-16.92,0
2993,45.9,-3.93,-27.18,0
2994,45.92,-10.78,-23.52,0
2995,45.93,-7.83,-22.43,0
2996,45.95,6.41,-26.71,0
2997,45.96,14.61,-17.03,0
2998,45.97,6.09,-0.06,0
2999,45.99,-1.18,0.18,0
3000,46.0,0.97,-13.44,0
3001,46.01,-0.29,-21.17,0
3002,46.03,-4.39,-21.04,0
3003,46.04,-3.86,-22.69,0
3004,46.05,-3.08,-22.22,0
3005,46.06,-7.64,-10.72,0
3006,46.08,-13.39,-0.56,0
3007,46.09,-11.44,-5.36,0
3008,46.11,-0.27,-14.23,1
3009,46.12,6.67,-16.92,1
3010,46.13,-1.83,-18.0,1
3011,46.15,-9.69,-18.4,1
3012,46.16,1.49,-21.99,1
3013,46.17,17.52,-39.82,1
3014,46.19,15.27,-46.0,1
3015,46.2,-0.63,-9.28,1
3016,46.21,-10.0,7.77,1
3017,46.22,-6.32,-35.79,1
3018,46.24,7.57,-21.53,1
3019,46.25,36.14,108.25,1
3020,46.27,70.68,225.41,1
3021,46.28,65.3,256.32,1
3022,46.29,-1.36,240.25,1
3023,46.31,-59.21,177.75,1
3024,46.32,-48.75,65.79,1
3025,46.33,-16.34,-22.85,1
3026,46.35,-8.08,-19.29,1
3027,46.36,-6.68,49.31,1
3028,46.37,-10.51,130.79,1
3029,46.38,-39.94,178.79,1
3030,46.4,-71.85,76.08,1
3031,46.41,-60.15,-168.63,1
3032,46.43,-10.23,-314.53,1
3033,46.44,24.33,-256.76,1
3034,46.45,6.47,-127.43,1
3035,46.47,-21.78,15.0,1
3036,46.48,7.77,142.81,1
3037,46.49,48.81,123.96,1
3038,46.5,25.16,-18.19,1
3039,46.52,-13.3,-106.92,1
3040,46.53,-11.91,-122.36,1
3041,46.54,4.96,-139.43,1
3042,46.56,22.28,-179.79,1
3043,46.57,32.8,-251.58,1
3044,46.59,18.63,-277.65,1
3045,46.6,-4.51,-171.61,1
3046,46.61,-9.4,-72.16,1
3047,46.63,3.53,-118.74,1
3048,46.64,24.37,-179.93,1
3049,46.65,33.72,-136.12,1
3050,46.67,13.69,-61.29,1
3051,46.68,-10.87,-32.39,1
3052,46.69,-5.54,-42.3,1
3053,46.71,18.33,-46.92,1
3054,46.72,27.68,-37.69,1
3055,46.73,24.01,-47.27,1
3056,46.75,27.78,-68.1,1
3057,46.76,30.02,-72.86,1
3058,46.77,22.64,-51.13,1
3059,46.79,22.75,-13.76,1
3060,46.8,23.26,-22.45,1
3061,46.81,2.99,-74.74,1
3062,46.83,-16.35,-60.07,1
3063,46.84,-7.69,24.22,1
3064,46.85,4.22,53.82,1
3065,46.87,-4.99,32.17,1
3066,46.88,-10.98,57.18,1
3067,46.89,4.36,84.21,1
3068,46.9,14.41,33.7,1
3069,46.92,3.53,3.83,0
3070,46.93,-9.45,78.88,0
3071,46.95,-12.9,145.32,0
3072,46.96,-11.38,131.04,0
3073,46.97,-11.06,101.94,0
3074,46.99,-4.96,75.8,0
3075,47.0,11.43,52.14,0
3076,47.01,18.77,52.87,0
3077,47.03,11.35,31.7,0
3078,47.04,0.95,-18.12,0
3079,47.05,-10.32,0.83,0
3080,47.06,-13.98,81.86,0
3081,47.08,-1.97,98.39,0
3082,47.09,7.65,65.67,0
3083,47.11,-3.76,82.65,0
3084,47.12,-18.69,103.35,0
3085,47.13,-16.41,74.35,0
3086,47.14,-10.43,48.24,0
3087,47.16,-13.79,44.16,0
3088,47.17,-16.59,47.97,0
3089,47.18,-14.46,69.77,0
3090,47.2,-16.88,87.8,0
3091,47.21,-17.75,77.44,0
3092,47.22,2.69,57.96,0
3093,47.24,28.68,40.25,0
3094,47.25,15.26,36.67,0
3095,47.27,-26.99,67.95,0
3096,47.28,-30.46,83.21,0
3097,47.29,11.29,19.83,0
3098,47.31,31.18,-36.52,0
3099,47.32,11.25,21.21,0
3100,47.33,-9.53,98.56,0
3101,47.35,-16.19,72.09,0
3102,47.36,-13.17,3.78,0
3103,47.37,-6.42,-4.58,0
3104,47.38,-1.92,18.28,0
3105,47.4,3.04,11.45,0
3106,47.41,4.97,13.42,0
3107,47.43,-1.05,55.79,0
3108,47.44,-10.57,76.4,0
3109,47.45,-11.53,45.03,0
3110,47.47,8.82,-0.97,0
3111,47.48,27.21,-34.92,0
3112,47.49,11.92,-26.28,0
3113,47.51,-9.85,29.77,0
3114,47.52,-8.66,55.11,0
3115,47.53,-3.8,8.74,0
3116,47.54,-13.33,-30.23,0
3117,47.56,-31.99,3.24,0
3118,47.57,-42.42,45.55,0
3119,47.59,-34.9,14.14,0
3120,47.6,-26.8,-51.61,0
3121,47.61,-25.09,-54.6,0
3122,47.63,-5.63,3.53,0
3123,47.64,26.02,20.66,0
3124,47.65,27.59,-9.99,0
3125,47.67,6.88,-10.5,0
3126,47.68,7.1,-24.22,0
3127,47.69,12.3,-85.08,0
3128,47.71,-7.49,-92.42,0
3129,47.72,-17.13,-29.59,0
3130,47.73,9.09,19.42,0
3131,47.75,27.43,35.22,0
3132,47.76,6.34,32.46,0
3133,47.77,-26.64,6.8,0
3134,47.78,-39.1,-30.56,0
3135,47.8,-27.64,-30.22,0
3136,47.81,-10.26,2.41,0
3137,47.82,-3.89,-14.18,0
3138,47.84,-1.91,-40.39,0
3139,47.85,9.34,4.52,0
3140,47.86,20.19,33.54,0
3141,47.88,9.26,-14.5,0
3142,47.89,-12.28,-56.33,0
3143,47.9,-7.64,-39.22,0
3144,47.92,16.03,-7.44,0
3145,47.93,16.72,-12.02,0
3146,47.95,-2.48,-26.11,0
3147,47.96,-12.18,-2.21,0
3148,47.97,-14.38,17.37,0
3149,47.99,-23.73,-6.1,0
3150,48.0,-32.47,-22.33,0
3151,48.01,-21.92,-31.21,0
3152,48.03,1.0,-70.36,0
3153,48.04,13.06,-63.0,0
3154,48.05,11.2,27.27,0
3155,48.06,1.56,64.36,0
3156,48.08,-15.59,-19.62,0
3157,48.09,-29.54,-97.8,0
3158,48.11,-21.95,-68.06,1
3159,48.12,7.33,3.5,1
3160,48.13,32.5,16.93,1
3161,48.15,31.79,-21.65,1
3162,48.16,15.94,-40.76,1
3163,48.17,6.15,-12.08,1
3164,48.19,12.34,6.3,1
3165,48.2,31.53,-21.09,1
3166,48.21,33.93,-29.09,1
3167,48.22,3.91,-2.68,1
3168,48.24,-22.64,-24.13,1
3169,48.25,-22.61,-93.07,1
3170,48.27,-7.91,-128.3,1
3171,48.28,15.12,-131.84,1
3172,48.29,33.8,-162.86,1
3173,48.31,34.13,-211.49,1
3174,48.32,30.29,-222.7,1
3175,48.33,38.24,-181.58,1
3176,48.35,50.41,-110.9,1
3177,48.36,53.34,-39.23,1
3178,48.37,42.33,14.16,1
3179,48.38,21.09,50.79,1
3180,48.4,0.99,76.24,1
3181,48.41,-8.18,89.09,1
3182,48.42,-7.15,94.79,1
3183,48.44,-6.26,98.22,1
3184,48.45,-10.82,92.92,1
3185,48.46,-8.92,81.01,1
3186,48.48,1.91,73.38,1
3187,48.49,6.6,74.82,1
3188,48.5,4.28,86.09,1
3189,48.52,1.28,93.08,1
3190,48.53,-3.73,78.68,1
3191,48.54,-4.01,60.15,1
3192,48.56,1.63,58.85,1
3193,48.57,-1.25,63.05,1
3194,48.59,-14.23,61.48,1
3195,48.6,-19.29,60.12,1
3196,48.61,-7.56,55.6,1
3197,48.63,7.23,42.36,1
3198,48.64,7.77,31.82,1
3199,48.65,-2.63,34.78,1
3200,48.67,-7.55,44.5,1
3201,48.68,-2.2,44.83,1
3202,48.69,3.73,28.62,1
3203,48.71,3.53,15.94,1
3204,48.72,1.05,26.01,1
3205,48.73,-3.38,39.48,1
3206,48.75,-11.86,34.49,1
3207,48.76,-14.21,22.31,1
3208,48.77,-7.44,18.31,1
3209,48.79,-7.99,18.71,1
3210,48.8,-18.56,16.86,1
3211,48.81,-19.6,14.46,1
3212,48.83,-8.57,14.15,1
3213,48.84,-5.04,13.36,1
3214,48.85,-10.62,5.5,1
3215,48.87,-10.39,-6.1,1
3216,48.88,-4.07,-5.43,1
3217,48.89,0.36,5.73,1
3218,48.9,2.57,10.33,1
3219,48.92,1.51,4.86,0
3220,48.93,-5.45,-4.82,0
3221,48.95,-9.66,-11.97,0
3222,48.96,-1.62,-14.33,0
3223,48.97,7.6,-15.35,0
3224,48.99,1.72,-13.05,0
3225,49.0,-8.02,-8.68,0
3226,49.01,-0.28,-9.26,0
3227,49.03,14.46,-8.52,0
3228,49.04,14.17,-1.76,0
3229,49.05,2.2,1.36,0
3230,49.06,-8.78,-2.64,0
3231,49.08,-9.68,-10.43,0
3232,49.09,0.08,-17.7,0
3233,49.1,2.57,-17.48,0
3234,49.12,-9.67,-12.72,0
3235,49.13,-15.55,-16.61,0
3236,49.14,-4.66,-31.45,0
3237,49.16,4.87,-41.91,0
3238,49.17,3.47,-36.98,0
3239,49.19,5.77,-22.76,0
3240,49.2,15.99,-9.21,0
3241,49.21,16.49,-10.53,0
3242,49.22,4.23,-31.65,0
3243,49.24,-2.57,-42.17,0
3244,49.25,-0.72,-23.63,0
3245,49.27,-1.89,-6.52,0
3246,49.28,-6.06,-6.25,0
3247,49.29,-8.02,-8.7,0
3248,49.31,-5.38,-17.52,0
3249,49.32,-1.9,-28.76,0
3250,49.33,-7.09,-22.31,0
3251,49.35,-15.77,-8.87,0
3252,49.36,-13.12,-11.52,0
3253,49.37,-3.12,-24.09,0
3254,49.38,2.83,-27.38,0
3255,49.4,1.62,-18.76,0
3256,49.41,-7.43,-14.78,0
3257,49.43,-13.53,-26.1,0
3258,49.44,-3.46,-34.21,0
3259,49.45,8.41,-20.86,0
3260,49.47,4.46,-4.9,0
3261,49.48,-0.84,-5.76,0
3262,49.49,3.3,-9.26,0
3263,49.51,2.84,-5.87,0
3264,49.52,-4.74,-9.11,0
3265,49.53,-4.6,-19.45,0
3266,49.54,7.35,-16.31,0
3267,49.56,18.1,-0.35,0
3268,49.57,14.44,2.71,0
3269,49.59,3.39,-6.68,0
3270,49.6,0.36,-8.92,0
3271,49.61,-1.39,-9.11,0
3272,49.63,-9.76,-13.96,0
3273,49.64,-9.43,-10.81,0
3274,49.65,5.28,0.82,0
3275,49.67,14.04,5.5,0
3276,49.68,7.81,0.63,0
3277,49.69,3.82,-7.31,0
3278,49.7,8.26,-14.14,0
3279,49.72,0.36,-8.51,0
3280,49.73,-20.42,8.22,0
3281,49.74,-17.18,7.69,0
3282,49.76,14.24,-10.82,0
3283,49.77,25.26,-12.21,0
3284,49.78,2.65,2.81,0
3285,49.8,-9.74,7.57,0
3286,49.81,0.58,3.62,0
3287,49.83,3.23,2.53,0
3288,49.84,-1.73,4.22,0
3289,49.85,6.16,7.2,0
3290,49.87,12.79,10.01,0
3291,49.88,-2.03,10.31,0
3292,49.89,-20.82,3.75,0
3293,49.9,-20.0,-6.63,0
3294,49.92,-6.39,-7.06,0
3295,49.93,2.65,3.26,0
3296,49.95,8.58,6.93,0
3297,49.96,15.99,-3.13,0
3298,49.97,11.61,-9.3,0
3299,49.99,-4.93,3.33,0
3300,50.0,-8.95,19.36,0
3301,50.01,1.72,15.49,0
3302,50.03,3.13,3.95,0
3303,50.04,-7.29,13.3,0
3304,50.05,-8.88,32.34,0
3305,50.06,0.56,29.84,0
3306,50.08,-2.85,12.76,0
3307,50.09,-14.71,4.4,0
3308,50.11,0.07,2.46,1
3309,50.12,25.11,0.24,1
3310,50.13,12.56,2.12,1
3311,50.15,-15.19,7.83,1
3312,50.16,-9.38,12.89,1
3313,50.17,8.71,4.72,1
3314,50.19,1.08,-37.94,1
3315,50.2,-12.2,-104.26,1
3316,50.21,2.07,-144.12,1
3317,50.22,28.0,-141.3,1
3318,50.24,34.08,-133.81,1
3319,50.25,27.48,-138.65,1
3320,50.27,27.98,-136.07,1
3321,50.28,31.31,-121.07,1
3322,50.29,26.42,-105.07,1
3323,50.31,17.71,-87.85,1
3324,50.32,16.35,-60.37,1
3325,50.33,15.19,-25.6,1
3326,50.34,1.85,1.18,1
3327,50.36,-13.23,20.94,1
3328,50.37,-19.89,49.17,1
3329,50.38,-25.63,81.03,1
3330,50.4,-31.83,101.42,1
3331,50.41,-31.57,114.69,1
3332,50.42,-22.8,131.65,1
3333,50.44,-13.97,151.22,1
3334,50.45,-14.57,166.24,1
3335,50.46,-20.45,171.94,1
3336,50.48,-24.54,168.66,1
3337,50.49,-26.12,160.52,1
3338,50.51,-23.17,153.48,1
3339,50.52,-15.21,148.99,1
3340,50.53,-10.88,142.84,1
3341,50.54,-12.9,134.12,1
3342,50.56,-11.53,123.43,1
3343,50.57,-5.18,112.2,1
3344,50.59,-1.39,104.78,1
3345,50.6,-1.6,101.26,1
3346,50.61,-6.13,98.36,1
3347,50.63,-11.64,92.41,1
3348,50.64,-8.34,79.9,1
3349,50.65,-0.25,63.78,1
3350,50.67,-1.37,49.24,1
3351,50.68,-7.21,36.74,1
3352,50.69,-8.98,27.9,1
3353,50.71,-9.62,24.65,1
3354,50.72,-3.47,21.51,1
3355,50.73,8.81,12.35,1
3356,50.75,5.69,0.57,1
3357,50.76,-7.46,-6.37,1
3358,50.77,-0.63,-11.55,1
3359,50.79,16.98,-18.97,1
3360,50.8,14.16,-18.66,1
3361,50.81,0.02,-12.59,1
3362,50.83,2.5,-18.94,1
3363,50.84,15.36,-34.37,1
3364,50.85,17.19,-42.97,1
3365,50.87,11.55,-45.25,1
3366,50.88,7.81,-45.53,1
3367,50.89,2.93,-43.21,1
3368,50.9,1.06,-42.06,1
3369,50.92,9.13,-44.89,0
3370,50.93,15.93,-51.35,0
3371,50.95,8.96,-58.99,0
3372,50.96,-0.65,-59.92,0
3373,50.97,1.54,-52.97,0
3374,50.98,6.28,-50.61,0
3375,51.0,1.98,-57.46,0
3376,51.01,-0.65,-63.36,0
3377,51.02,9.11,-63.38,0
3378,51.04,16.5,-59.01,0
3379,51.05,6.0,-52.28,0
3380,51.06,-7.18,-53.08,0
3381,51.08,-4.64,-60.42,0
3382,51.09,0.06,-59.31,0
3383,51.1,-5.8,-56.52,0
3384,51.12,-5.44,-64.09,0
3385,51.13,11.05,-66.14,0
3386,51.15,25.26,-52.79,0
3387,51.16,22.18,-45.42,0
3388,51.17,9.19,-53.01,0
3389,51.19,3.83,-55.31,0
3390,51.2,9.66,-47.37,0
3391,51.21,12.26,-45.3,0
3392,51.22,8.89,-50.34,0
3393,51.24,6.79,-49.21,0
3394,51.25,-0.26,-41.53,0
3395,51.27,-8.93,-39.23,0
3396,51.28,-2.08,-41.38,0
3397,51.29,11.45,-36.86,0
3398,51.31,7.73,-30.7,0
3399,51.32,-7.77,-34.07,0
3400,51.33,-13.4,-42.01,0
3401,51.35,-6.77,-44.45,0
3402,51.36,-0.68,-38.7,0
3403,51.37,-1.3,-29.56,0
3404,51.38,-1.66,-22.85,0
3405,51.4,4.75,-17.11,0
3406,51.41,9.68,-12.57,0
3407,51.43,5.24,-16.33,0
3408,51.44,-1.75,-23.06,0
3409,51.45,-4.24,-18.67,0
3410,51.47,-5.09,-7.47,0
3411,51.48,-4.84,-4.62,0
3412,51.49,-1.84,-9.34,0
3413,51.51,-1.77,-9.66,0
3414,51.52,-6.11,-4.57,0
3415,51.53,-7.8,-3.92,0
3416,51.54,-7.15,-8.94,0
3417,51.56,-7.62,-8.98,0
3418,51.57,-6.17,-1.37,0
3419,51.59,-2.84,4.83,0
3420,51.6,-2.64,7.64,0
3421,51.61,-3.57,14.11,0
3422,51.62,-0.99,19.16,0
3423,51.64,3.1,13.48,0
3424,51.65,8.22,9.42,0
3425,51.66,12.85,17.59,0
3426,51.68,8.98,23.52,0
3427,51.69,-2.07,20.06,0
3428,51.7,-6.63,16.47,0
3429,51.72,1.06,13.88,0
3430,51.73,10.27,11.51,0
3431,51.74,10.83,15.05,0
3432,51.76,5.7,20.67,0
3433,51.77,-4.13,17.21,0
3434,51.79,-19.9,7.26,0
3435,51.8,-21.4,4.73,0
3436,51.81,1.46,11.17,0
3437,51.83,13.24,17.71,0
3438,51.84,-5.3,24.86,0
3439,51.85,-20.76,33.07,0
3440,51.87,-11.58,31.74,0
3441,51.88,6.08,21.09,0
3442,51.89,12.88,15.07,0
3443,51.9,7.17,17.14,0
3444,51.92,2.18,17.56,0
3445,51.93,4.25,12.03,0
3446,51.95,7.5,9.78,0
3447,51.96,10.41,15.76,0
3448,51.97,8.35,21.6,0
3449,51.99,-6.73,22.72,0
3450,52.0,-20.87,20.01,0
3451,52.01,-18.2,15.79,0
3452,52.03,-11.76,16.98,0
3453,52.04,-12.09,22.77,0
3454,52.05,-6.86,24.3,0
3455,52.06,1.0,20.69,0
3456,52.08,-6.88,14.93,0
3457,52.09,-20.29,14.22,0
3458,52.11,-15.87,25.73,1
3459,52.12,-1.88,35.66,1
3460,52.13,2.82,28.03,1
3461,52.15,0.2,12.12,1
3462,52.16,0.45,6.3,1
3463,52.17,8.16,22.31,1
3464,52.19,15.12,69.5,1
3465,52.2,10.49,155.13,1
3466,52.21,2.71,262.29,1
3467,52.22,3.57,341.62,1
3468,52.24,4.27,356.23,1
3469,52.25,-5.09,311.4,1
3470,52.26,-11.03,231.77,1
3471,52.28,1.64,149.08,1
3472,52.29,13.92,89.33,1
3473,52.3,0.79,38.16,1
3474,52.32,-16.34,-31.98,1
3475,52.33,-10.82,-101.75,1
3476,52.34,-4.95,-143.93,1
3477,52.36,-14.35,-177.9,1
3478,52.37,-13.4,-216.68,1
3479,52.38,4.1,-233.27,1
3480,52.4,12.0,-220.47,1
3481,52.41,4.61,-208.83,1
3482,52.43,-2.98,-208.04,1
3483,52.44,-5.79,-194.77,1
3484,52.45,-2.51,-164.29,1
3485,52.47,6.08,-144.78,1
3486,52.48,9.15,-142.33,1
3487,52.49,1.92,-130.89,1
3488,52.51,-5.66,-106.38,1
3489,52.52,-1.96,-85.72,1
3490,52.53,9.82,-72.18,1
3491,52.54,13.37,-69.17,1
3492,52.56,-1.48,-77.07,1
3493,52.57,-21.6,-75.34,1
3494,52.59,-21.91,-57.06,1
3495,52.6,-3.55,-47.19,1
3496,52.61,9.54,-55.19,1
3497,52.63,8.49,-57.44,1
3498,52.64,3.9,-41.78,1
3499,52.65,3.72,-26.61,1
3500,52.67,7.04,-23.15,1
3501,52.68,13.81,-13.34,1
3502,52.69,19.16,4.72,1
3503,52.71,13.16,7.72,1
3504,52.72,3.97,-1.23,1
3505,52.73,10.43,3.81,1
3506,52.75,23.56,22.32,1
3507,52.76,16.36,31.5,1
3508,52.77,-5.68,26.13,1
3509,52.79,-11.78,22.66,1
3510,52.8,-0.04,29.28,1
3511,52.81,6.08,36.31,1
3512,52.83,0.29,33.59,1
3513,52.84,-2.86,31.74,1
3514,52.85,5.4,41.51,1
3515,52.87,12.03,50.35,1
3516,52.88,7.65,49.3,1
3517,52.89,4.99,45.45,1
3518,52.9,5.74,41.13,1
3519,52.92,0.43,36.94,0
3520,52.93,-4.43,41.06,0
3521,52.94,-2.77,48.77,0
3522,52.96,1.69,46.87,0
3523,52.97,4.8,42.63,0
3524,52.98,3.2,43.86,0
3525,53.0,2.28,41.23,0
3526,53.01,7.44,41.44,0
3527,53.02,9.49,51.42,0
3528,53.04,1.09,54.1,0
3529,53.05,-8.62,48.11,0
3530,53.06,-9.14,44.83,0
3531,53.08,-6.16,39.27,0
3532,53.09,-11.2,32.74,0
3533,53.11,-14.63,34.43,0
3534,53.12,-1.8,40.56,0
3535,53.13,11.55,43.25,0
3536,53.15,5.28,43.77,0
3537,53.16,-13.0,44.3,0
3538,53.17,-25.44,40.02,0
3539,53.19,-22.8,30.54,0
3540,53.2,-11.36,28.0,0
3541,53.21,-6.19,36.58,0
3542,53.22,-10.85,38.64,0
3543,53.24,-12.26,26.1,0
3544,53.25,-2.07,18.9,0
3545,53.27,6.31,26.58,0
3546,53.28,0.61,33.66,0
3547,53.29,-7.35,30.37,0
3548,53.31,-6.03,22.82,0
3549,53.32,-0.42,21.4,0
3550,53.33,3.64,27.48,0
3551,53.35,4.76,28.2,0
3552,53.36,3.52,18.76,0
3553,53.37,3.28,12.07,0
3554,53.38,8.02,10.04,0
3555,53.4,14.09,3.8,0
3556,53.41,10.2,-3.53,0
3557,53.43,-5.58,-4.38,0
3558,53.44,-17.47,-1.92,0
3559,53.45,-11.46,-2.97,0
3560,53.47,5.61,-5.45,0
3561,53.48,13.67,-1.75,0
3562,53.49,8.58,5.38,0
3563,53.51,6.8,4.52,0
3564,53.52,10.27,-1.48,0
3565,53.53,6.75,0.62,0
3566,53.54,2.1,6.0,0
3567,53.56,3.81,-1.8,0
3568,53.57,1.56,-17.89,0
3569,53.58,-9.51,-23.08,0
3570,53.6,-16.25,-17.82,0
3571,53.61,-8.69,-13.81,0
3572,53.62,1.97,-13.25,0
3573,53.64,4.48,-16.99,0
3574,53.65,2.28,-20.53,0
3575,53.66,-2.82,-16.23,0
3576,53.68,-7.2,-12.23,0
3577,53.69,-4.56,-15.32,0
3578,53.7,-3.08,-18.23,0
3579,53.72,-6.74,-17.53,0
3580,53.73,-4.46,-16.37,0
3581,53.75,2.38,-20.97,0
3582,53.76,2.85,-29.02,0
3583,53.77,-0.92,-22.52,0
3584,53.79,-2.75,-7.87,0
3585,53.8,-5.16,-13.56,0
3586,53.81,-9.32,-27.03,0
3587,53.83,-5.37,-21.25,0
3588,53.84,8.85,-12.98,0
3589,53.85,18.39,-14.7,0
3590,53.87,16.8,-9.62,0
3591,53.88,9.04,-4.55,0
3592,53.89,-4.6,-15.38,0
3593,53.9,-16.71,-21.45,0
3594,53.92,-12.46,-9.98,0
3595,53.93,1.54,-5.15,0
3596,53.95,5.19,-17.09,0
3597,53.96,1.41,-25.76,0
3598,53.97,1.9,-22.18,0
3599,53.99,2.62,-22.08,0
3600,54.0,-0.97,-28.25,0
3601,54.01,-5.54,-21.94,0
3602,54.03,-5.64,-6.47,0
3603,54.04,0.23,-5.74,0
3604,54.05,6.21,-17.03,0
3605,54.06,6.11,-14.66,0
3606,54.08,-3.46,0.48,0
3607,54.09,-16.48,0.06,0
3608,54.11,-14.98,-18.23,1
3609,54.12,4.01,-26.11,1
3610,54.13,16.84,-14.07,1
3611,54.15,8.68,-3.98,1
3612,54.16,-0.96,-13.44,1
3613,54.17,4.95,-34.55,1
3614,54.18,6.95,-40.96,1
3615,54.2,-7.97,-8.37,1
3616,54.21,-13.79,49.69,1
3617,54.22,3.4,93.64,1
3618,54.24,16.13,67.92,1
3619,54.25,8.62,-40.35,1
3620,54.26,10.58,-65.38,1
3621,54.28,38.86,83.59,1
3622,54.29,48.81,163.2,1
3623,54.3,0.76,62.04,1
3624,54.32,-60.87,13.75,1
3625,54.33,-64.41,72.49,1
3626,54.34,-19.35,62.04,1
3627,54.36,9.26,3.56,1
3628,54.37,3.11,11.43,1
3629,54.38,-8.49,23.47,1
3630,54.4,-13.59,-43.4,1
3631,54.41,-14.54,-121.42,1
3632,54.43,-3.82,-78.77,1
3633,54.44,8.37,41.39,1
3634,54.45,-3.21,33.36,1
3635,54.47,-22.49,-97.83,1
3636,54.48,-11.95,-153.14,1
3637,54.49,14.41,-124.79,1
3638,54.51,17.94,-115.38,1
3639,54.52,3.27,-92.37,1
3640,54.53,-3.09,-29.02,1
3641,54.54,0.51,13.18,1
3642,54.56,3.12,19.91,1
3643,54.57,3.33,24.39,1
3644,54.59,1.15,42.95,1
3645,54.6,2.17,48.74,1
3646,54.61,14.12,9.45,1
3647,54.63,24.49,-36.53,1
3648,54.64,17.74,-54.84,1
3649,54.65,3.05,-62.12,1
3650,54.67,-1.88,-41.76,1
3651,54.68,4.65,-1.2,1
3652,54.69,12.67,-10.5,1
3653,54.71,13.26,-57.41,1
3654,54.72,6.96,-54.59,1
3655,54.73,3.78,-21.32,1
3656,54.75,-1.49,-26.04,1
3657,54.76,-17.54,-29.19,1
3658,54.77,-21.06,-3.17,1
3659,54.79,-3.73,-0.06,1
3660,54.8,0.34,-22.14,1
3661,54.81,-13.47,-26.5,1
3662,54.82,-6.31,-5.25,1
3663,54.84,24.53,3.64,1
3664,54.85,31.12,-28.78,1
3665,54.86,4.55,-41.4,1
3666,54.88,-2.49,7.65,1
3667,54.89,20.5,26.56,1
3668,54.9,26.78,-22.56,1
3669,54.92,10.67,-28.2,0
3670,54.93,3.12,30.95,0
3671,54.94,0.02,28.67,0
3672,54.96,-15.96,-26.5,0
3673,54.97,-27.57,3.44,0
3674,54.98,-14.12,73.43,0
3675,55.0,6.41,38.05,0
3676,55.01,8.58,-47.38,0
3677,55.025000000000006,1.66,-39.79,0
3678,55.04,3.02,39.14,0
3679,55.05,7.43,84.39,0
3680,55.06,4.97,73.14,0
3681,55.08,-7.55,42.76,0
3682,55.09,-19.17,26.02,0
3683,55.11,-7.16,21.93,0
3684,55.12,20.82,16.97,0
3685,55.13,23.4,17.9,0
3686,55.15,-4.11,30.84,0
3687,55.16,-16.92,52.14,0
3688,55.17,-4.38,70.08,0
3689,55.19,-2.68,58.65,0
3690,55.2,-13.62,27.09,0
3691,55.21,-11.61,29.61,0
3692,55.22,-3.79,58.13,0
3693,55.24,-1.81,52.58,0
3694,55.25,8.31,23.42,0
3695,55.27,18.23,12.05,0
3696,55.28,4.78,22.69,0
3697,55.29,-8.96,38.22,0
3698,55.31,-1.94,23.58,0
3699,55.32,5.61,-23.65,0
3700,55.33,5.24,-53.27,0
3701,55.35,-2.82,-37.67,0
3702,55.36,-15.63,9.15,0
3703,55.37,-11.86,51.86,0
3704,55.38,0.35,45.17,0
3705,55.4,-7.07,-10.93,0
3706,55.41,-15.88,-61.85,0
3707,55.43,-4.48,-53.14,0
3708,55.44,4.48,6.5,0
3709,55.45,0.82,49.49,0
3710,55.46,-3.08,46.88,0
3711,55.48,-7.22,22.64,0
3712,55.49,-8.29,7.52,0
3713,55.5,-1.78,30.37,0
3714,55.52,0.56,72.1,0
3715,55.53,-8.23,83.21,0
3716,55.54,-11.45,52.51,0
3717,55.56,4.53,11.82,0
3718,55.57,21.77,8.18,0
3719,55.58,22.44,31.25,0
3720,55.6,15.03,11.0,0
3721,55.61,13.03,-40.34,0
3722,55.62,16.88,-51.97,0
3723,55.64,10.83,-34.9,0
3724,55.65,-16.42,-13.98,0
3725,55.66,-35.56,12.57,0
3726,55.68,-16.68,10.56,0
3727,55.69,4.97,-15.52,0
3728,55.71,-3.59,-10.22,0
3729,55.72,-6.34,19.91,0
3730,55.73,8.12,6.98,0
3731,55.75,-0.56,-50.12,0
3732,55.76,-17.19,-56.04,0
3733,55.77,-2.57,4.66,0
3734,55.79,4.65,28.24,0
3735,55.8,-22.68,3.74,0
3736,55.81,-30.45,10.64,0
3737,55.83,-7.23,23.93,0
3738,55.84,-0.5,-14.28,0
3739,55.85,-5.94,-54.81,0
3740,55.87,-3.2,-48.11,0
3741,55.88,-1.98,-25.23,0
3742,55.89,5.34,-17.51,0
3743,55.9,16.76,-2.42,0
3744,55.92,6.36,36.54,0
3745,55.93,-11.38,64.94,0
3746,55.95,-3.9,60.35,0
3747,55.96,14.85,26.42,0
3748,55.97,18.82,-16.1,0
3749,55.99,17.29,-21.46,0
3750,56.0,21.3,3.33,0
3751,56.01,19.69,6.1,0
3752,56.03,7.87,-13.56,0
3753,56.04,-5.38,-22.14,0
3754,56.05,-12.33,-18.47,0
3755,56.06,-6.09,-23.41,0
3756,56.08,6.47,-33.1,0
3757,56.09,2.67,-36.5,0
3758,56.1,-14.42,-35.04,1
3759,56.12,-14.66,-20.6,1
3760,56.13,5.61,-2.59,1
3761,56.14,18.12,-10.54,1
3762,56.16,14.88,-35.98,1
3763,56.17,14.01,-46.79,1
3764,56.18,10.19,-45.5,1
3765,56.2,-5.39,-53.08,1
3766,56.21,-8.53,-53.83,1
3767,56.22,3.09,-16.91,1
3768,56.24,5.25,24.36,1
3769,56.25,5.96,-0.82,1
3770,56.26,11.9,-86.49,1
3771,56.28,13.91,-156.99,1
3772,56.29,26.7,-176.64,1
3773,56.3,43.22,-174.13,1
3774,56.32,30.9,-163.96,1
3775,56.33,6.6,-125.22,1
3776,56.35,1.9,-60.17,1
3777,56.36,-0.4,1.22,1
3778,56.37,-19.26,42.37,1
3779,56.38,-33.19,65.44,1
3780,56.4,-27.08,79.43,1
3781,56.41,-20.33,90.83,1
3782,56.43,-23.27,96.44,1
3783,56.44,-21.81,95.49,1
3784,56.45,-15.26,95.99,1
3785,56.47,-12.07,99.5,1
3786,56.48,-6.02,99.11,1
3787,56.49,2.82,96.17,1
3788,56.51,2.86,94.05,1
3789,56.52,-3.58,82.32,1
3790,56.53,-6.78,62.35,1
3791,56.54,-5.19,53.99,1
3792,56.56,-0.1,53.59,1
3793,56.57,1.83,42.2,1
3794,56.59,-1.77,26.46,1
3795,56.6,0.11,25.83,1
3796,56.61,3.97,44.91,1
3797,56.63,-4.1,60.8,1
3798,56.64,-10.65,46.84,1
3799,56.65,-1.16,22.52,1
3800,56.67,4.55,19.99,1
3801,56.68,-1.31,23.89,1
3802,56.69,3.77,17.04,1
3803,56.71,12.49,15.9,1
3804,56.72,-1.2,19.86,1
3805,56.73,-18.56,10.48,1
3806,56.74,-11.14,1.33,1
3807,56.76,5.7,10.68,1
3808,56.77,8.17,15.34,1
3809,56.78,-0.6,-0.57,1
3810,56.8,-8.27,-10.45,1
3811,56.81,-7.37,-6.92,1
3812,56.82,-0.2,-10.07,1
3813,56.84,0.62,-10.78,1
3814,56.85,-8.65,3.15,1
3815,56.86,-13.8,9.13,1
3816,56.88,-9.46,-6.11,1
3817,56.89,-4.96,-19.34,1
3818,56.9,-5.4,-9.77,1
3819,56.92,-8.38,5.61,0
3820,56.93,-7.81,-1.87,0
3821,56.94,-3.78,-22.15,0
3822,56.96,-3.71,-22.48,0
3823,56.97,-6.39,-3.69,0
3824,56.99,-6.47,6.83,0
3825,57.0,-3.6,-1.04,0
3826,57.01,4.22,-16.46,0
3827,57.03,12.73,-28.81,0
3828,57.04,13.14,-35.7,0
3829,57.05,10.64,-35.47,0
3830,57.06,12.14,-22.64,0
3831,57.08,12.1,-6.97,0
3832,57.09,7.2,-12.29,0
3833,57.11,1.03,-28.99,0
3834,57.12,-3.58,-30.39,0
3835,57.13,-4.88,-26.27,0
3836,57.15,-1.04,-28.27,0
3837,57.16,8.84,-22.42,0
3838,57.17,15.09,-9.93,0
3839,57.19,5.55,-7.6,0
3840,57.2,-7.35,-12.27,0
3841,57.21,-6.91,-13.34,0
3842,57.22,-4.23,-13.82,0
3843,57.24,-4.71,-15.37,0
3844,57.25,3.31,-19.48,0
3845,57.27,10.07,-25.56,0
3846,57.28,0.48,-23.33,0
3847,57.29,-14.32,-18.71,0
3848,57.31,-15.14,-22.45,0
3849,57.32,-0.03,-22.29,0
3850,57.33,12.18,-11.86,0
3851,57.35,8.9,-4.96,0
3852,57.36,1.95,-8.94,0
3853,57.37,1.02,-16.06,0
3854,57.38,-2.5,-17.76,0
3855,57.4,-11.13,-14.0,0
3856,57.41,-9.85,-11.86,0
3857,57.42,6.97,-16.58,0
3858,57.44,21.58,-20.53,0
3859,57.45,18.79,-11.35,0
3860,57.46,8.06,1.75,0
3861,57.48,2.42,-3.45,0
3862,57.49,0.01,-20.93,0
3863,57.5,-6.13,-24.17,0
3864,57.52,-10.39,-13.22,0
3865,57.53,0.34,-7.07,0
3866,57.54,16.43,-7.07,0
3867,57.56,17.19,-6.04,0
3868,57.57,8.39,-6.37,0
3869,57.58,2.35,-9.6,0
3870,57.6,1.99,-9.45,0
3871,57.61,10.17,-5.06,0
3872,57.625,11.89,-1.88,0
3873,57.64,-4.52,2.42,0
3874,57.65,-11.49,7.99,0
3875,57.67,8.1,6.04,0
3876,57.68,25.81,-2.43,0
3877,57.69,20.1,-8.21,0
3878,57.71,5.83,-7.82,0
3879,57.72,-4.78,-1.39,0
3880,57.73,-13.57,7.31,0
3881,57.75,-9.65,11.87,0
3882,57.76,8.35,9.82,0
3883,57.77,12.47,3.47,0
3884,57.79,-0.62,-0.07,0
3885,57.8,-2.12,2.95,0
3886,57.81,6.81,5.74,0
3887,57.83,1.08,4.17,0
3888,57.84,-14.92,1.76,0
3889,57.85,-13.87,1.73,0
3890,57.87,4.98,2.28,0
3891,57.88,14.68,0.63,0
3892,57.89,8.38,-0.15,0
3893,57.9,3.84,0.92,0
3894,57.92,4.47,4.61,0
3895,57.93,-2.02,16.47,0
3896,57.95,-11.21,26.34,0
3897,57.96,-5.07,19.29,0
3898,57.97,11.39,7.4,0
3899,57.99,11.41,10.03,0
3900,58.0,-7.92,19.93,0
3901,58.01,-17.62,13.68,0
3902,58.02,-7.02,-5.28,0
3903,58.04,0.26,-7.39,0
3904,58.05,-6.02,6.2,0
3905,58.06,-10.69,8.56,0
3906,58.08,-13.8,4.1,0
3907,58.09,-23.84,8.81,0
3908,58.1,-28.76,12.11,1
3909,58.12,-17.63,4.72,1
3910,58.13,-1.35,-2.97,1
3911,58.14,5.25,1.88,1
3912,58.16,6.46,6.33,1
3913,58.17,12.8,-35.86,1
3914,58.18,16.08,-127.51,1
3915,58.2,11.95,-188.1,1
3916,58.21,12.12,-176.16,1
3917,58.22,12.63,-144.9,1
3918,58.24,7.89,-133.22,1
3919,58.25,13.37,-123.26,1
3920,58.26,31.04,-97.22,1
3921,58.28,39.42,-65.18,1
3922,58.29,28.6,-40.73,1
3923,58.31,9.28,-15.83,1
3924,58.32,-7.02,13.78,1
3925,58.33,-15.31,33.21,1
3926,58.35,-13.36,43.8,1
3927,58.36,-7.15,62.62,1
3928,58.37,-5.16,83.57,1
3929,58.38,-5.78,92.63,1
3930,58.4,-5.59,96.78,1
3931,58.41,-3.34,106.29,1
3932,58.43,-0.55,121.86,1
3933,58.44,-0.69,138.78,1
3934,58.45,1.23,146.86,1
3935,58.47,8.19,144.52,1
3936,58.48,4.95,142.54,1
3937,58.49,-13.47,141.81,1
3938,58.51,-26.13,133.29,1
3939,58.52,-25.66,119.71,1
3940,58.53,-29.19,115.83,1
3941,58.54,-35.19,126.77,1
3942,58.56,-25.53,134.78,1
3943,58.57,-9.04,121.88,1
3944,58.59,-11.91,102.6,1
3945,58.6,-30.23,95.24,1
3946,58.61,-32.34,84.18,1
3947,58.63,-12.87,63.17,1
3948,58.64,-0.09,55.73,1
3949,58.65,-6.83,58.34,1
3950,58.66,-18.79,48.58,1
3951,58.68,-24.07,33.24,1
3952,58.69,-19.33,22.74,1
3953,58.7,-6.36,11.39,1
3954,58.72,5.0,1.32,1
3955,58.73,4.32,-1.18,1
3956,58.74,-4.85,-1.31,1
3957,58.76,-7.94,-4.62,1
3958,58.77,3.16,-8.14,1
3959,58.78,11.86,-10.71,1
3960,58.8,2.46,-15.61,1
3961,58.81,-4.72,-24.34,1
3962,58.82,3.95,-35.03,1
3963,58.84,4.1,-45.13,1
3964,58.85,-9.23,-52.54,1
3965,58.86,-10.57,-54.25,1
3966,58.88,3.61,-51.74,1
3967,58.89,15.48,-52.03,1
3968,58.9,14.31,-54.93,1
3969,58.92,8.54,-52.17,0
3970,58.93,12.16,-44.9,0
3971,58.95,16.25,-46.5,0
3972,58.96,10.14,-59.25,0
3973,58.97,7.36,-67.44,0
3974,58.99,12.03,-63.57,0
3975,59.0,9.16,-55.77,0
3976,59.01,2.87,-50.04,0
3977,59.03,8.29,-49.67,0
3978,59.04,13.09,-59.46,0
3979,59.05,3.63,-71.39,0
3980,59.06,0.67,-71.28,0
3981,59.08,17.4,-62.12,0
3982,59.09,27.89,-53.97,0
3983,59.11,12.58,-50.58,0
3984,59.12,-9.29,-52.83,0
3985,59.13,-11.28,-55.89,0
3986,59.15,6.22,-54.65,0
3987,59.16,19.73,-51.51,0
3988,59.17,13.1,-48.11,0
3989,59.19,-3.53,-42.18,0
3990,59.2,-6.43,-36.69,0
3991,59.21,8.15,-37.5,0
3992,59.22,12.45,-41.82,0
3993,59.24,-3.24,-41.62,0
3994,59.25,-10.54,-37.78,0
3995,59.27,-0.82,-37.84,0
3996,59.28,7.35,-39.75,0
3997,59.29,8.74,-33.25,0
3998,59.3,9.37,-21.88,0
3999,59.32,10.03,-25.36,0
4000,59.33,8.35,-45.75,0
4001,59.34,5.67,-59.88,0
4002,59.36,4.84,-55.21,0
4003,59.37,3.46,-36.64,0
4004,59.38,0.28,-13.51,0
4005,59.4,-4.43,-0.35,0
4006,59.41,-8.98,1.08,0
4007,59.42,-8.45,3.76,0
4008,59.44,-1.54,5.15,0
4009,59.45,5.57,-3.73,0
4010,59.46,5.32,-12.03,0
4011,59.48,1.54,-9.8,0
4012,59.49,0.75,-8.99,0
4013,59.5,-2.3,-13.24,0
4014,59.52,-3.75,-6.16,0
4015,59.53,7.13,9.7,0
4016,59.54,18.72,10.84,0
4017,59.56,17.53,-0.35,0
4018,59.57,12.43,2.5,0
4019,59.59,7.12,15.63,0
4020,59.6,-7.07,8.59,0
4021,59.61,-21.31,-11.32,0
4022,59.63,-21.35,-6.66,0
4023,59.64,-14.99,14.8,0
4024,59.65,-9.32,17.81,0
4025,59.67,2.5,7.25,0
4026,59.68,12.51,7.47,0
4027,59.69,6.42,21.46,0
4028,59.71,-5.22,34.38,0
4029,59.72,-7.24,30.39,0
4030,59.73,-0.9,17.4,0
4031,59.75,8.58,14.39,0
4032,59.76,14.39,17.83,0
4033,59.77,10.86,16.27,0
4034,59.79,0.09,11.66,0
4035,59.8,-10.74,13.21,0
4036,59.81,-11.15,24.94,0
4037,59.83,-0.31,32.73,0
4038,59.84,6.8,25.23,0
4039,59.85,5.08,16.5,0
4040,59.87,4.34,18.3,0
4041,59.88,-0.1,22.66,0
4042,59.89,-13.22,22.54,0
4043,59.9,-15.32,17.89,0
4044,59.92,-1.58,12.19,0
4045,59.93,5.81,14.89,0
4046,59.94,4.42,27.11,0
4047,59.96,8.7,33.97,0
4048,59.97,13.14,28.12,0
4049,59.98,4.12,17.93,0
4050,60.0,-9.86,11.53,0
4051,60.01,-10.46,9.36,0
4052,60.02,-3.14,9.43,0
4053,60.04,-1.85,15.39,0
4054,60.05,-1.13,26.01,0
4055,60.06,1.69,27.64,0
4056,60.08,-8.58,20.67,0
4057,60.09,-23.79,23.38,0
4058,60.1,-9.19,32.84,1
4059,60.12,20.98,32.07,1
4060,60.13,13.6,25.65,1
4061,60.14,-20.96,17.76,1
4062,60.16,-25.29,6.11,1
4063,60.17,7.05,6.55,1
4064,60.18,28.23,25.47,1
4065,60.2,14.99,59.51,1
4066,60.21,3.14,131.57,1
4067,60.22,11.98,239.56,1
4068,60.24,8.91,320.94,1
4069,60.25,-13.11,338.14,1
4070,60.27,-25.88,310.79,1
4071,60.28,-23.77,255.55,1
4072,60.29,-16.24,180.18,1
4073,60.31,-10.08,103.49,1
4074,60.32,-11.33,40.19,1
4075,60.33,-15.18,-11.3,1
4076,60.35,-14.58,-63.22,1
4077,60.36,-14.41,-119.19,1
4078,60.37,-13.74,-170.01,1
4079,60.38,-5.48,-210.17,1
4080,60.4,2.84,-235.79,1
4081,60.41,4.85,-237.72,1
4082,60.43,3.69,-221.2,1
4083,60.44,0.16,-207.92,1
4084,60.45,-1.27,-205.35,1
4085,60.47,-0.65,-194.47,1
4086,60.48,-2.18,-167.08,1
4087,60.49,2.19,-144.3,1
4088,60.51,13.05,-132.84,1
4089,60.52,15.8,-113.0,1
4090,60.53,10.94,-88.58,1
4091,60.54,5.34,-84.37,1
4092,60.56,-3.98,-95.86,1
4093,60.57,-13.66,-101.18,1
4094,60.58,-13.46,-94.72,1
4095,60.6,-4.02,-76.1,1
4096,60.61,4.66,-52.11,1
4097,60.62,8.92,-44.17,1
4098,60.64,10.18,-50.25,1
4099,60.65,8.33,-45.39,1
4100,60.66,5.49,-31.78,1
4101,60.68,4.73,-26.76,1
4102,60.69,7.69,-24.32,1
4103,60.7,11.03,-16.87,1
4104,60.72,7.99,-8.63,1
4105,60.73,3.16,-3.46,1
4106,60.74,5.72,-2.7,1
4107,60.76,6.19,1.92,1
4108,60.77,-1.49,15.01,1
4109,60.78,-1.84,20.34,1
4110,60.8,8.95,18.16,1
4111,60.81,14.15,26.29,1
4112,60.82,8.66,33.84,1
4113,60.84,2.04,28.17,1
4114,60.85,-2.69,28.06,1
4115,60.86,-7.55,41.03,1
4116,60.88,-8.69,44.25,1
4117,60.89,-2.97,32.19,1
4118,60.9,8.03,29.73,1
4119,60.92,14.42,45.93,0
4120,60.93,6.37,60.7,0
4121,60.95,-1.94,58.5,0
4122,60.96,1.97,48.49,0
4123,60.97,5.04,46.23,0
4124,60.99,4.36,50.03,0
4125,61.0,2.93,51.87,0
4126,61.01,-9.64,53.91,0
4127,61.03,-23.12,60.48,0
4128,61.04,-14.71,58.67,0
4129,61.05,4.59,37.67,0
4130,61.06,9.88,27.62,0
4131,61.08,0.84,52.07,0
4132,61.09,-9.05,74.69,0
4133,61.11,-13.59,62.99,0
4134,61.12,-10.59,40.68,0
4135,61.13,4.15,34.25,0
4136,61.15,22.61,35.38,0
4137,61.16,25.57,34.77,0
4138,61.17,12.32,36.2,0
4139,61.19,-3.63,38.0,0
4140,61.2,-17.12,41.05,0
4141,61.21,-22.04,49.13,0
4142,61.22,-14.33,52.96,0
4143,61.24,-5.62,46.83,0
4144,61.25,-6.32,39.74,0
4145,61.26,-10.24,33.69,0
4146,61.28,-10.45,23.53,0
4147,61.29,-7.61,19.74,0
4148,61.3,-6.41,28.35,0
4149,61.32,-10.3,30.21,0
4150,61.33,-7.79,17.92,0
4151,61.34,8.74,12.67,0
4152,61.36,19.25,24.77,0
4153,61.37,11.78,34.78,0
4154,61.38,4.02,23.76,0
4155,61.4,3.61,2.44,0
4156,61.41,-3.69,-5.51,0
4157,61.42,-14.93,2.14,0
4158,61.44,-6.69,7.92,0
4159,61.45,16.92,2.58,0
4160,61.46,19.13,-4.42,0
4161,61.48,-7.55,0.9,0
4162,61.49,-19.3,17.36,0
4163,61.5,3.5,22.57,0
4164,61.52,16.32,1.43,0
4165,61.53,-1.92,-20.75,0
4166,61.54,-10.34,-13.1,0
4167,61.56,4.45,5.1,0
4168,61.57,9.94,0.57,0
4169,61.59,0.78,-14.2,0
4170,61.6,-4.11,-15.39,0
4171,61.61,-6.06,-10.02,0
4172,61.63,-11.56,-7.86,0
4173,61.64,-12.19,-5.75,0
4174,61.65,0.04,-7.26,0
4175,61.67,14.36,-11.53,0
4176,61.68,11.59,-9.2,0
4177,61.69,-3.15,-5.75,0
4178,61.71,-5.18,-11.82,0
4179,61.72,1.21,-20.82,0
4180,61.73,-2.1,-20.56,0
4181,61.75,-2.12,-15.03,0
4182,61.76,10.55,-15.98,0
4183,61.77,12.76,-19.75,0
4184,61.79,-3.26,-16.03,0
4185,61.8,-15.52,-13.14,0
4186,61.81,-10.63,-19.89,0
4187,61.83,2.69,-25.7,0
4188,61.84,4.31,-25.57,0
4189,61.85,-6.18,-21.09,0
4190,61.86,-7.87,-9.33,0
4191,61.88,-3.5,-3.54,0
4192,61.89,-1.69,-11.93,0
4193,61.9,13.37,-16.97,0
4194,61.92,32.67,-11.08,0
4195,61.93,24.82,-9.48,0
4196,61.94,-0.45,-21.97,0
4197,61.96,-11.14,-31.72,0
4198,61.97,-4.23,-22.19,0
4199,61.98,3.73,-14.44,0
4200,62.0,3.71,-24.37,0
4201,62.01,-0.22,-31.33,0
4202,62.02,1.07,-23.96,0
4203,62.04,4.76,-12.74,0
4204,62.05,1.04,-12.53,0
4205,62.06,-5.35,-22.43,0
4206,62.08,-7.69,-22.39,0
4207,62.09,-11.69,-13.25,0
4208,62.1,-10.21,-13.91,1
4209,62.12,9.12,-21.26,1
4210,62.13,23.03,-20.76,1
4211,62.14,6.76,-12.05,1
4212,62.16,-13.34,5.81,1
4213,62.17,-7.74,47.37,1
4214,62.19,6.51,99.14,1
4215,62.2,5.6,101.77,1
4216,62.21,-2.36,60.92,1
4217,62.22,-1.13,63.41,1
4218,62.24,-0.81,78.15,1
4219,62.25,-3.0,36.98,1
4220,62.27,26.7,34.8,1
4221,62.28,67.75,97.43,1
4222,62.29,50.64,91.79,1
4223,62.31,3.34,16.06,1
4224,62.32,4.3,5.13,1
4225,62.33,21.2,57.34,1
4226,62.35,-10.37,44.09,1
4227,62.36,-46.33,-57.48,1
4228,62.37,-33.7,-135.86,1
4229,62.38,-8.86,-105.42,1
4230,62.4,-5.28,-1.79,1
4231,62.41,-0.04,72.47,1
4232,62.43,29.95,54.84,1
4233,62.44,52.33,-20.61,1
4234,62.45,8.69,-104.95,1
4235,62.47,-67.81,-199.24,1
4236,62.48,-79.86,-237.41,1
4237,62.49,-31.45,-165.13,1
4238,62.5,6.21,-96.59,1
4239,62.52,17.24,-102.23,1
4240,62.53,0.4,-99.42,1
4241,62.54,-42.36,-56.66,1
4242,62.56,-57.92,-45.26,1
4243,62.57,-23.25,-99.76,1
4244,62.58,9.74,-146.41,1
4245,62.6,7.7,-139.56,1
4246,62.61,-6.16,-122.52,1
4247,62.62,-7.24,-86.86,1
4248,62.64,4.44,-13.29,1
4249,62.65,16.19,27.8,1
4250,62.66,10.68,-14.68,1
4251,62.68,-7.62,-75.54,1
4252,62.69,-13.28,-41.78,1
4253,62.7,-7.74,50.55,1
4254,62.72,-6.36,51.14,1
4255,62.73,-3.86,-11.56,1
4256,62.74,1.01,-14.09,1
4257,62.76,1.05,-1.37,1
4258,62.77,-3.48,-20.44,1
4259,62.78,-11.56,17.89,1
4260,62.8,-7.68,102.1,1
4261,62.81,20.72,109.56,1
4262,62.83,34.78,41.91,1
4263,62.84,2.28,-23.49,1
4264,62.85,-31.6,-42.19,1
4265,62.87,-24.61,-5.31,1
4266,62.88,-7.06,22.62,1
4267,62.89,-9.42,3.74,1
4268,62.9,-13.51,6.68,1
4269,62.92,-6.47,45.55,0
4270,62.93,2.55,42.43,0
4271,62.95,8.13,-1.64,0
4272,62.96,8.65,-18.91,0
4273,62.97,9.76,7.69,0
4274,62.99,14.86,59.59,0
4275,63.0,17.52,90.13,0
4276,63.01,18.44,61.08,0
4277,63.03,19.93,19.66,0
4278,63.04,15.72,16.85,0
4279,63.05,1.17,23.35,0
4280,63.06,-3.32,19.32,0
4281,63.08,23.47,41.45,0
4282,63.09,48.33,76.45,0
4283,63.11,35.84,63.68,0
4284,63.12,8.12,38.44,0
4285,63.13,-4.09,74.38,0
4286,63.14,2.71,127.62,0
4287,63.16,9.27,122.1,0
4288,63.17,-2.2,74.25,0
4289,63.18,-16.13,39.73,0
4290,63.2,-6.67,27.15,0
4291,63.21,17.33,6.62,0
4292,63.22,19.37,-15.26,0
4293,63.24,-7.43,-14.94,0
4294,63.25,-21.77,-4.36,0
4295,63.26,-4.2,22.04,0
4296,63.28,3.06,60.89,0
4297,63.29,-16.91,53.05,0
4298,63.3,-24.2,-5.87,0
4299,63.32,-12.11,-24.03,0
4300,63.33,1.86,37.06,0
4301,63.34,19.58,69.03,0
4302,63.36,20.13,3.49,0
4303,63.37,-10.56,-34.86,0
4304,63.38,-30.32,29.09,0
4305,63.4,-2.77,65.18,0
4306,63.41,38.85,14.87,0
4307,63.42,35.97,1.51,0
4308,63.44,-2.57,41.46,0
4309,63.45,-15.84,32.53,0
4310,63.46,8.87,8.37,0
4311,63.48,23.02,27.5,0
4312,63.49,2.94,19.75,0
4313,63.51,-20.27,-23.05,0
4314,63.52,-19.62,-4.41,0
4315,63.53,-0.94,58.43,0
4316,63.54,12.94,62.48,0
4317,63.56,2.15,23.99,0
4318,63.57,-27.06,3.63,0
4319,63.59,-39.48,-13.73,0
4320,63.6,-17.32,-20.85,0
4321,63.61,8.59,3.85,0
4322,63.63,13.97,22.76,0
4323,63.64,11.29,16.17,0
4324,63.65,5.26,-1.78,0
4325,63.67,-4.15,-25.42,0
4326,63.68,-4.21,-37.77,0
4327,63.69,7.69,-26.1,0
4328,63.71,21.79,-13.28,0
4329,63.72,17.18,-22.9,0
4330,63.73,-13.35,-32.48,0
4331,63.75,-29.21,-9.66,0
4332,63.76,-6.9,7.79,0
4333,63.77,16.14,-8.18,0
4334,63.78,13.26,-0.52,0
4335,63.8,7.32,14.9,0
4336,63.81,21.77,-23.73,0
4337,63.82,26.96,-30.8,0
4338,63.84,-8.56,36.25,0
4339,63.85,-43.48,48.99,0
4340,63.86,-35.31,2.59,0
4341,63.88,-6.65,8.96,0
4342,63.89,15.47,24.31,0
4343,63.9,25.06,-31.8,0
4344,63.92,20.07,-77.69,0
4345,63.93,13.25,-28.13,0
4346,63.94,14.22,32.4,0
4347,63.96,9.69,15.32,0
4348,63.97,-4.12,-14.32,0
4349,63.98,-13.78,-3.09,0
4350,64.0,-18.68,3.24,0
4351,64.01,-15.99,-18.07,0
4352,64.02,0.67,-56.35,0
4353,64.04,5.79,-75.6,0
4354,64.05,-16.79,-38.32,0
4355,64.06,-30.77,-12.31,0
4356,64.08,-7.05,-49.54,0
4357,64.09,15.33,-75.89,0
4358,64.1,-2.82,-46.32,0
4359,64.12,-16.53,5.23,1
4360,64.13,4.77,17.5,1
4361,64.14,9.04,-23.7,1
4362,64.16,-17.4,-41.0,1
4363,64.17,-21.73,-23.94,1
4364,64.18,8.5,-33.06,1
4365,64.2,27.12,-53.59,1
4366,64.21,6.13,-58.96,1
4367,64.22,-18.48,-65.49,1
4368,64.24,-12.86,-82.68,1
4369,64.25,-1.99,-95.52,1
4370,64.26,-2.14,-85.29,1
4371,64.28,6.7,-78.35,1
4372,64.29,19.93,-115.55,1
4373,64.3,12.23,-145.78,1
4374,64.32,-15.07,-75.93,1
4375,64.33,-26.67,42.3,1
4376,64.34,-5.74,67.66,1
4377,64.36,17.66,14.13,1
4378,64.37,26.37,3.56,1
4379,64.38,34.76,48.06,1
4380,64.4,39.62,77.01,1
4381,64.41,29.42,76.45,1
4382,64.42,16.16,76.97,1
4383,64.44,10.85,75.26,1
4384,64.45,7.71,57.13,1
4385,64.46,3.09,45.75,1
4386,64.48,-3.83,58.22,1
4387,64.49,-16.62,67.92,1
4388,64.5,-26.4,52.95,1
4389,64.52,-21.9,29.05,1
4390,64.53,-15.49,15.67,1
4391,64.54,-20.22,12.31,1
4392,64.56,-24.93,8.8,1
4393,64.57,-17.33,1.07,1
4394,64.58,-2.87,-0.96,1
4395,64.6,1.81,7.78,1
4396,64.61,-8.9,15.15,1
4397,64.62,-14.96,17.45,1
4398,64.64,-3.25,25.25,1
4399,64.65,7.27,29.39,1
4400,64.66,-0.64,13.78,1
4401,64.68,-14.87,-1.64,1
4402,64.69,-17.51,6.0,1
4403,64.7,-11.36,21.39,1
4404,64.72,-6.18,24.44,1
4405,64.73,-2.59,17.86,1
4406,64.74,-1.73,12.09,1
4407,64.76,-8.08,11.25,1
4408,64.77,-13.79,12.64,1
4409,64.79,-3.98,13.2,1
4410,64.8,13.69,12.82,1
4411,64.81,13.7,10.55,1
4412,64.82,-2.04,3.03,1
4413,64.84,-8.6,-7.0,1
4414,64.85,-5.72,-3.44,1
4415,64.86,-10.4,15.41,1
4416,64.88,-14.78,21.21,1
4417,64.89,-0.26,5.13,1
4418,64.9,18.35,-1.43,0
4419,64.92,10.49,13.16,0
4420,64.93,-14.28,21.61,0
4421,64.94,-22.45,15.26,0
4422,64.96,-10.65,10.72,0
4423,64.97,4.38,9.55,0
4424,64.98,14.68,6.97,0
4425,65.0,19.58,5.69,0
4426,65.01,19.08,5.74,0
4427,65.02,12.38,3.47,0
4428,65.04,2.63,-4.49,0
4429,65.05,-2.88,-12.13,0
4430,65.06,-1.27,-9.75,0
4431,65.08,5.16,-5.05,0
4432,65.09,11.47,-9.49,0
4433,65.1,12.7,-14.16,0
4434,65.12,9.06,-11.73,0
4435,65.13,2.51,-16.28,0
4436,65.14,-5.09,-23.59,0
4437,65.16,-5.79,-11.54,0
4438,65.17,0.66,0.52,0
4439,65.18,-0.34,-10.92,0
4440,65.2,-4.89,-21.01,0
4441,65.21,3.79,-16.66,0
4442,65.22,11.89,-16.04,0
4443,65.24,2.4,-19.75,0
4444,65.25,-7.92,-20.22,0
4445,65.26,-5.66,-19.37,0
4446,65.28,1.35,-17.31,0
4447,65.29,7.27,-17.48,0
4448,65.3,8.0,-20.53,0
4449,65.32,-1.44,-15.97,0
4450,65.33,-11.11,-8.45,0
4451,65.34,-4.69,-15.15,0
4452,65.36,12.14,-25.12,0
4453,65.37,15.02,-12.95,0
4454,65.38,-0.52,10.1,0
4455,65.4,-11.18,8.92,0
4456,65.41,-3.81,-13.49,0
4457,65.42,7.81,-22.13,0
4458,65.44,7.16,-11.71,0
4459,65.45,0.55,-4.14,0
4460,65.46,1.54,-2.77,0
4461,65.48,3.28,-1.06,0
4462,65.49,-2.41,-9.24,0
4463,65.5,-4.33,-25.94,0
4464,65.52,2.85,-26.69,0
4465,65.53,8.02,-11.04,0
4466,65.54,5.21,0.55,0
4467,65.56,-1.9,6.09,0
4468,65.57,-5.36,10.71,0
4469,65.58,2.06,10.0,0
4470,65.6,15.86,-1.92,0
4471,65.61,23.0,-20.0,0
4472,65.62,16.13,-21.54,0
4473,65.64,0.28,-1.22,0
4474,65.65,-12.04,8.89,0
4475,65.66,-11.82,1.56,0
4476,65.68,-1.64,2.94,0
4477,65.69,7.73,7.85,0
4478,65.7,7.33,-2.74,0
4479,65.72,-2.64,-16.85,0
4480,65.73,-9.42,-18.83,0
4481,65.74,-1.19,-12.07,0
4482,65.76,9.22,-0.81,0
4483,65.77,3.52,11.38,0
4484,65.78,-10.76,12.09,0
4485,65.8,-17.03,1.71,0
4486,65.81,-12.82,-2.47,0
4487,65.82,-4.81,-0.29,0
4488,65.84,-2.42,-3.6,0
4489,65.85,-8.62,-9.73,0
4490,65.86,-7.84,-6.98,0
4491,65.88,7.68,7.53,0
4492,65.89,16.46,21.22,0
4493,65.9,10.78,19.84,0
4494,65.92,5.67,6.49,0
4495,65.93,3.9,-3.06,0
4496,65.94,-0.71,-2.33,0
4497,65.96,-5.36,3.67,0
4498,65.97,-1.61,10.14,0
4499,65.98,5.91,13.55,0
4500,66.0,-0.6,12.77,0
4501,66.01,-16.65,9.22,0
4502,66.02,-17.81,3.92,0
4503,66.04,-7.91,1.96,0
4504,66.05,-9.29,4.4,0
4505,66.06,-14.77,2.19,0
4506,66.08,-9.56,-6.44,0
4507,66.09,-7.8,-12.71,0
4508,66.11,-11.87,-11.0,1
4509,66.12,2.37,-2.59,1
4510,66.13,27.11,7.79,1
4511,66.14,26.75,16.5,1
4512,66.16,7.43,20.14,1
4513,66.17,3.4,17.43,1
4514,66.18,13.58,6.03,1
4515,66.2,14.96,-31.4,1
4516,66.21,7.27,-90.06,1
4517,66.22,4.34,-123.61,1
4518,66.24,6.89,-122.27,1
4519,66.25,7.85,-123.87,1
4520,66.26,12.21,-131.16,1
4521,66.28,23.04,-120.78,1
4522,66.29,32.74,-100.62,1
4523,66.3,34.9,-84.27,1
4524,66.32,19.75,-66.38,1
4525,66.33,-5.25,-52.88,1
4526,66.34,-11.23,-48.82,1
4527,66.36,-2.91,-35.04,1
4528,66.37,-7.4,-2.84,1
4529,66.38,-12.46,35.63,1
4530,66.4,0.53,64.87,1
4531,66.41,10.9,75.07,1
4532,66.42,3.81,79.8,1
4533,66.44,-3.38,97.05,1
4534,66.45,-5.38,115.95,1
4535,66.46,-11.24,121.09,1
4536,66.48,-13.84,120.64,1
4537,66.49,-5.55,124.06,1
4538,66.5,0.45,123.07,1
4539,66.52,-7.38,113.46,1
4540,66.53,-15.33,107.81,1
4541,66.54,-8.86,113.29,1
4542,66.56,-2.42,118.27,1
4543,66.57,-4.44,112.69,1
4544,66.58,1.53,104.28,1
4545,66.6,8.26,102.05,1
4546,66.61,-5.16,100.33,1
4547,66.62,-18.98,94.2,1
4548,66.64,-15.66,87.73,1
4549,66.65,-15.0,81.25,1
4550,66.66,-19.5,72.94,1
4551,66.68,-15.82,65.4,1
4552,66.69,-8.98,60.42,1
4553,66.7,-4.58,54.93,1
4554,66.72,-7.46,46.29,1
4555,66.73,-13.65,40.82,1
4556,66.75,-4.57,44.37,1
4557,66.76,7.16,46.51,1
4558,66.77,-4.09,30.47,1
4559,66.79,-19.7,1.75,1
4560,66.8,-11.67,-14.27,1
4561,66.81,6.76,-12.8,1
4562,66.82,8.42,-12.86,1
4563,66.84,-1.36,-19.43,1
4564,66.85,-4.15,-20.59,1
4565,66.86,-4.91,-14.97,1
4566,66.88,-9.94,-16.04,1
4567,66.89,-9.5,-26.93,1
4568,66.9,-2.49,-33.92,0
4569,66.92,0.5,-32.23,0
4570,66.93,-6.14,-31.74,0
4571,66.94,-15.18,-35.18,0
4572,66.96,-13.3,-37.24,0
4573,66.97,1.86,-41.87,0
4574,66.98,15.68,-53.27,0
4575,67.0,12.86,-60.33,0
4576,67.01,-1.78,-56.34,0
4577,67.02,-10.24,-54.6,0
4578,67.04,-6.45,-60.39,0
4579,67.05,1.48,-62.69,0
4580,67.06,4.97,-63.24,0
4581,67.08,-2.87,-66.22,0
4582,67.09,-19.43,-62.91,0
4583,67.1,-21.64,-53.36,0
4584,67.12,-1.8,-47.76,0
4585,67.13,9.31,-50.68,0
4586,67.14,0.59,-57.6,0
4587,67.16,-2.96,-59.28,0
4588,67.17,7.1,-56.56,0
4589,67.18,16.6,-58.31,0
4590,67.2,13.74,-60.36,0
4591,67.21,2.48,-53.98,0
4592,67.22,-2.28,-45.88,0
4593,67.24,3.1,-44.0,0
4594,67.25,7.98,-43.31,0
4595,67.26,6.68,-37.6,0
4596,67.28,6.76,-31.89,0
4597,67.29,11.58,-35.85,0
4598,67.3,16.04,-42.77,0
4599,67.32,14.4,-37.54,0
4600,67.33,0.09,-26.77,0
4601,67.34,-16.43,-24.42,0
4602,67.36,-12.73,-27.53,0
4603,67.37,1.54,-31.47,0
4604,67.38,3.27,-32.48,0
4605,67.4,2.6,-22.27,0
4606,67.41,14.95,-10.02,0
4607,67.43,24.98,-13.81,0
4608,67.44,14.01,-24.15,0
4609,67.45,-5.09,-22.42,0
4610,67.46,-8.22,-14.79,0
4611,67.48,0.64,-15.49,0
4612,67.49,1.78,-22.91,0
4613,67.5,-3.08,-23.6,0
4614,67.52,0.37,-12.14,0
4615,67.53,10.28,-0.84,0
4616,67.54,16.61,-1.04,0
4617,67.56,14.47,-6.66,0
4618,67.57,3.81,-8.38,0
4619,67.58,-4.25,-4.59,0
4620,67.6,-2.93,4.78,0
4621,67.61,-2.93,13.64,0
4622,67.62,-4.14,12.35,0
4623,67.64,3.54,6.67,0
4624,67.65,13.42,7.36,0
4625,67.66,18.9,9.72,0
4626,67.68,20.12,6.26,0
4627,67.69,11.64,1.45,0
4628,67.7,-1.09,2.37,0
4629,67.72,-2.28,6.48,0
4630,67.73,3.95,7.84,0
4631,67.74,1.66,7.97,0
4632,67.76,-2.11,7.24,0
4633,67.77,1.07,3.34,0
4634,67.78,-2.66,4.76,0
4635,67.8,-11.08,17.4,0
4636,67.81,-5.47,27.84,0
4637,67.82,9.69,25.57,0
4638,67.84,13.37,19.2,0
4639,67.85,1.67,19.8,0
4640,67.86,-5.43,27.79,0
4641,67.88,-0.65,32.36,0
4642,67.89,-2.88,23.61,0
4643,67.9,-14.73,11.77,0
4644,67.92,-16.1,12.71,0
4645,67.93,-4.18,16.91,0
4646,67.94,5.26,12.68,0
4647,67.96,6.9,8.3,0
4648,67.97,6.01,10.54,0
4649,67.98,2.79,23.88,0
4650,68.0,-3.05,61.49,0
4651,68.01,-3.9,126.84,0
4652,68.02,2.47,202.71,0
4653,68.04,9.02,270.97,0
4654,68.05,9.98,324.81,0
4655,68.06,1.58,353.88,0
4656,68.08,-10.0,335.99,0
4657,68.09,-14.84,259.57,0
4658,68.11,-19.66,154.54,1
4659,68.12,-24.67,66.84,1
4660,68.13,-16.89,4.71,1
4661,68.14,-2.79,-44.78,1
4662,68.16,1.1,-83.39,1
4663,68.17,-5.25,-115.04,1
4664,68.18,-7.56,-146.9,1
4665,68.2,0.38,-180.36,1
4666,68.21,2.54,-211.27,1
4667,68.22,-12.69,-228.8,1
4668,68.24,-27.99,-229.27,1
4669,68.25,-21.83,-228.82,1
4670,68.26,-3.26,-231.42,1
4671,68.28,5.0,-218.48,1
4672,68.29,14.24,-184.77,1
4673,68.3,40.11,-147.89,1
4674,68.32,53.9,-124.05,1
4675,68.33,33.05,-117.56,1
4676,68.34,-0.28,-117.88,1
4677,68.36,-19.96,-104.89,1
4678,68.37,-18.88,-78.78,1
4679,68.38,-1.15,-65.13,1
4680,68.4,19.73,-75.58,1
4681,68.41,25.91,-89.82,1
4682,68.42,11.5,-87.81,1
4683,68.44,-5.32,-69.24,1
4684,68.45,-7.9,-41.78,1
4685,68.46,-0.92,-14.55,1
4686,68.48,14.38,4.83,1
4687,68.49,33.68,17.99,1
4688,68.5,27.4,30.18,1
4689,68.52,-7.49,36.89,1
4690,68.53,-26.99,29.76,1
4691,68.54,-13.12,20.64,1
4692,68.56,4.76,27.7,1
4693,68.57,8.51,42.4,1
4694,68.58,13.23,48.3,1
4695,68.6,23.91,48.21,1
4696,68.61,15.59,52.04,1
4697,68.62,-16.75,60.95,1
4698,68.64,-36.88,64.56,1
4699,68.65,-26.49,56.46,1
4700,68.66,-8.68,44.5,1
4701,68.68,0.47,39.3,1
4702,68.69,6.25,41.42,1
4703,68.7,8.65,48.61,1
4704,68.72,3.12,65.81,1
4705,68.73,-4.87,83.21,1
4706,68.75,-10.57,76.09,1
4707,68.76,-14.77,50.65,1
4708,68.77,-17.79,42.03,1
4709,68.79,-17.93,58.34,1
4710,68.8,-7.22,71.74,1
4711,68.81,8.79,65.11,1
4712,68.82,5.68,51.6,1
4713,68.84,-13.13,47.84,1
4714,68.85,-20.91,49.47,1
4715,68.86,-16.87,45.52,1
4716,68.88,-9.12,42.86,1
4717,68.89,6.06,49.08,1
4718,68.9,16.68,50.12,0
4719,68.92,8.84,37.73,0
4720,68.93,-5.39,31.43,0
4721,68.94,-11.99,41.43,0
4722,68.96,-11.93,46.71,0
4723,68.97,-11.85,35.3,0
4724,68.98,-12.5,22.47,0
4725,69.0,-7.42,21.89,0
4726,69.01,-0.27,30.79,0
4727,69.02,-2.46,34.99,0
4728,69.04,-13.45,26.19,0
4729,69.05,-19.62,13.96,0
4730,69.06,-9.31,5.96,0
4731,69.08,9.92,4.56,0
4732,69.09,22.6,16.23,0
4733,69.1,23.14,30.14,0
4734,69.12,10.12,28.22,0
4735,69.13,-7.18,14.69,0
4736,69.14,-10.12,4.33,0
4737,69.16,0.67,4.81,0
4738,69.17,5.32,10.18,0
4739,69.18,-0.68,11.24,0
4740,69.2,-2.13,12.9,0
4741,69.21,4.17,14.52,0
4742,69.22,7.57,3.66,0
4743,69.24,5.67,-8.19,0
4744,69.25,1.79,-2.5,0
4745,69.26,-3.36,5.29,0
4746,69.28,-8.8,-2.94,0
4747,69.29,-9.79,-7.88,0
4748,69.3,-2.69,2.81,0
4749,69.32,5.28,3.7,0
4750,69.33,2.03,-8.88,0
4751,69.34,-8.15,-9.85,0
4752,69.36,-8.13,-7.01,0
4753,69.37,3.15,-16.5,0
4754,69.38,11.68,-18.11,0
4755,69.4,10.98,-5.38,0
4756,69.41,8.54,-3.04,0
4757,69.43,10.56,-7.11,0
4758,69.44,12.85,-0.35,0
4759,69.45,12.08,1.51,0
4760,69.46,7.74,-14.09,0
4761,69.48,1.09,-25.07,0
4762,69.49,-0.05,-19.51,0
4763,69.5,5.13,-19.71,0
4764,69.52,7.96,-31.33,0
4765,69.53,5.43,-28.05,0
4766,69.54,0.66,-11.54,0
4767,69.56,-2.94,-12.45,0
4768,69.57,-1.36,-28.87,0
4769,69.58,0.37,-33.62,0
4770,69.6,-6.49,-25.13,0
4771,69.61,-11.38,-17.42,0
4772,69.62,-1.23,-13.1,0
4773,69.64,10.25,-12.79,0
4774,69.65,6.07,-15.57,0
4775,69.66,-6.84,-17.18,0
4776,69.68,-11.37,-21.92,0
4777,69.69,-2.33,-28.38,0
4778,69.7,6.49,-24.32,0
4779,69.72,-0.56,-13.71,0
4780,69.73,-12.67,-12.69,0
4781,69.74,-7.17,-22.14,0
4782,69.76,5.29,-29.02,0
4783,69.77,0.02,-27.57,0
4784,69.78,-11.21,-27.71,0
4785,69.8,-8.45,-28.74,0
4786,69.81,-3.42,-14.34,0
4787,69.82,-5.1,2.83,0
4788,69.84,-0.84,-8.13,0
4789,69.85,6.94,-29.92,0
4790,69.86,4.6,-26.21,0
4791,69.88,-1.56,-13.57,0
4792,69.89,-1.46,-20.04,0
4793,69.9,3.42,-25.84,0
4794,69.92,10.8,-10.7,0
4795,69.93,12.69,0.24,0
4796,69.94,1.18,-12.09,0
4797,69.96,-10.35,-22.42,0
4798,69.97,-4.38,-14.72,0
4799,69.98,11.32,-6.66,0
4800,70.0,12.32,-6.58,0
4801,70.01,-4.41,-8.56,0
4802,70.02,-13.21,-11.4,0
4803,70.04,-2.1,-13.51,0
4804,70.05,5.08,-11.41,0
4805,70.06,-5.34,-4.13,0
4806,70.08,-12.93,2.0,0
4807,70.09,-14.11,1.74,0
4808,70.11,-24.39,2.99,1
4809,70.12,-26.74,6.32,1
4810,70.13,-4.89,-3.14,1
4811,70.14,12.56,-17.13,1
4812,70.16,6.01,-10.88,1
4813,70.17,-1.48,-6.26,1
4814,70.18,4.52,-29.59,1
4815,70.2,9.01,-23.97,1
4816,70.21,11.85,20.87,1
4817,70.22,23.43,51.89,1
4818,70.24,30.17,148.27,1
4819,70.25,23.78,299.69,1
4820,70.26,16.11,273.51,1
4821,70.28,13.04,80.65,1
4822,70.29,17.99,1.1,1
4823,70.3,19.26,58.17,1
4824,70.32,-2.61,49.33,1
4825,70.33,-20.81,-38.77,1
4826,70.34,-6.54,-97.16,1
4827,70.36,8.78,-96.93,1
4828,70.37,-0.7,-53.67,1
4829,70.38,-14.45,-26.95,1
4830,70.4,-3.7,-36.19,1
4831,70.41,28.64,-21.55,1
4832,70.42,35.13,-7.89,1
4833,70.44,-2.71,-42.94,1
4834,70.45,-25.94,-57.19,1
4835,70.46,-8.17,-25.59,1
4836,70.48,-3.11,-36.01,1
4837,70.49,-19.64,-79.6,1
4838,70.5,-10.76,-78.69,1
4839,70.52,4.53,-60.55,1
4840,70.53,-16.04,-61.07,1
4841,70.54,-31.0,-64.66,1
4842,70.56,-3.52,-77.09,1
4843,70.57,19.19,-94.38,1
4844,70.58,7.85,-97.88,1
4845,70.6,-5.12,-113.35,1
4846,70.61,-2.18,-145.75,1
4847,70.62,1.83,-121.8,1
