,Unnamed: 0,Timestamp,Data1,Data2,Label
0,0,6.0,2.58,-28.32,0
1,1,6.01,-0.32,42.77,0
2,2,6.03,19.5,2.92,0
3,3,6.04,-13.49,-33.41,0
4,4,6.05,-48.06,26.69,0
5,5,6.07,-14.11,-8.04,0
6,6,6.08,0.79,-32.25,0
7,7,6.09,-22.28,29.77,0
8,8,6.11,-10.71,-15.69,0
9,9,6.12,-0.05,-44.73,0
10,10,6.13,-14.68,23.52,0
11,11,6.15,-9.97,-21.19,0
12,12,6.16,1.06,-53.86,0
13,13,6.17,24.31,24.56,0
14,14,6.19,56.8,7.76,0
15,15,6.2,36.45,40.52,0
16,16,6.21,19.1,213.83,0
17,17,6.23,45.87,210.2,0
18,18,6.24,24.89,129.72,0
19,19,6.25,-2.73,241.3,0
20,20,6.27,42.8,328.72,0
21,21,6.28,66.25,276.92,0
22,22,6.29,23.36,264.22,0
23,23,6.31,-9.7,286.13,0
24,24,6.32,-28.22,244.25,0
25,25,6.33,-45.53,178.01,0
26,26,6.35,-42.24,144.56,0
27,27,6.36,-65.65,123.53,0
28,28,6.37,-106.3,90.34,0
29,29,6.39,-69.92,56.85,0
30,30,6.4,-1.1,32.29,0
31,31,6.41,-3.76,9.98,0
32,32,6.43,-44.9,-13.62,0
33,33,6.44,-39.19,-35.32,0
34,34,6.45,26.0,-54.32,0
35,35,6.47,67.02,-71.9,0
36,36,6.48,14.11,-87.96,0
37,37,6.49,-33.83,-101.74,0
38,38,6.51,11.63,-114.0,0
39,39,6.52,25.18,-125.49,0
40,40,6.53,-42.55,-135.66,0
41,41,6.55,-57.43,-144.2,0
42,42,6.56,-5.36,-151.28,0
43,43,6.57,32.26,-157.45,0
44,44,6.59,20.85,-162.8,0
45,45,6.6,-26.27,-166.83,0
46,46,6.61,-26.97,-170.11,0
47,47,6.63,9.78,-172.98,0
48,48,6.64,-16.0,-174.62,0
49,49,6.65,-53.67,-174.69,0
50,50,6.67,-19.41,-174.58,0
51,51,6.68,32.78,-174.53,0
52,52,6.69,55.37,-173.23,0
53,53,6.71,44.92,-170.39,0
54,54,6.72,5.77,-167.27,0
55,55,6.73,2.69,-164.34,0
56,56,6.75,47.45,-160.76,0
57,57,6.76,51.19,-156.57,0
58,58,6.77,19.61,-151.95,0
59,59,6.79,18.42,-147.49,0
60,60,6.8,11.62,-142.55,0
61,61,6.81,-6.13,-136.59,0
62,62,6.82,13.06,-130.01,0
63,63,6.84,18.98,-123.81,0
64,64,6.85,-14.12,-118.25,0
65,65,6.86,-36.81,-112.21,0
66,66,6.88,-58.87,-105.09,0
67,67,6.89,-65.34,-97.66,0
68,68,6.91,-4.43,-90.6,0
69,69,6.92,58.44,-83.8,0
70,70,6.93,60.46,-76.86,0
71,71,6.95,50.62,-70.22,0
72,72,6.96,20.5,-63.73,0
73,73,6.97,-35.86,-57.02,0
74,74,6.99,-17.24,-50.02,0
75,75,7.0,53.65,-42.85,0
76,76,7.01,52.15,-35.95,0
77,77,7.03,-0.52,-29.57,0
78,78,7.04,-33.61,-23.18,0
79,79,7.05,-34.0,-16.75,0
80,80,7.07,10.44,-10.72,0
81,81,7.08,48.93,-4.29,0
82,82,7.09,27.24,1.99,0
83,83,7.11,2.62,7.66,0
84,84,7.12,3.24,13.02,0
85,85,7.13,-3.91,18.44,0
86,86,7.15,-12.96,23.73,0
87,87,7.16,-19.78,29.28,0
88,88,7.17,-19.78,34.36,0
89,89,7.19,4.56,38.73,0
90,90,7.2,14.02,43.2,0
91,91,7.21,-13.46,47.78,0
92,92,7.23,-28.45,51.66,0
93,93,7.24,-27.55,55.27,0
94,94,7.25,-29.63,59.3,0
95,95,7.27,-6.63,63.54,0
96,96,7.28,25.86,66.82,0
97,97,7.29,34.26,69.17,0
98,98,7.31,30.39,71.03,0
99,99,7.32,2.38,73.6,0
100,100,7.33,-32.29,76.73,0
101,101,7.35,-21.33,78.99,0
102,102,7.36,-10.23,80.41,0
103,103,7.37,-25.65,81.55,0
104,104,7.39,-11.67,83.01,0
105,105,7.4,11.28,84.63,0
106,106,7.41,8.94,85.7,0
107,107,7.43,-5.38,85.91,0
108,108,7.44,-26.46,85.84,0
109,109,7.45,-5.67,85.93,0
110,110,7.47,41.0,86.11,0
111,111,7.48,10.07,86.52,0
112,112,7.49,-33.15,87.02,0
113,113,7.51,9.39,86.74,0
114,114,7.52,29.36,86.24,0
115,115,7.53,-7.39,86.07,0
116,116,7.55,-0.6,85.44,0
117,117,7.56,9.92,84.18,0
118,118,7.57,-5.78,83.35,0
119,119,7.59,15.71,82.66,0
120,120,7.6,24.85,80.93,0
121,121,7.61,-0.52,78.73,0
122,122,7.63,10.33,77.12,0
123,123,7.64,22.88,75.39,0
124,124,7.65,0.33,73.74,0
125,125,7.67,-22.66,72.67,0
126,126,7.68,-46.46,70.37,0
127,127,7.69,-34.46,48.1,0
128,128,7.71,25.24,-10.03,0
129,129,7.72,27.03,-43.91,0
130,130,7.73,-9.0,-30.12,0
131,131,7.75,24.97,-90.25,0
132,132,7.76,60.29,-169.96,0
133,133,7.77,29.32,-128.29,0
134,134,7.79,-17.59,-170.99,0
135,135,7.8,-49.53,-312.2,0
136,136,7.81,-27.4,-222.98,0
137,137,7.83,26.41,-57.26,0
138,138,7.84,5.55,-102.02,0
139,139,7.85,-42.02,-176.08,0
140,140,7.87,-16.06,-189.53,0
141,141,7.88,20.6,-160.73,0
142,142,7.89,14.95,10.68,0
143,143,7.91,-13.59,85.29,0
144,144,7.92,-49.57,-63.76,0
145,145,7.93,-33.77,-46.94,0
146,146,7.95,20.01,98.45,0
147,147,7.96,3.23,21.11,0
148,148,7.97,-32.7,-73.26,0
149,149,7.99,9.6,51.31,0
150,150,8.0,38.89,204.58,0
151,151,8.01,5.35,213.45,0
152,152,8.03,-15.55,81.57,0
153,153,8.04,-25.1,-5.77,0
154,154,8.05,-31.53,101.38,0
155,155,8.07,-5.43,164.46,0
156,156,8.08,-0.27,76.61,0
157,157,8.09,-31.02,98.01,0
158,158,8.1,-20.33,171.26,0
159,159,8.12,10.9,145.7,0
160,160,8.13,4.88,201.37,0
161,161,8.15,6.86,325.81,0
162,162,8.16,33.8,336.87,0
163,163,8.17,40.23,265.06,0
164,164,8.19,18.58,151.94,0
165,165,8.2,-10.87,87.06,0
166,166,8.21,-11.55,192.76,0
167,167,8.23,20.21,256.24,0
168,168,8.24,21.51,146.7,0
169,169,8.25,-4.34,115.87,0
170,170,8.27,-0.27,147.84,0
171,171,8.28,13.26,68.7,0
172,172,8.29,20.08,12.62,0
173,173,8.31,36.69,-13.09,0
174,174,8.32,28.03,-124.39,0
175,175,8.33,-3.88,-193.52,0
176,176,8.35,-4.72,-200.7,0
177,177,8.36,2.54,-254.89,0
178,178,8.37,-7.8,-257.05,0
179,179,8.39,-0.15,-170.72,0
180,180,8.4,12.56,-106.84,0
181,181,8.41,11.55,-52.38,0
182,182,8.43,7.86,-6.57,0
183,183,8.44,-15.32,14.36,0
184,184,8.45,-27.61,99.18,0
185,185,8.47,-2.85,165.9,0
186,186,8.48,-2.91,130.27,0
187,187,8.49,-12.49,170.19,0
188,188,8.51,21.16,251.11,0
189,189,8.52,27.38,210.06,0
190,190,8.53,-8.25,189.42,0
191,191,8.55,-5.47,203.15,0
192,192,8.56,4.49,124.83,0
193,193,8.57,-17.39,105.91,0
194,194,8.59,-12.08,155.75,0
195,195,8.6,6.5,111.62,0
196,196,8.61,-11.43,87.26,0
197,197,8.63,-21.49,106.15,0
198,198,8.64,-6.83,55.16,0
199,199,8.65,-2.44,62.72,0
200,200,8.67,-6.13,106.2,0
201,201,8.68,-19.25,32.71,0
202,202,8.69,-22.44,8.24,0
203,203,8.71,9.58,59.71,0
204,204,8.72,12.37,4.84,0
205,205,8.73,-26.6,-29.53,0
206,206,8.75,-26.29,12.69,0
207,207,8.76,-6.7,-16.8,0
208,208,8.77,-14.92,-13.42,0
209,209,8.78,-13.45,32.48,0
210,210,8.8,-6.66,-35.06,0
211,211,8.81,-13.69,-64.2,0
212,212,8.82,-3.55,-10.07,0
213,213,8.84,6.61,-52.97,0
214,214,8.85,-5.78,-74.85,0
215,215,8.87,-4.66,-29.9,0
216,216,8.88,1.85,-82.12,0
217,217,8.89,-11.54,-100.62,0
218,218,8.91,-11.9,-44.56,0
219,219,8.92,-1.35,-92.31,0
220,220,8.93,-6.4,-110.42,0
221,221,8.95,-6.29,-50.52,0
222,222,8.96,-11.55,-94.96,0
223,223,8.97,-30.81,-110.23,0
224,224,8.99,-15.84,-46.76,0
225,225,9.0,11.71,-98.36,0
226,226,9.01,3.57,-133.23,0
227,227,9.03,-0.69,-82.16,0
228,228,9.04,9.77,-127.77,0
229,229,9.05,2.89,-145.21,0
230,230,9.07,-3.59,-81.64,0
231,231,9.08,-9.15,-132.22,0
232,232,9.09,-22.97,-156.28,0
233,233,9.11,-10.94,-81.25,0
234,234,9.12,12.08,-118.91,0
235,235,9.13,10.16,-149.27,0
236,236,9.15,9.28,-86.69,0
237,237,9.16,11.34,-124.18,0
238,238,9.17,0.89,-147.3,0
239,239,9.19,7.25,-86.98,0
240,240,9.2,18.53,-134.16,0
241,241,9.21,9.62,-152.57,0
242,242,9.23,12.4,-70.28,0
243,243,9.24,15.08,-107.14,0
244,244,9.25,-5.23,-137.82,0
245,245,9.27,-3.4,-64.0,0
246,246,9.28,8.53,-94.02,0
247,247,9.29,-5.14,-120.68,0
248,248,9.31,8.25,-55.52,0
249,249,9.32,44.08,-100.97,0
250,250,9.33,34.15,-138.37,0
251,251,9.35,5.83,-71.46,0
252,252,9.36,-4.37,-103.84,0
253,253,9.37,-10.26,-118.12,0
254,254,9.39,0.06,-31.96,0
255,255,9.4,10.77,-70.65,0
256,256,9.41,2.58,-106.87,0
257,257,9.43,8.19,-29.73,0
258,258,9.44,10.34,-67.07,0
259,259,9.45,-7.16,-108.17,0
260,260,9.47,1.32,-33.3,0
261,261,9.48,8.55,-61.56,0
262,262,9.49,-13.78,-93.68,0
263,263,9.51,-1.64,-11.64,0
264,264,9.52,28.66,-33.97,0
265,265,9.53,20.1,-73.27,0
266,266,9.55,12.83,-9.77,0
267,267,9.56,8.82,-39.56,0
268,268,9.57,-15.04,-64.86,0
269,269,9.59,-8.28,15.78,0
270,270,9.6,14.24,-18.87,0
271,271,9.61,5.59,-64.54,0
272,272,9.63,6.61,9.14,0
273,273,9.64,13.84,-13.75,0
274,274,9.65,-0.58,-42.93,0
275,275,9.67,11.12,41.4,0
276,276,9.68,28.29,10.19,0
277,277,9.69,2.3,-37.37,0
278,278,9.71,-9.19,49.6,0
279,279,9.72,6.0,31.76,0
280,280,9.73,4.1,-27.05,0
281,281,9.75,9.12,39.96,0
282,282,9.76,12.84,33.72,0
283,283,9.77,-8.35,0.51,0
284,284,9.79,-6.63,57.45,0
285,285,9.8,4.27,16.5,0
286,286,9.81,-14.86,-22.41,0
287,287,9.83,-8.98,63.71,0
288,288,9.84,16.59,40.14,0
289,289,9.85,4.41,-15.37,0
290,290,9.87,-4.53,53.72,0
291,291,9.88,0.21,40.83,0
292,292,9.89,-15.09,3.63,0
293,293,9.91,-10.16,68.92,0
294,294,9.92,5.21,35.59,0
295,295,9.93,-9.49,-6.8,0
296,296,9.95,-6.36,79.49,0
297,297,9.96,2.45,65.66,0
298,298,9.97,-25.28,15.56,0
299,299,9.99,-20.23,81.18,0
300,300,10.0,16.26,59.34,0
301,301,10.01,7.35,13.59,0
302,302,10.02,-6.05,88.38,0
303,303,10.04,5.57,75.78,0
304,304,10.05,0.7,26.27,0
305,305,10.06,3.47,80.88,0
306,306,10.08,9.97,51.62,0
307,307,10.09,-15.53,7.52,0
308,308,10.1,-16.6,80.17,0
309,309,10.12,2.83,57.27,0
310,310,10.13,-20.37,6.69,0
311,311,10.15,-28.19,81.12,0
312,312,10.16,-2.42,62.52,0
313,313,10.17,-8.87,2.49,0
314,314,10.19,-10.42,74.95,0
315,315,10.2,10.53,69.01,0
316,316,10.21,2.01,-4.03,0
317,317,10.23,-0.62,17.87,0
318,318,10.24,23.7,-30.21,0
319,319,10.25,38.11,-101.27,0
320,320,10.27,46.04,-46.36,0
321,321,10.28,24.89,-64.37,0
322,322,10.29,-12.43,-131.04,0
323,323,10.31,14.61,-76.58,0
324,324,10.32,41.23,-56.03,0
325,325,10.33,-2.23,-68.37,0
326,326,10.35,-7.38,-5.59,0
327,327,10.36,21.1,-6.44,0
328,328,10.37,-12.67,-8.99,0
329,329,10.39,-34.0,82.38,0
330,330,10.4,-13.65,59.0,0
331,331,10.41,-30.22,-5.98,0
332,332,10.43,-42.91,90.17,0
333,333,10.44,-24.32,151.05,0
334,334,10.45,-29.89,123.49,0
335,335,10.47,-18.27,160.42,0
336,336,10.48,24.84,154.25,0
337,337,10.49,22.4,118.44,0
338,338,10.51,1.37,177.2,0
339,339,10.52,-3.11,176.79,0
340,340,10.53,-26.7,127.24,0
341,341,10.55,-25.98,166.22,0
342,342,10.56,0.5,146.96,0
343,343,10.57,-17.86,88.92,0
344,344,10.59,-21.06,135.51,0
345,345,10.6,20.28,126.04,0
346,346,10.61,9.26,61.18,0
347,347,10.63,-22.64,94.4,0
348,348,10.64,-2.67,75.15,0
349,349,10.65,1.13,-0.59,0
350,350,10.67,-23.87,42.76,0
351,351,10.68,-23.01,70.36,0
352,352,10.69,-26.85,33.82,0
353,353,10.71,-31.9,69.16,0
354,354,10.72,-5.96,63.59,0
355,355,10.73,8.26,2.62,0
356,356,10.75,14.56,33.45,0
357,357,10.76,28.23,45.01,0
358,358,10.77,4.81,1.78,0
359,359,10.78,-13.36,23.77,0
360,360,10.8,19.63,11.76,0
361,361,10.81,30.86,-37.73,0
362,362,10.83,8.48,-3.25,0
363,363,10.84,2.79,-10.16,0
364,364,10.85,-5.5,-66.75,0
365,365,10.87,-11.12,-29.5,0
366,366,10.88,5.13,-24.59,0
367,367,10.89,2.32,-79.74,0
368,368,10.91,0.61,-45.38,0
369,369,10.92,29.68,-35.69,0
370,370,10.93,24.75,-85.04,0
371,371,10.95,-6.21,-42.38,0
372,372,10.96,-0.64,-23.5,0
373,373,10.97,0.88,-82.31,0
374,374,10.99,-16.64,-62.05,0
375,375,11.0,-13.85,-51.62,0
376,376,11.01,-15.12,-99.62,0
377,377,11.03,-16.76,-57.05,0
378,378,11.04,4.87,-26.13,0
379,379,11.05,5.98,-78.01,0
380,380,11.07,-3.21,-61.28,0
381,381,11.08,14.3,-46.75,0
382,382,11.09,15.31,-90.91,0
383,383,11.11,1.54,-54.42,0
384,384,11.12,8.66,-29.63,0
385,385,11.13,3.27,-85.69,0
386,386,11.15,-1.77,-64.56,0
387,387,11.16,23.81,-33.19,0
388,388,11.17,23.34,-74.45,0
389,389,11.19,-2.02,-52.38,0
390,390,11.2,-1.11,-30.84,0
391,391,11.21,-1.88,-81.6,0
392,392,11.23,-5.74,-54.86,0
393,393,11.24,9.4,-13.8,0
394,394,11.25,5.81,-56.43,0
395,395,11.27,-2.06,-38.83,0
396,396,11.28,13.07,-2.84,0
397,397,11.29,3.58,-47.7,0
398,398,11.31,-11.4,-37.31,0
399,399,11.32,12.73,-2.85,0
400,400,11.33,20.78,-43.66,0
401,401,11.35,4.67,-35.64,0
402,402,11.36,6.32,-7.54,0
403,403,11.37,-4.89,-45.89,0
404,404,11.39,-20.51,-24.4,0
405,405,11.4,-5.42,12.38,0
406,406,11.41,-2.34,-36.52,0
407,407,11.43,-3.77,-28.95,0
408,408,11.44,22.98,12.76,0
409,409,11.45,22.37,-21.27,0
410,410,11.47,-3.44,-9.03,0
411,411,11.48,-2.12,20.24,0
412,412,11.49,-0.92,-34.84,0
413,413,11.51,-0.58,-25.49,0
414,414,11.52,18.57,23.31,0
415,415,11.53,7.79,-24.85,0
416,416,11.55,-17.15,-30.88,0
417,417,11.56,1.15,8.29,0
418,418,11.57,18.2,-30.78,0
419,419,11.59,10.82,-16.23,0
420,420,11.6,14.83,36.01,0
421,421,11.61,11.5,-16.46,0
422,422,11.63,-1.27,-22.15,0
423,423,11.64,-3.15,36.75,0
424,424,11.65,-15.87,1.55,0
425,425,11.67,-12.05,-9.7,0
426,426,11.68,24.33,28.23,0
427,427,11.69,16.99,-15.03,0
428,428,11.71,-20.56,-12.03,0
429,429,11.72,-16.86,43.23,0
430,430,11.73,-15.12,0.33,0
431,431,11.75,-30.66,-4.61,0
432,432,11.76,-14.51,48.02,0
433,433,11.77,0.89,2.99,0
434,434,11.79,-1.75,-5.13,0
435,435,11.8,7.32,50.14,0
436,436,11.81,-2.21,6.73,0
437,437,11.83,-20.83,-8.1,0
438,438,11.84,-1.2,38.43,0
439,439,11.85,8.0,-5.38,0
440,440,11.87,-14.99,-8.11,0
441,441,11.88,-13.25,44.91,0
442,442,11.89,2.36,-16.42,0
443,443,11.91,7.58,-31.84,0
444,444,11.92,11.89,49.84,0
445,445,11.93,-5.0,28.84,0
446,446,11.94,-19.01,10.52,0
447,447,11.96,1.85,48.24,0
448,448,11.97,3.75,-8.28,0
449,449,11.98,-19.85,-18.28,0
450,450,12.0,-19.29,55.02,0
451,451,12.01,-15.9,17.29,0
452,452,12.02,-18.65,-3.13,0
453,453,12.04,-2.28,52.04,0
454,454,12.05,6.32,4.44,0
455,455,12.06,5.26,-11.15,0
456,456,12.08,16.07,60.7,0
457,457,12.09,7.26,19.23,0
458,458,12.1,-9.28,-13.45,0
459,459,12.12,2.51,38.78,0
460,460,12.13,7.72,-2.63,0
461,461,12.15,5.57,-14.44,0
462,462,12.16,22.78,59.57,0
463,463,12.17,16.4,20.04,0
464,464,12.19,-10.07,11.55,0
465,465,12.2,-3.64,130.9,0
466,466,12.21,7.78,163.26,0
467,467,12.23,1.34,181.17,0
468,468,12.24,-3.03,244.37,0
469,469,12.25,-23.58,181.41,0
470,470,12.27,-41.14,129.12,0
471,471,12.28,-17.21,164.54,0
472,472,12.29,0.19,85.18,0
473,473,12.31,-9.62,10.61,0
474,474,12.32,-7.61,28.03,0
475,475,12.33,-5.19,-65.47,0
476,476,12.35,-0.08,-149.39,0
477,477,12.36,28.12,-122.93,0
478,478,12.37,37.04,-183.4,0
479,479,12.39,23.61,-214.51,0
480,480,12.4,27.06,-132.96,0
481,481,12.41,16.79,-161.74,0
482,482,12.43,-7.44,-184.77,0
483,483,12.44,1.64,-92.55,0
484,484,12.45,15.6,-104.99,0
485,485,12.47,14.67,-125.61,0
486,486,12.48,26.15,-43.35,0
487,487,12.49,26.26,-67.7,0
488,488,12.51,8.16,-102.96,0
489,489,12.52,5.23,-34.84,0
490,490,12.53,1.73,-66.21,0
491,491,12.55,-8.7,-97.33,0
492,492,12.56,-4.61,-12.74,0
493,493,12.57,-5.2,-25.02,0
494,494,12.59,-8.2,-48.33,0
495,495,12.6,6.34,30.65,0
496,496,12.61,4.93,2.04,0
497,497,12.63,-9.92,-41.07,0
498,498,12.64,0.39,29.09,0
499,499,12.65,6.58,5.75,0
500,500,12.67,-3.1,-31.05,0
501,501,12.68,4.94,36.32,0
502,502,12.69,8.16,6.3,0
503,503,12.71,-4.86,-28.38,0
504,504,12.72,-9.01,51.64,0
505,505,12.73,-20.38,30.69,0
506,506,12.75,-27.44,-6.37,0
507,507,12.76,-1.79,67.55,0
508,508,12.77,10.26,35.28,0
509,509,12.79,-5.45,-20.04,0
510,510,12.8,-3.58,49.34,0
511,511,12.81,4.25,33.91,0
512,512,12.83,2.82,-10.31,0
513,513,12.84,10.31,46.0,0
514,514,12.85,6.4,15.06,0
515,515,12.87,-8.57,-20.41,0
516,516,12.88,-4.68,58.13,0
517,517,12.89,-6.72,34.93,0
518,518,12.91,-17.62,-10.98,0
519,519,12.92,-6.62,55.79,0
520,520,12.93,-0.51,24.09,0
521,521,12.95,-6.53,-30.87,0
522,522,12.96,3.43,40.71,0
523,523,12.97,5.52,32.76,0
524,524,12.99,-6.72,-6.92,0
525,525,13.0,-5.82,53.44,0
526,526,13.01,-6.09,25.38,0
527,527,13.03,-6.25,-17.67,0
528,528,13.04,8.51,56.89,0
529,529,13.05,3.24,39.24,0
530,530,13.07,-18.56,-6.85,0
531,531,13.08,-16.19,62.4,0
532,532,13.09,-9.2,38.88,0
533,533,13.11,-7.98,-18.8,0
534,534,13.12,5.4,46.19,0
535,535,13.13,4.59,32.71,0
536,536,13.15,-8.46,-17.57,0
537,537,13.16,-2.07,41.84,0
538,538,13.17,-2.99,17.8,0
539,539,13.19,-11.15,-34.05,0
540,540,13.2,9.57,43.1,0
541,541,13.21,20.24,43.56,0
542,542,13.23,0.48,-8.98,0
543,543,13.24,-2.67,44.38,0
544,544,13.25,0.94,33.61,0
545,545,13.27,-8.16,-16.31,0
546,546,13.28,-4.78,28.08,0
547,547,13.29,-4.12,1.62,0
548,548,13.31,-12.94,-44.96,0
549,549,13.32,-2.85,27.01,0
550,550,13.33,3.16,26.12,0
551,551,13.35,-5.14,-25.81,0
552,552,13.36,2.19,20.57,0
553,553,13.37,2.58,6.34,0
554,554,13.39,-15.08,-40.05,0
555,555,13.4,-12.48,18.77,0
556,556,13.41,0.74,17.83,0
557,557,13.43,3.21,-18.73,0
558,558,13.44,8.89,34.43,0
559,559,13.45,10.5,6.57,0
560,560,13.47,8.51,-54.33,0
561,561,13.48,20.19,12.31,0
562,562,13.49,16.13,21.67,0
563,563,13.51,-10.2,-30.24,0
564,564,13.52,-11.68,14.62,0
565,565,13.53,0.25,15.95,0
566,566,13.55,-4.87,-24.77,0
567,567,13.56,-2.3,20.32,0
568,568,13.57,3.27,4.34,0
569,569,13.59,-5.29,-51.92,0
570,570,13.6,0.75,-2.17,0
571,571,13.61,11.9,-0.61,0
572,572,13.63,3.42,-51.99,0
573,573,13.64,1.66,-8.07,0
574,574,13.65,4.38,-1.63,0
575,575,13.67,-4.64,-40.6,0
576,576,13.68,-2.16,10.03,0
577,577,13.69,0.22,16.91,0
578,578,13.71,-10.07,-26.85,0
579,579,13.72,0.73,17.47,0
580,580,13.73,16.44,18.63,0
581,581,13.75,3.73,-34.65,0
582,582,13.76,-5.62,0.21,0
583,583,13.77,-1.27,0.03,0
584,584,13.79,-3.55,-46.1,0
585,585,13.8,0.99,5.01,0
586,586,13.81,8.84,20.36,0
587,587,13.83,4.7,-34.4,0
588,588,13.84,3.91,-6.78,0
589,589,13.85,-1.43,6.28,0
590,590,13.86,-14.48,-32.53,0
591,591,13.88,-2.36,2.02,0
592,592,13.89,13.87,12.91,0
593,593,13.9,1.86,-28.5,0
594,594,13.92,1.14,2.47,0
595,595,13.93,18.83,11.7,0
596,596,13.94,16.09,-27.5,0
597,597,13.96,7.82,1.62,0
598,598,13.97,9.94,3.0,0
599,599,13.98,6.02,-35.26,0
600,600,14.0,0.88,13.17,0
601,601,14.01,-7.81,26.88,0
602,602,14.02,-19.88,-33.57,0
603,603,14.04,-7.89,-13.95,0
604,604,14.05,6.72,7.66,0
605,605,14.07,-6.98,-24.48,0
606,606,14.08,-6.56,2.15,0
607,607,14.09,14.99,8.0,0
608,608,14.11,8.51,-34.13,0
609,609,14.12,-8.51,3.51,0
610,610,14.13,-9.12,18.81,0
611,611,14.15,-11.32,-38.84,0
612,612,14.16,-5.05,-9.52,0
613,613,14.17,9.53,35.2,0
614,614,14.19,8.96,13.66,0
615,615,14.2,13.48,61.59,0
616,616,14.21,26.06,112.75,0
617,617,14.23,22.15,29.28,0
618,618,14.24,16.6,-88.66,0
619,619,14.25,0.16,-174.92,0
620,620,14.27,-32.37,-243.36,0
621,621,14.28,-20.31,-164.19,0
622,622,14.29,9.38,129.31,0
623,623,14.31,-14.14,427.22,0
624,624,14.32,-18.79,529.51,0
625,625,14.33,31.9,464.54,0
626,626,14.35,40.6,367.2,0
627,627,14.36,10.99,318.67,0
628,628,14.37,8.68,292.14,0
629,629,14.39,-2.14,246.79,0
630,630,14.4,-35.0,196.93,0
631,631,14.41,-45.16,159.98,0
632,632,14.43,-32.9,128.19,0
633,633,14.44,-16.4,94.63,0
634,634,14.45,-4.28,63.16,0
635,635,14.47,-3.47,35.07,0
636,636,14.48,-5.89,8.4,0
637,637,14.49,-5.04,-16.64,0
638,638,14.51,3.54,-38.8,0
639,639,14.52,23.01,-58.99,0
640,640,14.53,35.66,-78.0,0
641,641,14.55,34.6,-94.96,0
642,642,14.56,20.96,-109.37,0
643,643,14.57,-23.21,-122.46,0
644,644,14.59,-49.36,-134.9,0
645,645,14.6,-6.5,-146.25,0
646,646,14.61,15.72,-155.76,0
647,647,14.63,-18.74,-163.38,0
648,648,14.64,-17.17,-169.96,0
649,649,14.65,6.19,-176.01,0
650,650,14.67,-3.34,-180.62,0
651,651,14.68,2.03,-184.53,0
652,652,14.69,18.92,-190.87,0
653,653,14.71,-1.93,-194.56,0
654,654,14.72,-20.95,-189.01,0
655,655,14.73,-11.57,-189.21,0
656,656,14.75,-0.33,-207.64,0
657,657,14.76,18.84,-248.67,0
658,658,14.77,17.68,-328.35,0
659,659,14.79,-26.67,-362.96,0
660,660,14.8,-32.11,-292.87,0
661,661,14.81,3.93,-318.72,0
662,662,14.83,-3.65,-421.2,0
663,663,14.84,-10.93,-302.67,0
664,664,14.85,21.38,-147.91,0
665,665,14.87,19.88,-213.45,0
666,666,14.88,-6.14,-243.45,0
667,667,14.89,0.83,-174.97,0
668,668,14.91,16.37,-214.14,0
669,669,14.92,21.5,-277.27,0
670,670,14.93,10.31,-231.96,0
671,671,14.95,-26.27,-95.74,0
672,672,14.96,-37.56,46.91,0
673,673,14.97,-6.13,-6.34,0
674,674,14.99,0.19,-182.01,0
675,675,15.0,-28.18,-118.72,0
676,676,15.01,-35.38,53.78,0
677,677,15.03,-13.02,-2.99,0
678,678,15.04,11.81,-81.04,0
679,679,15.05,16.91,-10.62,0
680,680,15.07,9.15,12.7,0
681,681,15.08,21.54,7.58,0
682,682,15.09,30.39,28.24,0
683,683,15.11,3.91,-11.85,0
684,684,15.12,-1.32,11.22,0
685,685,15.13,25.48,88.78,0
686,686,15.15,18.58,41.4,0
687,687,15.16,-0.96,38.87,0
688,688,15.17,8.38,165.56,0
689,689,15.19,10.11,210.96,0
690,690,15.2,2.05,196.48,0
691,691,15.21,12.48,137.96,0
692,692,15.23,24.92,-35.52,0
693,693,15.24,29.18,-67.73,0
694,694,15.25,19.92,98.4,0
695,695,15.27,0.18,132.76,0
696,696,15.28,13.49,87.8,0
697,697,15.29,34.93,145.38,0
698,698,15.31,10.0,166.94,0
699,699,15.32,-0.22,155.02,0
700,700,15.33,24.43,151.46,0
701,701,15.35,8.7,98.64,0
702,702,15.36,-22.07,163.81,0
703,703,15.37,-18.79,293.09,0
704,704,15.39,-14.96,212.16,0
705,705,15.4,1.69,106.98,0
706,706,15.41,31.51,139.98,0
707,707,15.43,3.36,119.34,0
708,708,15.44,-44.18,109.42,0
709,709,15.45,-34.99,176.24,0
710,710,15.47,-22.34,122.88,0
711,711,15.48,-27.36,63.16,0
712,712,15.49,-13.42,132.91,0
713,713,15.51,-8.51,118.68,0
714,714,15.52,-9.48,75.63,0
715,715,15.53,7.03,133.55,0
716,716,15.55,4.36,95.79,0
717,717,15.56,-7.86,59.64,0
718,718,15.57,-9.56,163.87,0
719,719,15.59,-30.32,148.95,0
720,720,15.6,-30.51,95.45,0
721,721,15.61,11.13,197.11,0
722,722,15.63,19.36,231.88,0
723,723,15.64,0.17,192.34,0
724,724,15.65,2.04,170.36,0
725,725,15.67,-0.46,29.23,0
726,726,15.68,-2.26,-71.83,0
727,727,15.69,14.4,45.33,0
728,728,15.71,19.59,123.52,0
729,729,15.72,23.93,75.8,0
730,730,15.73,34.16,59.96,0
731,731,15.75,6.67,63.82,0
732,732,15.76,-28.8,121.73,0
733,733,15.77,-22.5,191.49,0
734,734,15.78,-7.24,136.03,0
735,735,15.8,9.23,131.38,0
736,736,15.81,29.05,168.11,0
737,737,15.82,14.77,14.66,0
738,738,15.84,-2.63,-58.88,0
739,739,15.85,5.05,82.16,0
740,740,15.86,-3.09,75.29,0
741,741,15.88,-12.65,-0.7,0
742,742,15.89,-6.18,66.43,0
743,743,15.9,-16.84,43.64,0
744,744,15.92,-17.64,-34.9,0
745,745,15.93,5.05,0.09,0
746,746,15.94,-0.05,-16.22,0
747,747,15.96,-9.69,-26.84,0
748,748,15.97,7.39,60.88,0
749,749,15.98,1.94,38.88,0
750,750,16.0,-15.64,-1.6,0
751,751,16.01,-8.89,56.87,0
752,752,16.03,-8.34,10.22,0
753,753,16.04,-8.1,-18.32,0
754,754,16.05,2.14,86.47,0
755,755,16.07,-8.37,23.56,0
756,756,16.08,-13.85,-127.68,0
757,757,16.09,-4.34,-104.72,0
758,758,16.11,-13.66,-101.27,0
759,759,16.12,-10.09,-135.98,0
760,760,16.13,2.93,-24.1,0
761,761,16.15,-20.65,49.14,0
762,762,16.16,-18.0,9.42,0
763,763,16.17,30.57,-0.72,0
764,764,16.19,28.78,-42.43,0
765,765,16.2,-2.62,-73.0,0
766,766,16.21,10.53,-26.06,0
767,767,16.23,30.42,-49.84,0
768,768,16.24,29.49,-66.64,0
769,769,16.25,12.23,-8.4,0
770,770,16.27,-15.59,-88.69,0
771,771,16.28,-6.97,-211.51,0
772,772,16.29,11.56,-213.64,0
773,773,16.31,-13.44,-295.61,0
774,774,16.32,-18.9,-419.04,0
775,775,16.33,3.06,-389.69,0
776,776,16.35,-9.31,-335.23,0
777,777,16.36,-9.35,-301.21,0
778,778,16.37,12.09,-228.64,0
779,779,16.39,-4.77,-201.43,0
780,780,16.4,-13.32,-156.95,0
781,781,16.41,4.23,-54.69,0
782,782,16.42,-2.3,-49.59,0
783,783,16.44,2.75,-44.75,0
784,784,16.45,13.45,57.71,0
785,785,16.46,-18.64,50.27,0
786,786,16.48,-27.27,-5.44,0
787,787,16.49,-1.53,56.36,0
788,788,16.5,-7.33,55.13,0
789,789,16.52,-4.81,4.44,0
790,790,16.53,11.05,55.42,0
791,791,16.54,-10.6,49.36,0
792,792,16.56,-9.13,1.51,0
793,793,16.57,26.13,57.23,0
794,794,16.58,17.79,56.57,0
795,795,16.6,-0.8,9.26,0
796,796,16.61,0.88,66.0,0
797,797,16.62,-13.97,74.37,0
798,798,16.64,-6.96,32.6,0
799,799,16.65,17.87,81.65,0
800,800,16.67,1.17,75.66,0
801,801,16.68,2.44,21.38,0
802,802,16.69,33.35,69.5,0
803,803,16.71,13.14,75.18,0
804,804,16.72,-9.92,24.5,0
805,805,16.73,-1.12,59.18,0
806,806,16.75,-16.85,58.39,0
807,807,16.76,-15.62,18.58,0
808,808,16.77,11.22,62.7,0
809,809,16.79,-2.91,59.28,0
810,810,16.8,-6.1,12.88,0
811,811,16.81,16.57,61.07,0
812,812,16.83,-6.8,67.77,0
813,813,16.84,-24.75,12.51,0
814,814,16.85,-3.36,36.99,0
815,815,16.87,-3.11,39.26,0
816,816,16.88,5.19,6.21,0
817,817,16.89,26.48,52.45,0
818,818,16.91,1.47,50.22,0
819,819,16.92,-12.74,-7.45,0
820,820,16.93,7.26,29.58,0
821,821,16.95,-3.17,44.28,0
822,822,16.96,-3.04,0.64,0
823,823,16.97,19.51,36.67,0
824,824,16.99,-0.8,48.19,0
825,825,17.0,-14.67,-1.86,0
826,826,17.01,2.38,19.4,0
827,827,17.03,-11.6,19.64,0
828,828,17.04,-15.69,-24.95,0
829,829,17.05,8.5,17.04,0
830,830,17.06,-5.95,33.57,0
831,831,17.08,-16.12,-17.34,0
832,832,17.09,10.47,9.43,0
833,833,17.1,7.18,19.49,0
834,834,17.12,-5.22,-40.95,0
835,835,17.13,-3.48,-24.38,0
836,836,17.14,-25.47,-1.0,0
837,837,17.16,-20.4,-35.87,0
838,838,17.17,16.49,-13.28,0
839,839,17.18,8.59,0.03,0
840,840,17.2,-0.64,-39.87,0
841,841,17.21,16.76,-15.09,0
842,842,17.22,4.15,-0.37,0
843,843,17.24,0.18,-41.07,0
844,844,17.25,15.01,-15.25,0
845,845,17.26,-7.98,-6.18,0
846,846,17.28,-10.25,-64.32,0
847,847,17.29,20.44,-39.32,0
848,848,17.3,3.16,-5.03,0
849,849,17.32,-10.51,-49.71,0
850,850,17.33,15.63,-35.4,0
851,851,17.35,12.82,-8.4,0
852,852,17.36,12.23,-48.64,0
853,853,17.37,29.61,-31.44,0
854,854,17.39,1.96,-8.84,0
855,855,17.4,-15.71,-54.57,0
856,856,17.41,8.27,-32.78,0
857,857,17.43,-1.15,0.35,0
858,858,17.44,-13.34,-46.81,0
859,859,17.45,0.96,-37.04,0
860,860,17.47,-9.86,-12.31,0
861,861,17.48,-3.28,-60.55,0
862,862,17.49,25.14,-40.82,0
863,863,17.51,1.42,-1.54,0
864,864,17.52,-13.44,-52.47,0
865,865,17.53,11.55,-43.54,0
866,866,17.55,-1.41,1.87,0
867,867,17.56,-6.62,-37.49,0
868,868,17.57,26.84,-33.93,0
869,869,17.59,19.36,-5.76,0
870,870,17.6,3.25,-55.32,0
871,871,17.61,10.73,-42.98,0
872,872,17.63,-17.73,4.69,0
873,873,17.64,-34.28,-40.8,0
874,874,17.65,-6.33,-43.17,0
875,875,17.67,-9.98,-3.03,0
876,876,17.68,-16.62,-42.14,0
877,877,17.69,6.04,-34.26,0
878,878,17.7,-7.64,13.43,0
879,879,17.72,-16.13,-33.29,0
880,880,17.73,19.54,-42.99,0
881,881,17.75,18.96,-0.95,0
882,882,17.76,3.11,-37.65,0
883,883,17.77,12.24,-32.8,0
884,884,17.78,-11.24,15.39,0
885,885,17.8,-24.17,-26.82,0
886,886,17.81,7.62,-26.53,0
887,887,17.82,0.18,23.44,0
888,888,17.84,-14.07,-21.69,0
889,889,17.85,11.2,-30.44,0
890,890,17.86,2.09,14.87,0
891,891,17.88,-12.75,-31.49,0
892,892,17.89,8.17,-41.66,0
893,893,17.9,-1.88,10.72,0
894,894,17.92,-10.62,-20.6,0
895,895,17.93,14.68,-19.73,0
896,896,17.94,1.62,30.89,0
897,897,17.96,-9.77,-14.81,0
898,898,17.97,19.09,-24.81,0
899,899,17.99,8.43,26.73,0
900,900,18.0,-7.82,-16.09,0
901,901,18.01,15.19,-20.23,0
902,902,18.03,1.22,43.03,0
903,903,18.04,-22.54,4.34,0
904,904,18.05,-6.51,-6.7,0
905,905,18.07,-10.14,50.63,0
906,906,18.08,-11.8,6.47,0
907,907,18.09,14.99,-11.39,0
908,908,18.11,6.24,43.61,0
909,909,18.12,-1.75,-5.02,0
910,910,18.13,17.67,-29.57,0
911,911,18.15,-7.42,32.58,0
912,912,18.16,-20.23,6.5,0
913,913,18.17,18.15,0.78,0
914,914,18.19,7.63,58.25,0
915,915,18.2,-15.09,8.1,0
916,916,18.21,9.39,-13.74,0
917,917,18.23,5.13,38.04,0
918,918,18.24,-1.82,-37.55,0
919,919,18.25,26.08,-103.4,0
920,920,18.27,22.35,-69.88,0
921,921,18.28,24.54,-120.87,0
922,922,18.29,45.72,-150.78,0
923,923,18.31,7.98,-94.97,0
924,924,18.32,-14.43,-129.46,0
925,925,18.33,16.71,-134.14,0
926,926,18.34,-3.72,-47.84,0
927,927,18.36,-30.7,-60.47,0
928,928,18.37,-8.18,-50.62,0
929,929,18.38,-20.59,52.27,0
930,930,18.4,-34.46,44.21,0
931,931,18.41,2.82,36.43,0
932,932,18.42,7.57,126.1,0
933,933,18.44,-11.55,127.79,0
934,934,18.45,-10.38,130.86,0
935,935,18.46,-35.01,202.54,0
936,936,18.48,-37.57,154.11,0
937,937,18.49,13.29,111.9,0
938,938,18.5,18.66,179.02,0
939,939,18.52,2.28,149.27,0
940,940,18.53,26.08,112.53,0
941,941,18.54,25.35,165.37,0
942,942,18.56,12.45,124.71,0
943,943,18.57,24.92,102.64,0
944,944,18.58,5.71,174.04,0
945,945,18.6,-13.76,111.37,0
946,946,18.61,3.89,41.95,0
947,947,18.63,-11.88,106.14,0
948,948,18.64,-28.96,82.29,0
949,949,18.65,-0.69,33.59,0
950,950,18.67,-6.71,77.85,0
951,951,18.68,-23.51,40.46,0
952,952,18.69,10.18,12.73,0
953,953,18.71,17.57,80.99,0
954,954,18.72,-6.48,39.1,0
955,955,18.73,-2.57,-7.12,0
956,956,18.75,-0.89,58.64,0
957,957,18.76,3.98,24.71,0
958,958,18.77,15.51,-24.96,0
959,959,18.79,-16.81,30.47,0
960,960,18.8,-28.29,-6.55,0
961,961,18.81,17.56,-48.61,0
962,962,18.83,18.98,22.08,0
963,963,18.84,-4.96,-5.05,0
964,964,18.85,9.4,-51.77,0
965,965,18.87,2.81,9.47,0
966,966,18.88,-12.53,-19.36,0
967,967,18.89,2.57,-58.63,0
968,968,18.91,-8.74,12.54,0
969,969,18.92,-19.06,-14.99,0
970,970,18.93,10.84,-65.19,0
971,971,18.95,3.78,-3.74,0
972,972,18.96,-21.01,-31.41,0
973,973,18.97,-2.25,-77.78,0
974,974,18.98,-1.45,-12.17,0
975,975,19.0,-15.31,-39.2,0
976,976,19.01,-2.45,-90.02,0
977,977,19.02,-10.45,-18.91,0
978,978,19.04,-14.74,-25.06,0
979,979,19.05,9.94,-64.05,0
980,980,19.06,-5.69,-5.98,0
981,981,19.08,-23.18,-29.78,0
982,982,19.09,7.6,-69.21,0
983,983,19.1,11.61,-5.08,0
984,984,19.12,-2.52,-35.0,0
985,985,19.13,9.13,-82.5,0
986,986,19.14,-3.72,-9.42,0
987,987,19.16,-15.6,-24.72,0
988,988,19.17,6.68,-74.37,0
989,989,19.18,-3.07,-11.72,0
990,990,19.2,-14.64,-25.97,0
991,991,19.21,17.01,-69.19,0
992,992,19.22,11.07,-6.94,0
993,993,19.24,-17.59,-24.96,0
994,994,19.25,0.73,-71.97,0
995,995,19.26,13.2,-13.65,0
996,996,19.28,12.71,-35.13,0
997,997,19.29,33.08,-79.62,0
998,998,19.31,25.11,-2.83,0
999,999,19.32,5.04,-2.49,0
1000,1000,19.33,12.82,-52.58,0
1001,1001,19.35,-4.7,-2.64,0
1002,1002,19.36,-24.95,-15.05,0
1003,1003,19.37,-3.56,-57.35,0
1004,1004,19.39,-5.02,4.11,0
1005,1005,19.4,-18.42,1.56,0
1006,1006,19.41,1.28,-37.66,0
1007,1007,19.43,-1.22,10.56,0
1008,1008,19.44,-9.32,-7.61,0
1009,1009,19.45,12.64,-42.66,0
1010,1010,19.47,-0.15,21.22,0
1011,1011,19.48,-14.86,0.52,0
1012,1012,19.49,21.16,-57.3,0
1013,1013,19.51,19.94,1.98,0
1014,1014,19.52,-13.93,7.13,0
1015,1015,19.53,-3.58,-32.69,0
1016,1016,19.55,2.83,19.97,0
1017,1017,19.56,-9.71,15.83,0
1018,1018,19.57,-0.91,-28.91,0
1019,1019,19.59,1.99,13.61,0
1020,1020,19.6,2.15,2.1,0
1021,1021,19.61,12.11,-31.86,0
1022,1022,19.62,-4.6,30.43,0
1023,1023,19.64,-11.79,17.79,0
1024,1024,19.65,14.3,-44.33,0
1025,1025,19.67,5.49,2.59,0
1026,1026,19.68,-10.58,13.36,0
1027,1027,19.69,16.7,-21.05,0
1028,1028,19.7,15.67,22.46,0
1029,1029,19.72,-8.78,16.17,0
1030,1030,19.73,4.09,-19.34,0
1031,1031,19.75,4.43,37.34,0
1032,1032,19.76,-11.58,32.27,0
1033,1033,19.77,-0.22,-25.7,0
1034,1034,19.78,-1.95,14.33,0
1035,1035,19.8,-8.27,21.43,0
1036,1036,19.81,12.54,-20.55,0
1037,1037,19.82,4.51,19.77,0
1038,1038,19.84,-22.72,23.73,0
1039,1039,19.85,-17.7,-20.3,0
1040,1040,19.86,-14.55,15.43,0
1041,1041,19.88,-8.85,17.81,0
1042,1042,19.89,18.25,-21.24,0
1043,1043,19.9,8.3,21.32,0
1044,1044,19.92,-20.38,27.07,0
1045,1045,19.93,-9.97,-12.39,0
1046,1046,19.95,-2.6,27.67,0
1047,1047,19.96,-4.37,26.85,0
1048,1048,19.97,15.43,-21.16,0
1049,1049,19.99,14.09,22.47,0
1050,1050,20.0,-5.01,35.45,0
1051,1051,20.01,0.98,-12.27,0
1052,1052,20.03,4.73,21.33,0
1053,1053,20.04,4.23,37.84,0
1054,1054,20.05,14.76,0.86,0
1055,1055,20.07,-2.55,31.8,0
1056,1056,20.08,-21.83,33.18,0
1057,1057,20.09,3.09,-17.01,0
1058,1058,20.11,18.86,12.74,0
1059,1059,20.12,11.42,25.5,0
1060,1060,20.13,17.57,-10.37,0
1061,1061,20.15,13.0,27.31,0
1062,1062,20.16,3.74,41.25,0
1063,1063,20.17,13.75,18.41,0
1064,1064,20.19,4.65,110.69,0
1065,1065,20.2,-11.31,194.13,0
1066,1066,20.21,-4.31,174.66,0
1067,1067,20.23,-21.59,190.38,0
1068,1068,20.24,-45.02,187.36,0
1069,1069,20.25,-22.4,113.77,0
1070,1070,20.26,-11.15,98.04,0
1071,1071,20.28,-26.26,78.18,0
1072,1072,20.29,-16.4,-4.44,0
1073,1073,20.3,-14.62,-29.83,0
1074,1074,20.32,-22.3,-51.1,0
1075,1075,20.33,15.82,-120.92,0
1076,1076,20.34,44.24,-125.51,0
1077,1077,20.36,16.15,-117.87,0
1078,1078,20.37,5.33,-145.66,0
1079,1079,20.38,22.4,-103.56,0
1080,1080,20.4,11.63,-79.89,0
1081,1081,20.41,-2.09,-131.46,0
1082,1082,20.42,9.81,-102.53,0
1083,1083,20.44,27.38,-62.22,0
1084,1084,20.45,36.5,-107.6,0
1085,1085,20.46,18.33,-89.92,0
1086,1086,20.48,-0.59,-43.14,0
1087,1087,20.49,10.91,-66.71,0
1088,1088,20.5,5.67,-48.97,0
1089,1089,20.52,-0.15,-27.6,0
1090,1090,20.53,34.22,-70.27,0
1091,1091,20.54,35.41,-45.67,0
1092,1092,20.56,3.66,-11.62,0
1093,1093,20.57,10.47,-63.34,0
1094,1094,20.59,11.24,-48.49,0
1095,1095,20.6,-11.22,2.93,0
1096,1096,20.61,-8.57,-31.43,0
1097,1097,20.63,-9.86,-24.95,0
1098,1098,20.64,-17.59,11.55,0
1099,1099,20.65,1.79,-29.14,0
1100,1100,20.67,3.95,-23.38,0
1101,1101,20.68,-13.22,18.43,0
1102,1102,20.69,-5.3,-12.95,0
1103,1103,20.71,-6.8,1.19,0
1104,1104,20.72,-21.25,41.89,0
1105,1105,20.73,-7.5,-6.54,0
1106,1106,20.75,-0.06,-9.28,0
1107,1107,20.76,-7.92,36.1,0
1108,1108,20.77,4.23,4.03,0
1109,1109,20.79,1.63,5.44,0
1110,1110,20.8,-19.9,39.1,0
1111,1111,20.81,-12.48,-2.46,0
1112,1112,20.83,-1.02,9.29,0
1113,1113,20.84,-2.19,58.14,0
1114,1114,20.85,10.56,7.57,0
1115,1115,20.87,7.46,-2.09,0
1116,1116,20.88,-15.4,43.65,0
1117,1117,20.89,-13.23,2.34,0
1118,1118,20.9,-7.84,-0.98,0
1119,1119,20.92,-13.3,52.49,0
1120,1120,20.93,-4.34,18.35,0
1121,1121,20.94,-8.78,14.38,0
1122,1122,20.96,-20.44,62.35,0
1123,1123,20.97,2.48,19.28,0
1124,1124,20.98,13.72,5.74,0
1125,1125,21.0,-4.59,53.42,0
1126,1126,21.01,-0.36,19.86,0
1127,1127,21.02,2.17,13.51,0
1128,1128,21.04,-14.88,53.83,0
1129,1129,21.05,-2.06,4.32,0
1130,1130,21.06,16.27,-1.56,0
1131,1131,21.08,1.45,56.82,0
1132,1132,21.09,-6.39,13.23,0
1133,1133,21.1,-1.92,-0.41,0
1134,1134,21.12,-2.64,53.43,0
1135,1135,21.13,8.57,2.43,0
1136,1136,21.14,12.8,-16.13,0
1137,1137,21.16,2.75,53.75,0
1138,1138,21.17,8.19,19.83,0
1139,1139,21.18,3.99,-10.34,0
1140,1140,21.2,-12.38,36.22,0
1141,1141,21.21,-0.29,2.57,0
1142,1142,21.23,3.81,-2.21,0
1143,1143,21.24,-14.44,61.72,0
1144,1144,21.25,-0.11,13.99,0
1145,1145,21.27,18.13,-14.74,0
1146,1146,21.28,0.27,47.47,0
1147,1147,21.29,-9.25,14.69,0
1148,1148,21.31,-4.56,-5.92,0
1149,1149,21.32,-1.98,46.86,0
1150,1150,21.33,12.97,-3.57,0
1151,1151,21.35,11.93,-27.18,0
1152,1152,21.36,-4.34,41.88,0
1153,1153,21.37,8.83,3.43,0
1154,1154,21.39,6.39,-22.4,0
1155,1155,21.4,-33.61,47.88,0
1156,1156,21.41,-33.7,14.7,0
1157,1157,21.43,-3.57,-20.27,0
1158,1158,21.44,-0.2,27.71,0
1159,1159,21.45,3.44,-18.95,0
1160,1160,21.47,10.53,-42.9,0
1161,1161,21.48,-0.9,31.93,0
1162,1162,21.49,-7.42,2.79,0
1163,1163,21.51,-13.29,-27.15,0
1164,1164,21.52,-17.26,29.18,0
1165,1165,21.53,9.47,-12.04,0
1166,1166,21.54,23.97,-34.92,0
1167,1167,21.56,0.29,41.31,0
1168,1168,21.57,-7.69,3.06,0
1169,1169,21.58,-2.11,-40.54,0
1170,1170,21.6,-5.81,25.94,0
1171,1171,21.61,4.26,3.35,0
1172,1172,21.62,6.83,-26.37,0
1173,1173,21.64,-10.75,31.52,0
1174,1174,21.65,-7.65,-14.01,0
1175,1175,21.67,-3.22,-55.0,0
1176,1176,21.68,-14.96,16.37,0
1177,1177,21.69,-6.0,-12.04,0
1178,1178,21.7,-6.05,-54.25,0
1179,1179,21.72,-25.81,9.49,0
1180,1180,21.73,0.21,-13.55,0
1181,1181,21.75,30.99,-46.51,0
1182,1182,21.76,8.36,13.14,0
1183,1183,21.77,2.14,-16.93,0
1184,1184,21.78,21.16,-39.23,0
1185,1185,21.8,10.19,40.53,0
1186,1186,21.81,-1.05,12.36,0
1187,1187,21.82,0.36,-30.52,0
1188,1188,21.84,-3.93,29.68,0
1189,1189,21.85,3.89,-5.05,0
1190,1190,21.87,-0.78,-47.85,0
1191,1191,21.88,-20.81,17.61,0
1192,1192,21.89,-0.07,-6.25,0
1193,1193,21.91,19.41,-38.77,0
1194,1194,21.92,0.86,29.43,0
1195,1195,21.93,16.65,-7.82,0
1196,1196,21.95,41.15,-59.02,0
1197,1197,21.96,8.86,15.65,0
1198,1198,21.97,-15.33,5.66,0
1199,1199,21.99,-5.01,-41.01,0
1200,1200,22.0,-2.18,7.58,0
1201,1201,22.01,6.85,-15.71,0
1202,1202,22.03,8.31,-46.35,0
1203,1203,22.04,-13.82,17.15,0
1204,1204,22.05,-7.81,-8.2,0
1205,1205,22.07,10.02,-36.94,0
1206,1206,22.08,-0.26,38.88,0
1207,1207,22.09,6.23,7.22,0
1208,1208,22.11,12.49,-48.89,0
1209,1209,22.12,-19.44,19.18,0
1210,1210,22.13,-18.36,17.01,0
1211,1211,22.15,13.13,-6.75,0
1212,1212,22.16,2.17,73.91,0
1213,1213,22.17,-9.66,80.73,0
1214,1214,22.18,2.71,72.75,0
1215,1215,22.2,2.6,162.83,0
1216,1216,22.21,15.96,116.27,0
1217,1217,22.22,23.82,-24.69,0
1218,1218,22.24,-16.91,11.91,0
1219,1219,22.25,-37.87,122.82,0
1220,1220,22.26,-19.27,201.25,0
1221,1221,22.28,-7.06,300.33,0
1222,1222,22.29,17.23,279.32,0
1223,1223,22.3,22.59,128.89,0
1224,1224,22.32,-0.32,119.64,0
1225,1225,22.33,28.2,247.99,0
1226,1226,22.34,43.66,258.82,0
1227,1227,22.36,-20.73,152.52,0
1228,1228,22.37,-32.96,98.34,0
1229,1229,22.38,24.18,100.34,0
1230,1230,22.4,24.93,77.91,0
1231,1231,22.41,16.8,34.85,0
1232,1232,22.42,67.74,8.13,0
1233,1233,22.44,81.75,-7.24,0
1234,1234,22.45,20.34,-28.44,0
1235,1235,22.46,-65.04,-51.89,0
1236,1236,22.48,-129.65,-69.54,0
1237,1237,22.49,-99.87,-83.58,0
1238,1238,22.5,-9.51,-97.68,0
1239,1239,22.52,11.41,-111.29,0
1240,1240,22.53,-7.87,-123.59,0
1241,1241,22.55,2.71,-145.43,0
1242,1242,22.56,4.42,-187.8,0
1243,1243,22.57,11.08,-212.05,0
1244,1244,22.59,39.64,-175.13,0
1245,1245,22.6,28.13,-157.82,0
1246,1246,22.61,-12.86,-264.5,0
1247,1247,22.63,-28.7,-384.23,0
1248,1248,22.64,-19.18,-372.16,0
1249,1249,22.65,17.7,-340.43,0
1250,1250,22.67,35.51,-336.33,0
1251,1251,22.68,-18.29,-221.86,0
1252,1252,22.69,-48.09,-104.77,0
1253,1253,22.71,-2.33,-126.95,0
1254,1254,22.72,16.31,-160.05,0
1255,1255,22.73,-4.65,-163.6,0
1256,1256,22.75,-9.64,-167.23,0
1257,1257,22.76,-13.34,-177.07,0
1258,1258,22.77,-12.22,-304.75,0
1259,1259,22.79,-13.86,-414.32,0
1260,1260,22.8,-37.68,-306.53,0
1261,1261,22.81,-16.82,-167.16,0
1262,1262,22.82,32.68,-79.56,0
1263,1263,22.84,10.25,20.63,0
1264,1264,22.85,-28.44,-25.02,0
1265,1265,22.86,-11.39,-182.0,0
1266,1266,22.88,6.02,-172.83,0
1267,1267,22.89,4.37,-37.44,0
1268,1268,22.9,-6.91,1.62,0
1269,1269,22.92,-19.94,-45.88,0
1270,1270,22.93,10.39,-59.49,0
1271,1271,22.94,25.15,6.7,0
1272,1272,22.96,-29.37,53.91,0
1273,1273,22.97,-27.97,-32.26,0
1274,1274,22.98,29.33,-70.61,0
1275,1275,23.0,11.33,49.96,0
1276,1276,23.01,-12.64,50.56,0
1277,1277,23.02,18.14,-66.16,0
1278,1278,23.04,25.42,-14.72,0
1279,1279,23.05,37.93,85.45,0
1280,1280,23.06,57.37,66.33,0
1281,1281,23.08,5.33,54.41,0
1282,1282,23.09,-29.75,61.56,0
1283,1283,23.1,8.86,62.96,0
1284,1284,23.12,14.9,108.42,0
1285,1285,23.13,3.57,106.76,0
1286,1286,23.14,22.7,102.82,0
1287,1287,23.16,13.02,196.84,0
1288,1288,23.17,2.12,180.52,0
1289,1289,23.19,18.48,66.0,0
1290,1290,23.2,3.81,103.0,0
1291,1291,23.21,2.34,163.01,0
1292,1292,23.23,33.09,119.07,0
1293,1293,23.24,8.59,103.72,0
1294,1294,23.25,-28.36,87.93,0
1295,1295,23.27,-26.66,42.73,0
1296,1296,23.28,-40.44,77.53,0
1297,1297,23.29,-26.4,121.46,0
1298,1298,23.31,27.59,93.55,0
1299,1299,23.32,21.91,79.43,0
1300,1300,23.33,-6.92,88.23,0
1301,1301,23.35,-0.54,122.61,0
1302,1302,23.36,-6.63,185.56,0
1303,1303,23.37,7.35,155.72,0
1304,1304,23.39,45.82,95.89,0
1305,1305,23.4,24.7,136.52,0
1306,1306,23.41,3.42,120.41,0
1307,1307,23.43,34.98,62.37,0
1308,1308,23.44,27.45,169.6,0
1309,1309,23.45,-6.08,243.27,0
1310,1310,23.46,-7.55,127.48,0
1311,1311,23.48,-23.36,73.21,0
1312,1312,23.49,-28.8,101.62,0
1313,1313,23.5,9.38,85.56,0
1314,1314,23.52,14.27,113.84,0
1315,1315,23.53,-2.97,126.71,0
1316,1316,23.54,8.66,49.39,0
1317,1317,23.56,1.2,62.52,0
1318,1318,23.57,-11.09,136.38,0
1319,1319,23.58,3.89,117.97,0
1320,1320,23.6,-1.23,116.49,0
1321,1321,23.61,-6.96,122.81,0
1322,1322,23.62,1.55,50.68,0
1323,1323,23.64,-16.73,52.43,0
1324,1324,23.65,-11.23,93.81,0
1325,1325,23.67,21.4,54.26,0
1326,1326,23.68,1.05,90.27,0
1327,1327,23.69,-21.8,137.51,0
1328,1328,23.7,-3.84,15.82,0
1329,1329,23.72,-0.44,-50.33,0
1330,1330,23.73,10.37,25.42,0
1331,1331,23.75,22.54,21.53,0
1332,1332,23.76,-18.73,-34.39,0
1333,1333,23.77,-29.45,-57.49,0
1334,1334,23.78,20.33,-48.07,0
1335,1335,23.8,18.18,83.87,0
1336,1336,23.81,-12.41,181.43,0
1337,1337,23.83,-9.69,68.46,0
1338,1338,23.84,-22.98,-0.29,0
1339,1339,23.85,-20.95,54.75,0
1340,1340,23.87,9.87,57.02,0
1341,1341,23.88,-11.02,89.3,0
1342,1342,23.89,-25.69,138.69,0
1343,1343,23.91,3.2,67.28,0
1344,1344,23.92,-19.21,-26.89,0
1345,1345,23.93,-36.18,-91.66,0
1346,1346,23.95,17.37,-95.88,0
1347,1347,23.96,27.62,34.48,0
1348,1348,23.97,-5.14,79.0,0
1349,1349,23.99,3.64,-42.76,0
1350,1350,24.0,7.92,-29.66,0
1351,1351,24.01,1.63,35.16,0
1352,1352,24.03,14.08,-108.1,0
1353,1353,24.04,0.82,-158.68,0
1354,1354,24.05,-12.51,48.03,0
1355,1355,24.07,-9.34,111.85,0
1356,1356,24.08,-42.79,-50.57,0
1357,1357,24.09,-47.67,-125.09,0
1358,1358,24.1,5.81,-42.69,0
1359,1359,24.12,7.08,52.69,0
1360,1360,24.13,-27.23,3.75,0
1361,1361,24.14,-26.98,-149.58,0
1362,1362,24.16,-23.56,-129.51,0
1363,1363,24.17,-6.02,-8.95,0
1364,1364,24.18,17.71,-73.01,0
1365,1365,24.2,-2.56,-146.98,0
1366,1366,24.21,-2.77,-109.73,0
1367,1367,24.22,24.21,-147.16,0
1368,1368,24.24,-7.82,-161.06,0
1369,1369,24.25,-29.93,-103.37,0
1370,1370,24.26,0.91,-165.8,0
1371,1371,24.28,-7.78,-242.88,0
1372,1372,24.29,-11.79,-252.19,0
1373,1373,24.3,28.59,-318.44,0
1374,1374,24.32,16.03,-315.63,0
1375,1375,24.33,-7.58,-213.57,0
1376,1376,24.34,22.64,-199.15,0
1377,1377,24.36,18.33,-158.94,0
1378,1378,24.37,-8.13,-50.88,0
1379,1379,24.38,4.05,-57.92,0
1380,1380,24.4,0.63,-43.48,0
1381,1381,24.41,-1.06,55.62,0
1382,1382,24.42,26.61,23.52,0
1383,1383,24.44,19.42,-26.45,0
1384,1384,24.45,12.64,22.13,0
1385,1385,24.465,37.08,2.81,0
1386,1386,24.48,18.04,-2.46,0
1387,1387,24.49,-6.07,67.44,0
1388,1388,24.51,14.57,38.01,0
1389,1389,24.52,13.02,15.92,0
1390,1390,24.53,9.22,70.23,0
1391,1391,24.55,28.04,22.88,0
1392,1392,24.56,2.12,-6.28,0
1393,1393,24.57,-16.7,57.75,0
1394,1394,24.59,16.14,15.58,0
1395,1395,24.6,8.89,-22.95,0
1396,1396,24.61,-12.02,35.72,0
1397,1397,24.63,10.6,5.07,0
1398,1398,24.64,5.38,-11.71,0
1399,1399,24.65,-9.38,64.03,0
1400,1400,24.67,12.71,30.84,0
1401,1401,24.68,6.98,-1.4,0
1402,1402,24.69,-8.32,69.23,0
1403,1403,24.71,6.81,42.6,0
1404,1404,24.72,-4.03,14.87,0
1405,1405,24.73,-13.16,85.57,0
1406,1406,24.75,7.35,52.48,0
1407,1407,24.76,-9.9,8.74,0
1408,1408,24.77,-23.98,67.9,0
1409,1409,24.78,4.45,44.1,0
1410,1410,24.8,-0.73,25.63,0
1411,1411,24.81,-10.93,103.01,0
1412,1412,24.82,11.52,70.14,0
1413,1413,24.84,-4.28,24.26,0
1414,1414,24.85,-20.61,85.97,0
1415,1415,24.86,5.24,60.94,0
1416,1416,24.88,-4.45,30.3,0
1417,1417,24.89,-18.84,96.47,0
1418,1418,24.9,10.56,59.75,0
1419,1419,24.92,6.88,9.15,0
1420,1420,24.93,-13.64,69.41,0
1421,1421,24.94,-4.37,49.77,0
1422,1422,24.96,-17.33,17.34,0
1423,1423,24.97,-20.29,78.46,0
1424,1424,24.98,9.66,48.57,0
1425,1425,25.0,-6.86,8.69,0
1426,1426,25.01,-23.86,68.51,0
1427,1427,25.02,11.13,35.29,0
1428,1428,25.04,12.26,-10.61,0
1429,1429,25.05,-3.98,50.42,0
1430,1430,25.06,14.53,24.25,0
1431,1431,25.08,3.76,-15.7,0
1432,1432,25.09,-16.63,48.93,0
1433,1433,25.1,3.4,18.47,0
1434,1434,25.12,7.73,-33.69,0
1435,1435,25.13,6.61,27.29,0
1436,1436,25.15,21.33,9.63,0
1437,1437,25.16,-7.38,-32.34,0
1438,1438,25.17,-30.7,24.13,0
1439,1439,25.19,0.13,5.32,0
1440,1440,25.2,0.26,-26.56,0
1441,1441,25.21,-15.05,30.03,0
1442,1442,25.23,5.13,-11.33,0
1443,1443,25.24,-3.06,-61.75,0
1444,1444,25.25,-15.56,11.0,0
1445,1445,25.27,13.32,3.34,0
1446,1446,25.28,6.91,-34.36,0
1447,1447,25.29,-19.24,20.07,0
1448,1448,25.31,-7.07,-12.31,0
1449,1449,25.32,-12.19,-51.17,0
1450,1450,25.33,-23.94,21.09,0
1451,1451,25.35,-3.29,-9.59,0
1452,1452,25.36,-2.77,-72.08,0
1453,1453,25.37,-0.83,-10.34,0
1454,1454,25.38,28.81,-19.12,0
1455,1455,25.4,15.43,-62.24,0
1456,1456,25.41,-9.63,-4.39,0
1457,1457,25.42,7.22,-21.46,0
1458,1458,25.44,2.72,-63.05,0
1459,1459,25.45,-11.2,5.96,0
1460,1460,25.46,5.48,-2.34,0
1461,1461,25.48,-2.21,-57.44,0
1462,1462,25.49,-11.59,-14.31,0
1463,1463,25.5,11.87,-27.37,0
1464,1464,25.52,1.86,-66.18,0
1465,1465,25.53,-14.4,-14.79,0
1466,1466,25.54,9.99,-31.95,0
1467,1467,25.56,3.21,-68.31,0
1468,1468,25.57,-18.94,-4.97,0
1469,1469,25.58,1.91,-17.74,0
1470,1470,25.6,6.18,-64.23,0
1471,1471,25.61,-8.01,-10.13,0
1472,1472,25.62,0.13,-24.68,0
1473,1473,25.64,-8.35,-73.07,0
1474,1474,25.65,-8.19,-17.28,0
1475,1475,25.67,25.67,-26.2,0
1476,1476,25.68,19.85,-73.14,0
1477,1477,25.69,-1.57,-10.74,0
1478,1478,25.7,12.11,-4.75,0
1479,1479,25.72,0.4,-51.85,0
1480,1480,25.73,-19.79,-6.88,0
1481,1481,25.75,0.43,-9.15,0
1482,1482,25.76,3.71,-54.66,0
1483,1483,25.77,-3.24,-13.14,0
1484,1484,25.79,14.84,-18.31,0
1485,1485,25.8,10.71,-56.87,0
1486,1486,25.81,5.63,-4.01,0
1487,1487,25.83,23.89,-4.7,0
1488,1488,25.84,5.98,-49.87,0
1489,1489,25.85,-11.42,-5.26,0
1490,1490,25.87,11.66,-7.01,0
1491,1491,25.88,1.9,-51.97,0
1492,1492,25.89,-18.13,-7.17,0
1493,1493,25.91,7.64,-2.0,0
1494,1494,25.92,17.73,-43.67,0
1495,1495,25.93,11.42,-5.55,0
1496,1496,25.95,19.41,-0.12,0
1497,1497,25.96,-8.51,-29.84,0
1498,1498,25.97,-32.93,13.28,0
1499,1499,25.99,0.62,1.09,0
1500,1500,26.0,14.85,-55.68,0
1501,1501,26.01,5.3,-14.56,0
1502,1502,26.02,23.79,2.13,0
1503,1503,26.04,20.33,-26.07,0
1504,1504,26.05,1.22,25.84,0
1505,1505,26.06,11.98,35.94,0
1506,1506,26.08,0.69,-16.81,0
1507,1507,26.09,-19.68,12.13,0
1508,1508,26.1,0.66,26.5,0
1509,1509,26.12,0.26,-7.99,0
1510,1510,26.13,-18.51,21.58,0
1511,1511,26.14,3.55,5.84,0
1512,1512,26.16,12.3,-72.64,0
1513,1513,26.17,-5.42,-67.46,0
1514,1514,26.18,6.97,-78.25,0
1515,1515,26.2,20.09,-142.78,0
1516,1516,26.21,21.46,-121.34,0
1517,1517,26.22,29.04,-100.71,0
1518,1518,26.24,8.08,-130.93,0
1519,1519,26.25,-7.94,-95.46,0
1520,1520,26.26,14.05,-75.14,0
1521,1521,26.28,12.34,-101.87,0
1522,1522,26.29,2.84,-47.52,0
1523,1523,26.3,14.82,3.96,0
1524,1524,26.32,-12.03,1.75,0
1525,1525,26.33,-44.62,59.02,0
1526,1526,26.34,-22.65,87.7,0
1527,1527,26.36,-11.02,52.23,0
1528,1528,26.37,-22.48,97.87,0
1529,1529,26.38,-6.71,140.71,0
1530,1530,26.4,-4.04,111.35,0
1531,1531,26.41,-26.59,138.03,0
1532,1532,26.43,-27.53,155.2,0
1533,1533,26.44,-24.53,112.75,0
1534,1534,26.45,-22.32,145.77,0
1535,1535,26.47,-6.42,175.06,0
1536,1536,26.48,-12.87,122.13,0
1537,1537,26.49,-17.01,125.4,0
1538,1538,26.51,11.76,138.27,0
1539,1539,26.52,9.44,90.49,0
1540,1540,26.53,-9.82,105.59,0
1541,1541,26.55,10.61,121.38,0
1542,1542,26.56,17.81,62.49,0
1543,1543,26.57,2.63,68.94,0
1544,1544,26.59,8.28,93.68,0
1545,1545,26.6,3.22,47.49,0
1546,1546,26.61,-1.6,53.97,0
1547,1547,26.63,19.42,72.84,0
1548,1548,26.64,6.79,26.2,0
1549,1549,26.65,-18.94,40.21,0
1550,1550,26.67,1.6,67.09,0
1551,1551,26.68,7.88,17.56,0
1552,1552,26.69,-14.08,24.78,0
1553,1553,26.7,-9.71,48.65,0
1554,1554,26.72,-6.22,-9.29,0
1555,1555,26.73,-3.94,-7.36,0
1556,1556,26.75,25.24,29.24,0
1557,1557,26.76,26.55,-13.98,0
1558,1558,26.77,2.64,-11.08,0
1559,1559,26.78,7.78,23.87,0
1560,1560,26.8,-0.26,-16.22,0
1561,1561,26.81,-28.8,-13.75,0
1562,1562,26.82,-20.69,11.45,0
1563,1563,26.84,-4.99,-42.56,0
1564,1564,26.85,-0.72,-40.12,0
1565,1565,26.86,22.53,4.61,0
1566,1566,26.88,25.39,-38.86,0
1567,1567,26.89,1.48,-52.28,0
1568,1568,26.9,7.12,-26.3,0
1569,1569,26.92,12.6,-64.35,0
1570,1570,26.93,-4.98,-48.57,0
1571,1571,26.94,-0.43,-0.92,0
1572,1572,26.96,9.12,-51.52,0
1573,1573,26.97,7.32,-61.85,0
1574,1574,26.98,14.1,-20.55,0
1575,1575,27.0,1.15,-60.67,0
1576,1576,27.01,-14.1,-56.6,0
1577,1577,27.02,4.65,-2.33,0
1578,1578,27.04,3.66,-46.31,0
1579,1579,27.05,-10.5,-66.29,0
1580,1580,27.065,8.64,-28.24,0
1581,1581,27.08,2.14,-63.3,0
1582,1582,27.09,-28.12,-62.74,0
1583,1583,27.11,-12.26,-11.77,0
1584,1584,27.12,4.71,-45.2,0
1585,1585,27.13,-1.39,-42.32,0
1586,1586,27.15,14.42,14.0,0
1587,1587,27.16,15.04,-26.72,0
1588,1588,27.17,-5.8,-41.71,0
1589,1589,27.19,7.17,3.14,0
1590,1590,27.2,13.95,-39.35,0
1591,1591,27.21,-4.32,-47.65,0
1592,1592,27.23,2.7,10.58,0
1593,1593,27.24,3.34,-25.56,0
1594,1594,27.25,-14.26,-41.94,0
1595,1595,27.27,-1.92,3.96,0
1596,1596,27.28,3.7,-38.11,0
1597,1597,27.29,-10.74,-46.53,0
1598,1598,27.3,6.67,16.91,0
1599,1599,27.32,17.02,-20.45,0
1600,1600,27.33,-2.97,-40.14,0
1601,1601,27.34,4.91,17.08,0
1602,1602,27.36,17.47,-19.81,0
1603,1603,27.37,2.94,-45.16,0
1604,1604,27.38,5.49,0.23,0
1605,1605,27.4,10.03,-40.6,0
1606,1606,27.41,-4.44,-47.45,0
1607,1607,27.42,-0.71,25.43,0
1608,1608,27.44,-0.65,-10.77,0
1609,1609,27.45,-18.84,-32.84,0
1610,1610,27.46,-14.85,32.95,0
1611,1611,27.48,-11.26,-6.38,0
1612,1612,27.49,-19.33,-42.41,0
1613,1613,27.5,-4.4,15.76,0
1614,1614,27.52,-2.39,-10.31,0
1615,1615,27.53,-21.87,-28.16,0
1616,1616,27.54,-3.13,34.26,0
1617,1617,27.56,25.83,-1.47,0
1618,1618,27.57,18.67,-29.83,0
1619,1619,27.58,5.38,30.02,0
1620,1620,27.6,-10.14,-2.99,0
1621,1621,27.61,-23.31,-29.46,0
1622,1622,27.62,-7.27,31.29,0
1623,1623,27.64,-1.48,-0.9,0
1624,1624,27.65,-13.62,-26.42,0
1625,1625,27.67,7.17,35.69,0
1626,1626,27.68,20.06,1.26,0
1627,1627,27.69,-6.88,-27.87,0
1628,1628,27.7,-10.49,38.33,0
1629,1629,27.72,-1.72,14.1,0
1630,1630,27.73,-21.78,-6.06,0
1631,1631,27.75,-26.5,56.57,0
1632,1632,27.76,-12.96,10.19,0
1633,1633,27.77,-9.88,-28.88,0
1634,1634,27.79,2.5,41.42,0
1635,1635,27.8,5.74,14.46,0
1636,1636,27.81,-6.56,-19.76,0
1637,1637,27.83,9.97,42.87,0
1638,1638,27.84,19.12,10.79,0
1639,1639,27.85,-6.41,-20.8,0
1640,1640,27.87,-3.09,51.55,0
1641,1641,27.88,11.64,25.93,0
1642,1642,27.89,-6.14,-12.55,0
1643,1643,27.91,-7.23,45.59,0
1644,1644,27.92,9.25,10.44,0
1645,1645,27.93,7.46,-27.44,0
1646,1646,27.94,12.37,39.02,0
1647,1647,27.96,12.17,13.63,0
1648,1648,27.97,-11.39,-16.63,0
1649,1649,27.98,-13.64,55.27,0
1650,1650,28.0,-5.02,27.86,0
1651,1651,28.01,-13.47,-12.85,0
1652,1652,28.02,-0.76,54.24,0
1653,1653,28.04,15.49,27.22,0
1654,1654,28.05,0.6,-21.88,0
1655,1655,28.06,-4.49,37.28,0
1656,1656,28.08,-3.23,17.51,0
1657,1657,28.09,-14.7,-18.68,0
1658,1658,28.1,1.88,44.96,0
1659,1659,28.12,23.15,23.72,0
1660,1660,28.13,11.83,-12.67,0
1661,1661,28.14,11.34,52.97,0
1662,1662,28.16,11.81,40.5,0
1663,1663,28.17,-12.72,31.56,0
1664,1664,28.18,-14.08,140.43,0
1665,1665,28.2,-1.18,159.07,0
1666,1666,28.21,-1.04,153.34,0
1667,1667,28.22,16.99,242.87,0
1668,1668,28.24,19.76,207.95,0
1669,1669,28.25,-6.63,105.49,0
1670,1670,28.26,7.0,104.74,0
1671,1671,28.28,23.0,46.36,0
1672,1672,28.29,-3.9,-28.61,0
1673,1673,28.3,-3.87,-8.17,0
1674,1674,28.32,-1.09,-70.22,0
1675,1675,28.33,-38.92,-151.77,0
1676,1676,28.34,-31.97,-117.77,0
1677,1677,28.36,7.21,-142.24,0
1678,1678,28.37,0.26,-176.89,0
1679,1679,28.39,0.12,-105.15,0
1680,1680,28.4,18.24,-108.6,0
1681,1681,28.41,1.55,-133.89,0
1682,1682,28.43,-8.42,-58.19,0
1683,1683,28.44,-0.68,-66.53,0
1684,1684,28.45,-8.91,-105.97,0
1685,1685,28.47,5.01,-40.7,0
1686,1686,28.48,24.12,-49.27,0
1687,1687,28.49,4.07,-90.11,0
1688,1688,28.51,0.79,-31.39,0
1689,1689,28.52,8.32,-38.47,0
1690,1690,28.53,-21.74,-71.33,0
1691,1691,28.55,-22.68,-15.35,0
1692,1692,28.56,10.51,-38.55,0
1693,1693,28.57,5.6,-85.0,0
1694,1694,28.58,1.99,-20.82,0
1695,1695,28.6,13.61,-20.48,0
1696,1696,28.61,-2.9,-57.24,0
1697,1697,28.62,-2.27,-1.55,0
1698,1698,28.64,14.06,-8.25,0
1699,1699,28.65,1.74,-46.61,0
1700,1700,28.67,14.42,8.2,0
1701,1701,28.68,40.28,4.53,0
1702,1702,28.69,15.43,-27.67,0
1703,1703,28.7,-1.25,28.87,0
1704,1704,28.72,6.66,12.02,0
1705,1705,28.73,-11.42,-44.92,0
1706,1706,28.75,-7.57,4.93,0
1707,1707,28.76,18.98,10.43,0
1708,1708,28.77,6.94,-26.07,0
1709,1709,28.78,2.25,23.34,0
1710,1710,28.8,15.58,20.79,0
1711,1711,28.81,-1.53,-20.46,0
1712,1712,28.82,1.08,28.02,0
1713,1713,28.84,22.42,31.59,0
1714,1714,28.85,-4.65,2.13,0
1715,1715,28.86,-18.86,52.75,0
1716,1716,28.88,11.97,36.19,0
1717,1717,28.89,7.64,-21.67,0
1718,1718,28.9,-14.32,23.47,0
1719,1719,28.92,-11.83,27.74,0
1720,1720,28.93,-15.96,-8.6,0
1721,1721,28.94,-8.99,43.44,0
1722,1722,28.96,5.99,41.56,0
1723,1723,28.97,-9.4,-13.72,0
1724,1724,28.98,-6.52,21.51,0
1725,1725,29.0,13.38,26.49,0
1726,1726,29.01,-8.02,-4.63,0
1727,1727,29.03,-16.49,49.59,0
1728,1728,29.04,3.79,53.77,0
1729,1729,29.05,-7.09,2.05,0
1730,1730,29.07,-8.18,39.0,0
1731,1731,29.08,8.02,45.88,0
1732,1732,29.09,-15.03,1.62,0
1733,1733,29.11,-24.04,38.78,0
1734,1734,29.12,0.95,44.45,0
1735,1735,29.13,0.49,-3.42,0
1736,1736,29.15,2.23,26.7,0
1737,1737,29.16,6.98,31.4,0
1738,1738,29.17,-21.06,-15.06,0
1739,1739,29.19,-10.51,10.33,0
1740,1740,29.2,34.66,14.42,0
1741,1741,29.21,17.8,-18.85,0
1742,1742,29.22,-10.73,26.56,0
1743,1743,29.24,2.11,40.24,0
1744,1744,29.25,-2.59,-3.56,0
1745,1745,29.26,-4.22,28.32,0
1746,1746,29.28,13.36,37.71,0
1747,1747,29.29,-2.28,-14.84,0
1748,1748,29.3,-7.88,7.49,0
1749,1749,29.32,8.59,26.97,0
1750,1750,29.33,-16.19,-4.66,0
1751,1751,29.34,-28.23,23.61,0
1752,1752,29.36,-0.64,27.83,0
1753,1753,29.37,-4.43,-20.73,0
1754,1754,29.38,-7.41,12.93,0
1755,1755,29.4,10.22,39.78,0
1756,1756,29.41,-7.24,-0.79,0
1757,1757,29.42,-13.93,17.29,0
1758,1758,29.44,8.89,28.26,0
1759,1759,29.45,1.18,-15.13,0
1760,1760,29.46,4.14,8.21,0
1761,1761,29.48,22.38,26.66,0
1762,1762,29.49,-9.39,-14.65,0
1763,1763,29.5,-25.76,7.05,0
1764,1764,29.52,-0.08,26.57,0
1765,1765,29.53,-12.0,-15.56,0
1766,1766,29.54,-17.67,2.95,0
1767,1767,29.56,10.91,19.76,0
1768,1768,29.57,0.37,-25.39,0
1769,1769,29.58,-9.06,-1.17,0
1770,1770,29.6,9.4,31.56,0
1771,1771,29.61,-10.16,-11.09,0
1772,1772,29.62,-18.22,-8.43,0
1773,1773,29.64,12.71,2.15,0
1774,1774,29.65,1.43,-34.62,0
1775,1775,29.67,-13.39,2.54,0
1776,1776,29.68,9.73,34.88,0
1777,1777,29.69,5.89,-27.28,0
1778,1778,29.71,0.83,-25.95,0
1779,1779,29.72,17.72,12.44,0
1780,1780,29.73,2.05,-18.14,0
1781,1781,29.75,-2.08,-3.01,0
1782,1782,29.76,21.67,24.36,0
1783,1783,29.77,1.75,-23.6,0
1784,1784,29.79,-13.12,-14.82,0
1785,1785,29.8,7.86,18.83,0
1786,1786,29.81,-3.97,-27.7,0
1787,1787,29.83,-4.31,-25.51,0
1788,1788,29.84,27.3,10.1,0
1789,1789,29.85,9.78,-29.03,0
1790,1790,29.86,-6.66,-26.88,0
1791,1791,29.88,16.19,7.73,0
1792,1792,29.89,-1.28,-23.62,0
1793,1793,29.9,-19.52,-10.43,0
1794,1794,29.92,3.92,23.52,0
1795,1795,29.93,-2.02,-23.69,0
1796,1796,29.94,-9.46,-24.49,0
1797,1797,29.96,14.85,8.79,0
1798,1798,29.97,10.01,-30.81,0
1799,1799,29.98,5.52,-15.34,0
1800,1800,30.0,24.84,33.72,0
1801,1801,30.01,12.15,-16.0,0
1802,1802,30.02,7.15,-26.33,0
1803,1803,30.04,18.94,16.12,0
1804,1804,30.05,-23.57,-19.83,0
1805,1805,30.06,-51.18,-18.27,0
1806,1806,30.08,-19.41,21.97,0
1807,1807,30.09,-18.58,-24.04,0
1808,1808,30.1,-19.49,-22.0,0
1809,1809,30.12,16.29,26.52,0
1810,1810,30.13,13.56,-26.5,0
1811,1811,30.14,7.83,-35.1,0
1812,1812,30.16,34.2,32.13,0
1813,1813,30.17,9.98,14.06,0
1814,1814,30.18,-25.19,23.13,0
1815,1815,30.2,-2.84,83.89,0
1816,1816,30.21,23.45,59.52,0
1817,1817,30.22,47.62,89.29,0
1818,1818,30.24,46.9,188.42,0
1819,1819,30.25,-19.73,203.44,0
1820,1820,30.26,-31.24,210.33,0
1821,1821,30.28,39.46,179.39,0
1822,1822,30.29,52.05,107.93,0
1823,1823,30.3,26.79,196.82,0
1824,1824,30.32,21.04,254.08,0
1825,1825,30.33,-9.07,45.01,0
1826,1826,30.35,-25.36,-63.51,0
1827,1827,30.36,-18.37,108.88,0
1828,1828,30.37,-55.02,133.48,0
1829,1829,30.39,-64.14,-52.1,0
1830,1830,30.4,-3.71,-73.01,0
1831,1831,30.41,-1.26,46.31,0
1832,1832,30.43,-43.5,42.95,0
1833,1833,30.44,-22.37,-108.97,0
1834,1834,30.45,-5.51,-218.02,0
1835,1835,30.47,-24.78,-128.74,0
1836,1836,30.48,-7.07,-6.88,0
1837,1837,30.49,19.76,-48.28,0
1838,1838,30.5,31.24,-150.68,0
1839,1839,30.52,30.69,-254.84,0
1840,1840,30.53,-12.59,-337.66,0
1841,1841,30.54,-29.52,-267.16,0
1842,1842,30.56,7.93,-218.83,0
1843,1843,30.57,1.1,-333.03,0
1844,1844,30.58,-18.53,-252.86,0
1845,1845,30.6,2.01,-12.59,0
1846,1846,30.61,-7.58,-64.73,0
1847,1847,30.62,-18.62,-202.5,0
1848,1848,30.64,6.31,-129.9,0
1849,1849,30.65,-4.66,-100.5,0
1850,1850,30.67,-4.07,-123.23,0
1851,1851,30.68,45.38,-87.39,0
1852,1852,30.69,28.52,-121.65,0
1853,1853,30.7,-20.56,-113.43,0
1854,1854,30.72,1.31,-55.45,0
1855,1855,30.73,16.51,-124.81,0
1856,1856,30.75,-2.29,-109.2,0
1857,1857,30.76,-1.67,10.93,0
1858,1858,30.77,-12.81,-56.48,0
1859,1859,30.78,-10.15,-134.38,0
1860,1860,30.8,21.63,-52.66,0
1861,1861,30.81,-3.19,-28.26,0
1862,1862,30.82,-34.19,-23.93,0
1863,1863,30.84,0.52,46.18,0
1864,1864,30.85,19.72,15.09,0
1865,1865,30.86,14.58,-29.79,0
1866,1866,30.88,20.38,27.51,0
1867,1867,30.89,2.19,23.5,0
1868,1868,30.9,0.49,13.58,0
1869,1869,30.92,31.0,57.34,0
1870,1870,30.93,11.83,-9.24,0
1871,1871,30.94,-18.11,-50.05,0
1872,1872,30.96,-0.8,14.16,0
1873,1873,30.97,-4.32,-21.15,0
1874,1874,30.99,-25.23,-12.3,0
1875,1875,31.0,-19.21,96.23,0
1876,1876,31.01,-10.8,29.2,0
1877,1877,31.03,18.8,-30.36,0
1878,1878,31.04,46.03,86.84,0
1879,1879,31.05,1.09,78.11,0
1880,1880,31.07,-33.44,12.76,0
1881,1881,31.08,-2.48,100.17,0
1882,1882,31.09,-0.19,131.66,0
1883,1883,31.11,-12.99,94.08,0
1884,1884,31.12,6.93,92.02,0
1885,1885,31.13,2.61,7.24,0
1886,1886,31.14,-0.78,-33.58,0
1887,1887,31.16,16.48,56.82,0
1888,1888,31.17,-14.21,43.72,0
1889,1889,31.18,-28.95,7.95,0
1890,1890,31.2,16.24,80.82,0
1891,1891,31.21,2.71,61.44,0
1892,1892,31.22,-43.54,27.46,0
1893,1893,31.24,-18.57,108.94,0
1894,1894,31.25,13.63,92.32,0
1895,1895,31.26,23.32,40.45,0
1896,1896,31.28,36.11,100.05,0
1897,1897,31.29,12.94,92.89,0
1898,1898,31.3,-0.47,84.29,0
1899,1899,31.32,28.9,181.46,0
1900,1900,31.33,21.82,160.75,0
1901,1901,31.34,13.42,67.38,0
1902,1902,31.36,44.19,57.29,0
1903,1903,31.37,19.94,5.57,0
1904,1904,31.38,-20.48,-1.45,0
1905,1905,31.4,8.63,105.0,0
1906,1906,31.41,14.46,86.6,0
1907,1907,31.42,-19.73,36.91,0
1908,1908,31.44,-16.4,105.5,0
1909,1909,31.45,-5.71,74.12,0
1910,1910,31.46,9.05,-4.21,0
1911,1911,31.48,28.33,27.71,0
1912,1912,31.49,-10.97,16.07,0
1913,1913,31.5,-41.6,21.08,0
1914,1914,31.52,-3.84,110.32,0
1915,1915,31.53,2.63,63.52,0
1916,1916,31.54,-22.5,-1.93,0
1917,1917,31.56,-12.07,78.51,0
1918,1918,31.57,-11.88,79.19,0
1919,1919,31.58,-17.92,31.96,0
1920,1920,31.6,5.78,65.37,0
1921,1921,31.61,6.97,4.8,0
1922,1922,31.63,-7.08,-46.33,0
1923,1923,31.64,-6.0,73.13,0
1924,1924,31.65,-18.63,118.64,0
1925,1925,31.67,-2.49,55.98,0
1926,1926,31.68,38.15,44.96,0
1927,1927,31.69,8.54,-2.73,0
1928,1928,31.71,-30.08,-33.27,0
1929,1929,31.72,-4.61,45.24,0
1930,1930,31.73,2.48,42.83,0
1931,1931,31.75,-2.21,17.11,0
1932,1932,31.76,26.97,97.99,0
1933,1933,31.77,17.64,65.28,0
1934,1934,31.78,-14.75,-29.41,0
1935,1935,31.8,-8.3,15.94,0
1936,1936,31.81,-12.54,24.53,0
1937,1937,31.82,-16.28,-22.59,0
1938,1938,31.84,17.15,5.49,0
1939,1939,31.85,25.66,-8.42,0
1940,1940,31.86,8.7,-24.52,0
1941,1941,31.88,-0.57,32.11,0
1942,1942,31.89,-24.96,-6.02,0
1943,1943,31.9,-24.61,-64.57,0
1944,1944,31.92,8.35,-29.46,0
1945,1945,31.93,-9.02,-80.19,0
1946,1946,31.94,-34.65,-146.66,0
1947,1947,31.96,-9.78,-63.8,0
1948,1948,31.97,-9.29,-21.03,0
1949,1949,31.98,-21.98,-57.29,0
1950,1950,32.0,0.11,-25.36,0
1951,1951,32.01,-2.39,-24.12,0
1952,1952,32.03,-10.5,-72.12,0
1953,1953,32.04,7.22,-40.94,0
1954,1954,32.05,-18.68,-5.17,0
1955,1955,32.06,-39.81,-15.58,0
1956,1956,32.08,-1.16,-14.27,0
1957,1957,32.09,-0.57,-43.72,0
1958,1958,32.11,-17.78,-58.82,0
1959,1959,32.12,19.47,3.43,0
1960,1960,32.13,23.24,-1.43,0
1961,1961,32.15,-12.84,-64.22,0
1962,1962,32.16,-7.56,-45.08,0
1963,1963,32.17,2.84,-41.07,0
1964,1964,32.19,1.48,-60.85,0
1965,1965,32.2,15.51,-7.24,0
1966,1966,32.21,11.2,-4.95,0
1967,1967,32.22,6.88,-40.78,0
1968,1968,32.24,22.56,10.12,0
1969,1969,32.25,-3.66,-1.96,0
1970,1970,32.27,-35.95,-102.67,0
1971,1971,32.28,-12.12,-136.52,0
1972,1972,32.29,0.51,-193.74,0
1973,1973,32.31,-5.45,-303.63,0
1974,1974,32.32,16.04,-320.17,0
1975,1975,32.33,21.28,-301.56,0
1976,1976,32.35,10.73,-292.21,0
1977,1977,32.36,17.2,-215.61,0
1978,1978,32.37,8.97,-158.66,0
1979,1979,32.39,5.51,-132.44,0
1980,1980,32.4,23.25,-35.78,0
1981,1981,32.41,5.83,17.56,0
1982,1982,32.43,-14.56,-3.98,0
1983,1983,32.44,9.61,39.62,0
1984,1984,32.45,12.42,67.09,0
1985,1985,32.47,-4.87,34.6,0
1986,1986,32.48,10.37,76.2,0
1987,1987,32.49,15.38,112.4,0
1988,1988,32.51,3.96,81.54,0
1989,1989,32.52,7.13,104.57,0
1990,1990,32.53,-8.27,116.25,0
1991,1991,32.54,-15.1,75.81,0
1992,1992,32.56,20.06,105.94,0
1993,1993,32.57,21.73,118.09,0
1994,1994,32.59,-5.81,56.73,0
1995,1995,32.6,4.56,72.77,0
1996,1996,32.61,11.52,103.49,0
1997,1997,32.63,4.12,67.63,0
1998,1998,32.64,16.43,92.46,0
1999,1999,32.65,4.37,123.41,0
2000,2000,32.67,-20.38,76.82,0
2001,2001,32.68,-3.41,77.84,0
2002,2002,32.69,0.23,96.15,0
2003,2003,32.71,-25.98,64.54,0
2004,2004,32.72,-17.6,91.22,0
2005,2005,32.73,5.4,115.83,0
2006,2006,32.75,13.97,64.9,0
2007,2007,32.76,24.69,75.64,0
2008,2008,32.77,11.91,103.5,0
2009,2009,32.79,-9.91,55.42,0
2010,2010,32.8,-1.28,63.29,0
2011,2011,32.81,-5.74,99.89,0
2012,2012,32.83,-21.92,65.66,0
2013,2013,32.84,-2.19,69.21,0
2014,2014,32.85,12.22,84.42,0
2015,2015,32.87,7.85,36.85,0
2016,2016,32.88,18.45,52.4,0
2017,2017,32.89,8.38,84.73,0
2018,2018,32.9,-15.59,28.78,0
2019,2019,32.92,-4.67,25.44,0
2020,2020,32.93,0.27,57.84,0
2021,2021,32.95,-8.26,14.97,0
2022,2022,32.96,10.93,23.42,0
2023,2023,32.97,13.2,60.6,0
2024,2024,32.99,-9.75,6.68,0
2025,2025,33.0,-4.11,-0.93,0
2026,2026,33.01,3.03,38.07,0
2027,2027,33.03,-5.25,-4.55,0
2028,2028,33.04,5.61,-13.97,0
2029,2029,33.05,13.82,16.09,0
2030,2030,33.06,10.91,-22.78,0
2031,2031,33.08,16.63,-13.68,0
2032,2032,33.09,0.2,29.56,0
2033,2033,33.11,-23.43,-18.94,0
2034,2034,33.12,-10.56,-31.22,0
2035,2035,33.13,-4.74,0.5,0
2036,2036,33.15,-14.6,-43.76,0
2037,2037,33.16,1.16,-40.47,0
2038,2038,33.17,2.58,2.55,0
2039,2039,33.19,-17.04,-49.6,0
2040,2040,33.2,-6.07,-54.31,0
2041,2041,33.21,2.52,0.36,0
2042,2042,33.22,-7.78,-43.88,0
2043,2043,33.24,3.27,-60.13,0
2044,2044,33.25,4.42,-16.07,0
2045,2045,33.27,-14.88,-59.58,0
2046,2046,33.28,-11.34,-69.51,0
2047,2047,33.29,-7.96,-13.62,0
2048,2048,33.31,-11.63,-46.81,0
2049,2049,33.32,6.04,-58.15,0
2050,2050,33.33,6.98,-14.36,0
2051,2051,33.35,-11.4,-61.23,0
2052,2052,33.36,-1.14,-72.53,0
2053,2053,33.37,8.18,-13.39,0
2054,2054,33.38,-0.57,-52.24,0
2055,2055,33.4,8.06,-70.68,0
2056,2056,33.41,11.11,-15.51,0
2057,2057,33.43,3.51,-51.08,0
2058,2058,33.44,17.48,-69.92,0
2059,2059,33.45,13.97,-20.27,0
2060,2060,33.47,-10.47,-59.09,0
2061,2061,33.48,-2.1,-70.3,0
2062,2062,33.49,5.2,-5.66,0
2063,2063,33.51,-7.83,-41.8,0
2064,2064,33.52,2.21,-70.8,0
2065,2065,33.53,4.22,-23.2,0
2066,2066,33.54,-12.27,-51.82,0
2067,2067,33.56,1.73,-57.58,0
2068,2068,33.57,7.89,-3.14,0
2069,2069,33.59,-13.53,-52.02,0
2070,2070,33.6,-5.07,-71.09,0
2071,2071,33.61,6.35,1.45,0
2072,2072,33.63,-10.47,-28.9,0
2073,2073,33.64,-10.16,-52.01,0
2074,2074,33.65,-5.65,15.44,0
2075,2075,33.67,-17.9,-16.7,0
2076,2076,33.68,-8.7,-53.49,0
2077,2077,33.69,3.57,-3.26,0
2078,2078,33.71,-4.2,-37.13,0
2079,2079,33.72,3.12,-58.84,0
2080,2080,33.73,7.11,7.3,0
2081,2081,33.75,-9.09,-27.67,0
2082,2082,33.76,-4.21,-65.62,0
2083,2083,33.77,2.99,-4.64,0
2084,2084,33.79,-4.66,-18.03,0
2085,2085,33.8,9.59,-31.56,0
2086,2086,33.81,16.16,23.52,0
2087,2087,33.83,0.48,-19.32,0
2088,2088,33.84,8.12,-46.36,0
2089,2089,33.85,4.32,22.82,0
2090,2090,33.87,-24.09,-7.77,0
2091,2091,33.88,-8.36,-37.87,0
2092,2092,33.89,17.68,25.59,0
2093,2093,33.9,4.57,-11.67,0
2094,2094,33.92,4.68,-47.4,0
2095,2095,33.93,10.58,25.02,0
2096,2096,33.95,-7.62,2.53,0
2097,2097,33.96,-4.06,-36.29,0
2098,2098,33.97,5.21,24.75,0
2099,2099,33.99,-14.57,5.68,0
2100,2100,34.0,-15.62,-24.03,0
2101,2101,34.01,-3.86,34.5,0
2102,2102,34.03,-13.92,9.51,0
2103,2103,34.04,-9.18,-17.96,0
2104,2104,34.05,2.11,41.91,0
2105,2105,34.06,-7.56,9.84,0
2106,2106,34.08,-1.74,-19.86,0
2107,2107,34.09,6.52,48.1,0
2108,2108,34.11,-4.72,12.82,0
2109,2109,34.12,5.64,-36.13,0
2110,2110,34.13,16.01,29.66,0
2111,2111,34.15,1.85,22.26,0
2112,2112,34.16,14.37,-0.9,0
2113,2113,34.17,29.36,63.84,0
2114,2114,34.19,7.93,22.57,0
2115,2115,34.2,7.98,-66.13,0
2116,2116,34.21,18.06,-65.58,0
2117,2117,34.23,-4.02,-117.66,0
2118,2118,34.24,9.58,-155.7,0
2119,2119,34.25,56.44,-89.93,0
2120,2120,34.27,52.41,-101.27,0
2121,2121,34.28,25.49,-121.64,0
2122,2122,34.29,17.4,-53.46,0
2123,2123,34.31,11.63,-70.76,0
2124,2124,34.32,14.45,-79.64,0
2125,2125,34.33,7.54,23.22,0
2126,2126,34.35,-17.99,25.38,0
2127,2127,34.36,-15.8,2.84,0
2128,2128,34.37,-7.71,89.96,0
2129,2129,34.38,-32.23,98.03,0
2130,2130,34.4,-40.25,89.86,0
2131,2131,34.41,-25.59,174.48,0
2132,2132,34.43,-31.45,149.26,0
2133,2133,34.44,-25.83,91.75,0
2134,2134,34.45,6.54,157.09,0
2135,2135,34.47,11.41,161.76,0
2136,2136,34.48,-11.46,134.79,0
2137,2137,34.49,-28.23,184.45,0
2138,2138,34.51,-30.75,145.58,0
2139,2139,34.52,-15.64,94.17,0
2140,2140,34.53,-13.77,156.39,0
2141,2141,34.54,-28.76,138.63,0
2142,2142,34.56,-10.42,81.98,0
2143,2143,34.57,3.5,119.6,0
2144,2144,34.59,-20.95,85.22,0
2145,2145,34.6,-2.27,27.08,0
2146,2146,34.61,36.66,76.41,0
2147,2147,34.63,9.01,64.99,0
2148,2148,34.64,-14.3,25.05,0
2149,2149,34.65,6.06,71.77,0
2150,2150,34.67,3.91,46.29,0
2151,2151,34.68,-3.11,1.66,0
2152,2152,34.69,-3.79,58.53,0
2153,2153,34.71,-19.79,41.52,0
2154,2154,34.72,-3.91,-10.6,0
2155,2155,34.73,22.29,32.71,0
2156,2156,34.75,5.47,9.47,0
2157,2157,34.76,4.21,-43.12,0
2158,2158,34.77,20.71,3.0,0
2159,2159,34.79,5.1,-12.79,0
2160,2160,34.8,0.96,-58.2,0
2161,2161,34.81,2.07,-3.62,0
2162,2162,34.83,-25.55,-8.57,0
2163,2163,34.84,-16.15,-52.69,0
2164,2164,34.85,17.59,-8.45,0
2165,2165,34.87,4.07,-19.68,0
2166,2166,34.88,-8.35,-58.01,0
2167,2167,34.89,2.0,-4.81,0
2168,2168,34.91,-8.54,-16.72,0
2169,2169,34.92,-10.11,-65.33,0
2170,2170,34.93,-2.49,-17.07,0
2171,2171,34.95,-21.64,-24.08,0
2172,2172,34.96,-17.65,-70.48,0
2173,2173,34.97,10.36,-25.05,0
2174,2174,34.99,3.38,-35.51,0
2175,2175,35.0,-3.46,-83.5,0
2176,2176,35.01,6.38,-27.19,0
2177,2177,35.03,-4.99,-17.77,0
2178,2178,35.04,-3.79,-64.72,0
2179,2179,35.05,9.82,-28.29,0
2180,2180,35.06,-2.2,-30.35,0
2181,2181,35.08,9.57,-70.41,0
2182,2182,35.09,35.99,-22.06,0
2183,2183,35.11,15.34,-18.24,0
2184,2184,35.12,5.84,-59.57,0
2185,2185,35.13,14.81,-12.18,0
2186,2186,35.15,-21.16,-8.66,0
2187,2187,35.16,-30.7,-59.22,0
2188,2188,35.17,11.02,-21.73,0
2189,2189,35.19,13.31,-13.26,0
2190,2190,35.2,4.81,-55.48,0
2191,2191,35.21,20.95,-22.65,0
2192,2192,35.22,10.43,-23.92,0
2193,2193,35.24,2.09,-68.13,0
2194,2194,35.25,14.56,-24.97,0
2195,2195,35.27,10.19,-6.88,0
2196,2196,35.28,21.49,-42.83,0
2197,2197,35.29,28.51,-15.34,0
2198,2198,35.31,-12.87,-17.2,0
2199,2199,35.32,-16.08,-55.76,0
2200,2200,35.33,17.66,-14.9,0
2201,2201,35.35,-4.3,-6.17,0
2202,2202,35.36,-17.83,-51.19,0
2203,2203,35.37,10.84,-18.87,0
2204,2204,35.38,2.98,-3.9,0
2205,2205,35.4,-3.58,-37.5,0
2206,2206,35.41,18.07,-1.84,0
2207,2207,35.43,7.53,4.83,0
2208,2208,35.44,3.36,-43.17,0
2209,2209,35.45,17.9,-11.02,0
2210,2210,35.47,-7.6,8.79,0
2211,2211,35.48,-18.46,-28.09,0
2212,2212,35.49,2.86,0.81,0
2213,2213,35.51,-11.41,9.42,0
2214,2214,35.52,-13.23,-36.9,0
2215,2215,35.53,13.19,-2.07,0
2216,2216,35.55,-1.61,25.05,0
2217,2217,35.56,-12.13,-17.99,0
2218,2218,35.57,2.51,2.99,0
2219,2219,35.59,-10.81,28.36,0
2220,2220,35.6,-3.08,-6.05,0
2221,2221,35.61,24.8,9.41,0
2222,2222,35.63,0.84,19.25,0
2223,2223,35.64,-9.33,-18.44,0
2224,2224,35.65,20.27,11.78,0
2225,2225,35.67,11.65,35.58,0
2226,2226,35.68,3.52,-9.52,0
2227,2227,35.69,19.14,2.1,0
2228,2228,35.71,-0.32,17.69,0
2229,2229,35.72,-8.15,-24.96,0
2230,2230,35.73,10.46,-2.06,0
2231,2231,35.75,-9.34,32.06,0
2232,2232,35.76,-11.41,-3.53,0
2233,2233,35.77,22.29,5.15,0
2234,2234,35.79,5.97,19.23,0
2235,2235,35.8,-13.54,-19.71,0
2236,2236,35.81,4.67,8.96,0
2237,2237,35.83,-6.91,40.08,0
2238,2238,35.84,-13.5,-10.75,0
2239,2239,35.85,8.11,-0.41,0
2240,2240,35.87,-7.71,33.57,0
2241,2241,35.88,-17.57,-12.42,0
2242,2242,35.89,1.35,-7.8,0
2243,2243,35.9,-17.31,30.9,0
2244,2244,35.92,-20.56,2.85,0
2245,2245,35.93,18.29,15.48,0
2246,2246,35.95,13.23,40.94,0
2247,2247,35.96,-4.13,-5.78,0
2248,2248,35.97,5.86,4.32,0
2249,2249,35.99,-9.87,41.46,0
2250,2250,36.0,-12.2,0.92,0
2251,2251,36.01,13.91,8.22,0
2252,2252,36.03,-5.65,41.09,0
2253,2253,36.04,-20.85,-8.73,0
2254,2254,36.05,1.86,-5.31,0
2255,2255,36.06,-15.97,42.51,0
2256,2256,36.08,-33.2,2.0,0
2257,2257,36.09,-7.06,-8.54,0
2258,2258,36.11,-4.52,28.71,0
2259,2259,36.12,-2.56,2.51,0
2260,2260,36.13,16.11,15.72,0
2261,2261,36.15,1.07,56.61,0
2262,2262,36.16,2.0,5.63,0
2263,2263,36.17,22.11,-5.52,0
2264,2264,36.19,-7.68,39.71,0
2265,2265,36.2,-17.67,21.76,0
2266,2266,36.21,10.59,65.64,0
2267,2267,36.23,-16.76,176.77,0
2268,2268,36.24,-33.93,199.8,0
2269,2269,36.25,13.36,222.36,0
2270,2270,36.27,15.14,249.2,0
2271,2271,36.28,-14.37,160.44,0
2272,2272,36.29,-1.89,99.4,0
2273,2273,36.31,0.02,102.65,0
2274,2274,36.32,-1.31,21.15,0
2275,2275,36.33,20.34,-40.82,0
2276,2276,36.35,12.16,-43.01,0
2277,2277,36.36,6.99,-117.55,0
2278,2278,36.37,21.97,-159.48,0
2279,2279,36.38,-1.33,-133.91,0
2280,2280,36.4,-5.6,-168.01,0
2281,2281,36.41,27.05,-155.65,0
2282,2282,36.43,5.06,-89.77,0
2283,2283,36.44,-17.7,-124.82,0
2284,2284,36.45,14.58,-130.82,0
2285,2285,36.47,21.15,-67.79,0
2286,2286,36.48,13.24,-101.76,0
2287,2287,36.49,19.52,-116.04,0
2288,2288,36.51,-11.06,-55.49,0
2289,2289,36.52,-25.99,-82.52,0
2290,2290,36.53,4.99,-95.07,0
2291,2291,36.54,-0.55,-40.51,0
2292,2292,36.56,-9.55,-69.33,0
2293,2293,36.57,15.21,-71.18,0
2294,2294,36.59,0.0,-3.88,0
2295,2295,36.6,-16.64,-34.35,0
2296,2296,36.61,10.12,-48.96,0
2297,2297,36.63,3.74,5.32,0
2298,2298,36.64,-12.9,-36.68,0
2299,2299,36.65,2.97,-52.73,0
2300,2300,36.67,-4.4,16.4,0
2301,2301,36.68,-3.89,-16.09,0
2302,2302,36.69,24.99,-42.8,0
2303,2303,36.71,10.57,16.37,0
2304,2304,36.72,-2.24,-9.38,0
2305,2305,36.73,17.91,-23.52,0
2306,2306,36.75,-10.28,40.34,0
2307,2307,36.76,-34.4,8.75,0
2308,2308,36.77,0.28,-13.53,0
2309,2309,36.79,3.96,46.19,0
2310,2310,36.8,-10.82,13.15,0
2311,2311,36.81,-1.07,-6.05,0
2312,2312,36.83,-17.99,61.06,0
2313,2313,36.84,-18.64,26.76,0
2314,2314,36.85,19.76,-5.1,0
2315,2315,36.87,11.95,53.16,0
2316,2316,36.88,-5.55,19.4,0
2317,2317,36.89,10.15,-10.47,0
2318,2318,36.9,-6.4,50.84,0
2319,2319,36.92,-18.67,21.77,0
2320,2320,36.93,8.3,-4.69,0
2321,2321,36.95,0.87,58.73,0
2322,2322,36.96,-13.86,28.1,0
2323,2323,36.97,-1.06,-1.98,0
2324,2324,36.99,-17.02,62.74,0
2325,2325,37.0,-16.83,34.7,0
2326,2326,37.01,20.4,2.6,0
2327,2327,37.03,5.46,63.6,0
2328,2328,37.04,-17.65,32.05,0
2329,2329,37.05,2.66,-3.81,0
2330,2330,37.06,-7.25,55.76,0
2331,2331,37.08,-16.37,23.03,0
2332,2332,37.09,10.34,-15.24,0
2333,2333,37.11,-3.09,46.31,0
2334,2334,37.12,-17.8,20.96,0
2335,2335,37.13,8.88,-8.21,0
2336,2336,37.15,0.08,60.71,0
2337,2337,37.16,-10.71,32.38,0
2338,2338,37.17,16.73,-11.51,0
2339,2339,37.19,5.77,47.53,0
2340,2340,37.2,-12.56,23.43,0
2341,2341,37.21,5.35,-14.57,0
2342,2342,37.22,-4.91,45.8,0
2343,2343,37.24,-6.89,29.5,0
2344,2344,37.25,27.95,1.39,0
2345,2345,37.27,12.62,52.24,0
2346,2346,37.28,-14.58,12.63,0
2347,2347,37.29,4.27,-21.73,0
2348,2348,37.31,-1.53,46.09,0
2349,2349,37.32,-11.12,18.17,0
2350,2350,37.33,13.11,-20.97,0
2351,2351,37.35,1.6,45.19,0
2352,2352,37.36,-12.06,21.47,0
2353,2353,37.37,15.07,-17.5,0
2354,2354,37.38,5.59,52.22,0
2355,2355,37.4,-15.65,34.27,0
2356,2356,37.41,4.3,-14.93,0
2357,2357,37.43,2.59,32.84,0
2358,2358,37.44,-9.0,8.46,0
2359,2359,37.45,3.84,-29.88,0
2360,2360,37.47,-7.57,21.58,0
2361,2361,37.48,-12.45,-8.77,0
2362,2362,37.49,9.89,-39.98,0
2363,2363,37.51,-5.55,36.9,0
2364,2364,37.52,-10.64,20.48,0
2365,2365,37.53,28.57,-29.85,0
2366,2366,37.54,22.96,20.98,0
2367,2367,37.56,4.02,3.06,0
2368,2368,37.57,23.74,-33.51,0
2369,2369,37.59,10.42,24.79,0
2370,2370,37.6,-7.74,6.33,0
2371,2371,37.61,13.99,-32.49,0
2372,2372,37.63,0.18,25.94,0
2373,2373,37.64,-22.33,7.1,0
2374,2374,37.65,-0.54,-37.18,0
2375,2375,37.67,-5.24,15.65,0
2376,2376,37.68,-18.75,-6.79,0
2377,2377,37.69,8.0,-56.22,0
2378,2378,37.71,9.69,-1.13,0
2379,2379,37.72,1.82,-7.98,0
2380,2380,37.73,22.9,-42.82,0
2381,2381,37.75,4.11,11.86,0
2382,2382,37.76,-28.05,-7.79,0
2383,2383,37.77,-17.05,-53.63,0
2384,2384,37.79,-20.05,5.37,0
2385,2385,37.8,-19.23,0.15,0
2386,2386,37.81,18.1,-46.41,0
2387,2387,37.83,14.44,-7.91,0
2388,2388,37.84,-9.7,-25.57,0
2389,2389,37.85,4.86,-58.33,0
2390,2390,37.87,0.09,6.8,0
2391,2391,37.88,-9.75,2.17,0
2392,2392,37.89,14.25,-36.73,0
2393,2393,37.9,2.87,25.1,0
2394,2394,37.92,-17.26,21.51,0
2395,2395,37.93,10.42,-35.18,0
2396,2396,37.95,12.1,0.57,0
2397,2397,37.96,-7.2,-4.64,0
2398,2398,37.97,4.45,-43.4,0
2399,2399,37.99,-3.39,6.03,0
2400,2400,38.0,-14.6,5.26,0
2401,2401,38.01,6.86,-36.29,0
2402,2402,38.03,2.37,5.88,0
2403,2403,38.04,-7.85,3.15,0
2404,2404,38.05,9.93,-31.75,0
2405,2405,38.06,-5.88,15.51,0
2406,2406,38.08,-24.81,9.17,0
2407,2407,38.09,1.72,-35.84,0
2408,2408,38.11,2.12,2.9,0
2409,2409,38.12,-14.56,-1.98,0
2410,2410,38.13,7.27,-34.9,0
2411,2411,38.15,14.88,21.75,0
2412,2412,38.16,6.93,26.38,0
2413,2413,38.17,18.95,-9.62,0
2414,2414,38.19,9.45,50.97,0
2415,2415,38.2,0.66,77.61,0
2416,2416,38.21,17.04,54.55,0
2417,2417,38.22,-5.57,76.76,0
2418,2418,38.24,-23.7,31.18,0
2419,2419,38.25,10.82,-18.99,0
2420,2420,38.27,7.62,7.51,0
2421,2421,38.28,-17.28,-111.29,0
2422,2422,38.29,-0.92,-230.09,0
2423,2423,38.31,-5.87,-87.35,0
2424,2424,38.32,-19.29,-4.56,0
2425,2425,38.33,12.49,18.77,0
2426,2426,38.35,23.46,336.51,0
2427,2427,38.36,-4.79,584.1,0
2428,2428,38.37,-13.13,416.92,0
2429,2429,38.38,-12.6,227.96,0
2430,2430,38.4,-15.04,252.92,0
2431,2431,38.41,9.1,274.99,0
2432,2432,38.43,30.45,200.24,0
2433,2433,38.44,24.71,138.57,0
2434,2434,38.45,16.61,124.04,0
2435,2435,38.47,1.92,102.87,0
2436,2436,38.48,-9.64,63.69,0
2437,2437,38.49,-10.58,20.61,0
2438,2438,38.51,-27.57,-58.13,0
2439,2439,38.52,-18.42,-174.41,0
2440,2440,38.53,25.16,-218.51,0
2441,2441,38.54,12.65,-164.69,0
2442,2442,38.56,-25.5,-148.45,0
2443,2443,38.57,-16.82,-172.6,0
2444,2444,38.59,-21.84,-205.91,0
2445,2445,38.6,-36.22,-345.57,0
2446,2446,38.61,0.33,-419.36,0
2447,2447,38.63,32.51,-242.02,0
2448,2448,38.64,40.34,-118.45,0
2449,2449,38.65,43.66,-223.05,0
2450,2450,38.67,4.5,-294.94,0
2451,2451,38.68,-23.16,-236.31,0
2452,2452,38.69,15.29,-161.02,0
2453,2453,38.71,24.97,-119.79,0
2454,2454,38.72,-5.12,-174.26,0
2455,2455,38.73,3.59,-295.67,0
2456,2456,38.75,12.34,-290.02,0
2457,2457,38.76,1.83,-147.36,0
2458,2458,38.77,15.17,-43.24,0
2459,2459,38.79,9.82,-15.93,0
2460,2460,38.8,-19.87,-38.53,0
2461,2461,38.81,-15.85,-83.9,0
2462,2462,38.83,-9.57,-72.7,0
2463,2463,38.84,-15.03,-42.9,0
2464,2464,38.85,7.89,-72.76,0
2465,2465,38.87,19.59,-106.6,0
2466,2466,38.88,0.4,-125.56,0
2467,2467,38.89,-0.51,-128.54,0
2468,2468,38.9,9.48,-57.23,0
2469,2469,38.92,10.21,-5.66,0
2470,2470,38.93,7.77,-36.48,0
2471,2471,38.95,-5.86,-15.63,0
2472,2472,38.96,-5.12,17.61,0
2473,2473,38.97,18.2,-6.93,0
2474,2474,38.99,8.31,44.71,0
2475,2475,39.0,-21.8,113.88,0
2476,2476,39.01,-21.44,69.97,0
2477,2477,39.03,-17.37,8.44,0
2478,2478,39.04,-8.18,-47.87,0
2479,2479,39.05,26.68,-95.46,0
2480,2480,39.06,28.74,-30.49,0
2481,2481,39.08,-2.97,42.42,0
2482,2482,39.09,-4.95,19.55,0
2483,2483,39.11,1.89,56.12,0
2484,2484,39.12,-0.36,127.95,0
2485,2485,39.13,13.02,86.82,0
2486,2486,39.15,6.84,60.54,0
2487,2487,39.16,-19.66,86.72,0
2488,2488,39.17,-13.68,62.51,0
2489,2489,39.19,-6.06,96.37,0
2490,2490,39.2,-19.34,154.58,0
2491,2491,39.21,-17.69,87.96,0
2492,2492,39.22,-21.92,64.5,0
2493,2493,39.24,-24.68,123.12,0
2494,2494,39.25,12.31,79.29,0
2495,2495,39.27,27.15,38.8,0
2496,2496,39.28,-1.57,86.14,0
2497,2497,39.29,-9.6,105.84,0
2498,2498,39.31,-9.87,136.93,0
2499,2499,39.32,-20.17,156.34,0
2500,2500,39.33,-12.25,81.41,0
2501,2501,39.35,-10.18,54.26,0
2502,2502,39.36,-11.46,86.91,0
2503,2503,39.37,19.44,72.47,0
2504,2504,39.38,31.74,122.31,0
2505,2505,39.4,6.19,201.45,0
2506,2506,39.41,3.49,128.27,0
2507,2507,39.43,5.54,32.3,0
2508,2508,39.44,-9.44,46.28,0
2509,2509,39.45,-1.61,67.88,0
2510,2510,39.47,2.67,86.23,0
2511,2511,39.48,-9.99,76.52,0
2512,2512,39.49,0.97,-26.28,0
2513,2513,39.51,2.72,-39.88,0
2514,2514,39.52,-13.81,61.01,0
2515,2515,39.53,-2.5,42.42,0
2516,2516,39.54,1.29,-7.3,0
2517,2517,39.56,-15.17,31.86,0
2518,2518,39.57,-4.57,38.97,0
2519,2519,39.59,2.75,66.06,0
2520,2520,39.6,-9.92,105.33,0
2521,2521,39.61,-1.2,42.45,0
2522,2522,39.63,4.49,49.68,0
2523,2523,39.64,-5.21,137.26,0
2524,2524,39.65,4.46,102.23,0
2525,2525,39.67,7.13,67.03,0
2526,2526,39.68,-2.7,84.04,0
2527,2527,39.69,11.12,16.35,0
2528,2528,39.71,15.85,9.07,0
2529,2529,39.72,6.08,63.39,0
2530,2530,39.73,18.96,-15.25,0
2531,2531,39.75,11.4,-24.09,0
2532,2532,39.76,-20.17,76.23,0
2533,2533,39.77,-3.82,-15.25,0
2534,2534,39.79,21.9,-97.46,0
2535,2535,39.8,-1.67,36.36,0
2536,2536,39.81,-20.39,77.05,0
2537,2537,39.83,-11.06,3.38,0
2538,2538,39.84,-1.56,-3.84,0
2539,2539,39.85,3.15,-42.59,0
2540,2540,39.87,-9.1,-66.94,0
2541,2541,39.88,-10.09,7.25,0
2542,2542,39.89,20.76,12.94,0
2543,2543,39.9,12.02,-22.57,0
2544,2544,39.92,-30.28,22.26,0
2545,2545,39.93,-17.1,16.91,0
2546,2546,39.95,17.92,-33.07,0
2547,2547,39.96,13.99,-24.23,0
2548,2548,39.97,5.91,-46.65,0
2549,2549,39.99,6.72,-62.75,0
2550,2550,40.0,9.12,-23.52,0
2551,2551,40.01,22.47,-46.26,0
2552,2552,40.03,8.05,-27.45,0
2553,2553,40.04,-28.66,59.99,0
2554,2554,40.05,-24.76,-12.51,0
2555,2555,40.07,-13.9,-113.51,0
2556,2556,40.08,-20.66,-75.51,0
2557,2557,40.09,5.29,-74.69,0
2558,2558,40.11,24.49,-45.61,0
2559,2559,40.12,3.07,75.13,0
2560,2560,40.13,-3.86,60.5,0
2561,2561,40.15,-0.76,11.19,0
2562,2562,40.16,2.0,51.36,0
2563,2563,40.17,24.3,-7.81,0
2564,2564,40.19,16.83,-58.72,0
2565,2565,40.2,-13.33,24.62,0
2566,2566,40.21,10.51,24.93,0
2567,2567,40.22,35.91,-10.81,0
2568,2568,40.24,8.88,53.81,0
2569,2569,40.25,3.79,57.14,0
2570,2570,40.27,19.29,23.99,0
2571,2571,40.28,6.49,41.9,0
2572,2572,40.29,8.61,-20.87,0
2573,2573,40.31,13.9,-101.72,0
2574,2574,40.32,-18.07,-144.12,0
2575,2575,40.33,-22.73,-277.28,0
2576,2576,40.35,7.19,-347.82,0
2577,2577,40.36,8.18,-268.74,0
2578,2578,40.37,1.5,-274.21,0
2579,2579,40.38,1.61,-288.34,0
2580,2580,40.4,-12.87,-182.41,0
2581,2581,40.41,-13.14,-148.17,0
2582,2582,40.43,-4.56,-127.53,0
2583,2583,40.44,-10.21,-10.07,0
2584,2584,40.45,-2.1,9.04,0
2585,2585,40.47,-2.11,-9.72,0
2586,2586,40.48,-27.97,61.73,0
2587,2587,40.49,-22.26,50.79,0
2588,2588,40.51,-3.78,21.84,0
2589,2589,40.52,-16.74,93.84,0
2590,2590,40.53,-13.18,83.91,0
2591,2591,40.54,4.8,46.01,0
2592,2592,40.56,-4.94,99.65,0
2593,2593,40.57,-4.5,68.55,0
2594,2594,40.59,5.88,7.21,0
2595,2595,40.6,-7.98,46.37,0
2596,2596,40.61,-0.59,26.45,0
2597,2597,40.63,23.39,-6.71,0
2598,2598,40.64,14.46,57.84,0
2599,2599,40.65,10.26,51.52,0
2600,2600,40.67,11.66,20.28,0
2601,2601,40.68,-13.31,80.77,0
2602,2602,40.69,-14.14,68.14,0
2603,2603,40.71,5.91,29.14,0
2604,2604,40.72,0.41,78.94,0
2605,2605,40.73,7.07,51.53,0
2606,2606,40.75,18.04,4.34,0
2607,2607,40.76,-8.38,64.67,0
2608,2608,40.77,-15.17,57.03,0
2609,2609,40.79,6.56,20.63,0
2610,2610,40.8,3.84,82.7,0
2611,2611,40.81,6.96,73.26,0
2612,2612,40.83,12.74,24.87,0
2613,2613,40.84,-13.79,68.02,0
2614,2614,40.85,-13.72,56.21,0
2615,2615,40.87,9.12,27.32,0
2616,2616,40.88,-7.11,83.17,0
2617,2617,40.89,-16.51,55.57,0
2618,2618,40.9,-3.46,1.8,0
2619,2619,40.92,-8.94,61.45,0
2620,2620,40.93,0.8,60.74,0
2621,2621,40.95,14.23,13.4,0
2622,2622,40.96,-9.11,58.23,0
2623,2623,40.97,-7.66,56.52,0
2624,2624,40.99,16.89,18.36,0
2625,2625,41.0,1.71,54.07,0
2626,2626,41.01,-2.4,27.47,0
2627,2627,41.03,13.8,-20.74,0
2628,2628,41.04,-9.65,32.65,0
2629,2629,41.05,-19.92,26.53,0
2630,2630,41.06,2.18,-17.22,0
2631,2631,41.08,-10.14,36.84,0
2632,2632,41.09,-18.04,30.38,0
2633,2633,41.11,6.5,-23.9,0
2634,2634,41.12,2.95,22.15,0
2635,2635,41.13,-6.98,20.54,0
2636,2636,41.15,2.24,-35.03,0
2637,2637,41.16,-4.33,2.17,0
2638,2638,41.17,-0.12,9.84,0
2639,2639,41.19,14.61,-26.32,0
2640,2640,41.2,-0.16,11.33,0
2641,2641,41.21,3.67,6.48,0
2642,2642,41.22,26.82,-34.0,0
2643,2643,41.24,2.3,5.56,0
2644,2644,41.25,-22.62,-3.92,0
2645,2645,41.27,-8.77,-51.14,0
2646,2646,41.28,-6.96,-4.42,0
2647,2647,41.29,-1.56,-1.23,0
2648,2648,41.31,12.89,-55.82,0
2649,2649,41.32,-7.62,-26.2,0
2650,2650,41.33,-14.87,-16.76,0
2651,2651,41.35,9.85,-54.22,0
2652,2652,41.36,6.86,-27.7,0
2653,2653,41.37,4.04,-27.88,0
2654,2654,41.38,17.62,-56.3,0
2655,2655,41.4,4.96,-12.19,0
2656,2656,41.41,2.31,-12.93,0
2657,2657,41.43,12.05,-62.1,0
2658,2658,41.44,-10.66,-30.55,0
2659,2659,41.45,-11.4,-23.0,0
2660,2660,41.47,12.97,-59.9,0
2661,2661,41.48,-3.44,-23.11,0
2662,2662,41.49,-10.77,-19.48,0
2663,2663,41.51,8.89,-69.69,0
2664,2664,41.52,-3.07,-38.25,0
2665,2665,41.53,-0.65,-20.39,0
2666,2666,41.54,25.31,-57.04,0
2667,2667,41.56,5.0,-25.41,0
2668,2668,41.57,-11.73,-11.85,0
2669,2669,41.59,7.95,-55.16,0
2670,2670,41.6,4.98,-28.89,0
2671,2671,41.61,5.16,-15.29,0
2672,2672,41.63,13.5,-59.86,0
2673,2673,41.64,-15.05,-32.22,0
2674,2674,41.65,-16.61,-4.12,0
2675,2675,41.67,15.65,-37.41,0
2676,2676,41.68,-0.25,-21.61,0
2677,2677,41.69,-12.14,-11.66,0
2678,2678,41.71,10.14,-44.93,0
2679,2679,41.72,-7.4,-16.7,0
2680,2680,41.73,-20.99,-1.73,0
2681,2681,41.75,10.25,-41.73,0
2682,2682,41.76,16.04,-20.31,0
2683,2683,41.77,6.44,-4.24,0
2684,2684,41.79,7.75,-37.02,0
2685,2685,41.8,-6.96,-5.56,0
2686,2686,41.81,3.17,8.64,0
2687,2687,41.83,27.85,-45.65,0
2688,2688,41.84,-1.33,-26.89,0
2689,2689,41.85,-19.24,0.98,0
2690,2690,41.87,10.43,-40.33,0
2691,2691,41.88,6.61,-18.34,0
2692,2692,41.89,-9.73,21.55,0
2693,2693,41.9,1.2,-11.7,0
2694,2694,41.92,-4.14,-4.65,0
2695,2695,41.93,-3.38,14.77,0
2696,2696,41.95,14.24,-22.77,0
2697,2697,41.96,-0.73,-8.51,0
2698,2698,41.97,-8.37,11.43,0
2699,2699,41.99,6.3,-35.64,0
2700,2700,42.0,-9.43,-24.28,0
2701,2701,42.01,-8.44,6.32,0
2702,2702,42.03,18.44,-26.23,0
2703,2703,42.04,0.15,1.72,0
2704,2704,42.05,-11.2,42.56,0
2705,2705,42.06,11.75,-8.64,0
2706,2706,42.08,-6.8,-12.76,0
2707,2707,42.09,-24.08,22.7,0
2708,2708,42.11,0.55,-13.4,0
2709,2709,42.12,-1.58,-13.67,0
2710,2710,42.13,-9.76,19.71,0
2711,2711,42.15,4.45,-5.43,0
2712,2712,42.16,-5.62,-0.12,0
2713,2713,42.17,-2.19,-0.98,0
2714,2714,42.19,26.45,-89.63,0
2715,2715,42.2,19.45,-118.89,0
2716,2716,42.21,26.62,-99.78,0
2717,2717,42.22,56.75,-148.59,0
2718,2718,42.24,27.36,-143.23,0
2719,2719,42.25,-0.83,-91.65,0
2720,2720,42.27,22.81,-116.67,0
2721,2721,42.28,18.09,-101.16,0
2722,2722,42.29,-3.27,-43.07,0
2723,2723,42.31,-8.34,-57.65,0
2724,2724,42.32,-32.89,-25.69,0
2725,2725,42.33,-28.33,48.48,0
2726,2726,42.35,6.59,36.27,0
2727,2727,42.36,-13.64,61.83,0
2728,2728,42.37,-28.92,131.59,0
2729,2729,42.38,-0.64,104.93,0
2730,2730,42.4,-15.04,105.43,0
2731,2731,42.41,-23.42,159.75,0
2732,2732,42.43,18.23,123.83,0
2733,2733,42.44,9.16,112.93,0
2734,2734,42.45,-25.93,166.32,0
2735,2735,42.47,-14.65,139.47,0
2736,2736,42.48,-17.41,129.4,0
2737,2737,42.49,-28.49,166.19,0
2738,2738,42.51,-8.31,119.49,0
2739,2739,42.52,-10.66,106.4,0
2740,2740,42.53,-15.56,148.55,0
2741,2741,42.54,14.23,92.4,0
2742,2742,42.56,14.89,67.07,0
2743,2743,42.57,-5.87,119.23,0
2744,2744,42.59,-8.74,74.78,0
2745,2745,42.6,-27.06,35.86,0
2746,2746,42.61,-25.74,67.91,0
2747,2747,42.63,15.33,23.97,0
2748,2748,42.64,12.61,3.62,0
2749,2749,42.65,-16.48,52.39,0
2750,2750,42.66,-13.71,15.1,0
2751,2751,42.68,-12.44,3.24,0
2752,2752,42.69,0.59,62.98,0
2753,2753,42.71,22.03,22.71,0
2754,2754,42.72,-6.56,-7.21,0
2755,2755,42.73,-23.4,37.49,0
2756,2756,42.75,5.08,-3.85,0
2757,2757,42.76,-4.27,-26.17,0
2758,2758,42.77,-19.57,25.78,0
2759,2759,42.79,2.07,-13.57,0
2760,2760,42.8,-4.42,-34.24,0
2761,2761,42.81,-8.15,21.96,0
2762,2762,42.83,20.16,-23.37,0
2763,2763,42.84,5.32,-60.4,0
2764,2764,42.85,-16.24,-6.26,0
2765,2765,42.87,3.77,-34.44,0
2766,2766,42.88,3.16,-55.6,0
2767,2767,42.89,4.22,3.1,0
2768,2768,42.9,23.95,-33.61,0
2769,2769,42.92,-1.86,-71.67,0
2770,2770,42.93,-18.57,-17.58,0
2771,2771,42.95,10.64,-37.91,0
2772,2772,42.96,3.75,-58.15,0
2773,2773,42.97,-10.34,-3.09,0
2774,2774,42.99,14.27,-33.81,0
2775,2775,43.0,9.94,-58.26,0
2776,2776,43.01,-7.99,-1.67,0
2777,2777,43.03,2.64,-37.64,0
2778,2778,43.04,-2.31,-68.41,0
2779,2779,43.05,1.03,-7.09,0
2780,2780,43.06,26.44,-34.43,0
2781,2781,43.08,9.47,-62.53,0
2782,2782,43.09,-4.81,-1.11,0
2783,2783,43.11,17.92,-27.49,0
2784,2784,43.12,0.58,-57.89,0
2785,2785,43.13,-18.24,-1.33,0
2786,2786,43.15,11.18,-31.07,0
2787,2787,43.16,13.0,-61.86,0
2788,2788,43.17,6.26,-2.24,0
2789,2789,43.19,28.47,-29.21,0
2790,2790,43.2,9.86,-58.03,0
2791,2791,43.21,-13.77,5.47,0
2792,2792,43.22,8.64,-19.68,0
2793,2793,43.24,6.78,-49.25,0
2794,2794,43.25,-0.81,10.68,0
2795,2795,43.27,20.39,-26.68,0
2796,2796,43.28,8.34,-66.06,0
2797,2797,43.29,0.28,5.23,0
2798,2798,43.3,25.43,-11.6,0
2799,2799,43.32,5.89,-44.28,0
2800,2800,43.33,-14.25,23.5,0
2801,2801,43.35,14.0,0.89,0
2802,2802,43.36,6.27,-42.07,0
2803,2803,43.37,-15.74,16.77,0
2804,2804,43.38,4.81,-7.59,0
2805,2805,43.4,7.83,-50.23,0
2806,2806,43.41,5.0,9.25,0
2807,2807,43.43,23.5,-4.65,0
2808,2808,43.44,5.42,-26.17,0
2809,2809,43.45,-11.2,41.81,0
2810,2810,43.47,8.48,6.38,0
2811,2811,43.48,-6.45,-45.49,0
2812,2812,43.49,-19.11,16.13,0
2813,2813,43.51,14.57,-3.1,0
2814,2814,43.52,13.9,-40.69,0
2815,2815,43.53,-3.33,25.87,0
2816,2816,43.54,14.32,7.27,0
2817,2817,43.56,5.12,-37.59,0
2818,2818,43.57,-17.31,20.46,0
2819,2819,43.59,-5.52,7.31,0
2820,2820,43.6,-3.92,-29.41,0
2821,2821,43.61,-1.87,23.65,0
2822,2822,43.63,15.37,2.19,0
2823,2823,43.64,-0.19,-28.91,0
2824,2824,43.65,-7.24,40.4,0
2825,2825,43.67,10.62,19.58,0
2826,2826,43.68,-18.3,-31.89,0
2827,2827,43.69,-40.31,28.4,0
2828,2828,43.71,-4.97,20.72,0
2829,2829,43.72,1.98,-24.61,0
2830,2830,43.73,-8.64,20.16,0
2831,2831,43.75,13.66,1.04,0
2832,2832,43.76,10.55,-29.35,0
2833,2833,43.77,-1.88,41.84,0
2834,2834,43.79,13.26,31.61,0
2835,2835,43.8,-2.47,-12.41,0
2836,2836,43.81,-17.92,43.06,0
2837,2837,43.83,7.75,24.48,0
2838,2838,43.84,-0.66,-28.26,0
2839,2839,43.85,-26.43,26.87,0
2840,2840,43.87,-16.77,25.33,0
2841,2841,43.88,-18.48,-12.35,0
2842,2842,43.89,-13.72,38.55,0
2843,2843,43.9,20.47,26.65,0
2844,2844,43.92,16.74,-12.67,0
2845,2845,43.93,-0.0,34.77,0
2846,2846,43.94,11.15,8.92,0
2847,2847,43.96,-5.57,-38.33,0
2848,2848,43.97,-18.6,24.38,0
2849,2849,43.99,10.42,20.8,0
2850,2850,44.0,4.19,-28.66,0
2851,2851,44.01,-20.29,16.73,0
2852,2852,44.03,-4.37,13.8,0
2853,2853,44.04,-3.98,-21.02,0
2854,2854,44.05,-18.54,30.47,0
2855,2855,44.06,-8.12,24.16,0
2856,2856,44.08,-13.07,-12.58,0
2857,2857,44.09,-17.53,40.53,0
2858,2858,44.11,3.15,25.18,0
2859,2859,44.12,-5.44,-34.05,0
2860,2860,44.13,-14.88,11.67,0
2861,2861,44.15,11.87,17.46,0
2862,2862,44.16,10.09,-16.71,0
2863,2863,44.17,-1.9,57.83,0
2864,2864,44.19,13.35,122.84,0
2865,2865,44.2,-2.88,147.86,0
2866,2866,44.21,-15.65,217.92,0
2867,2867,44.22,16.88,214.41,0
2868,2868,44.24,6.91,157.44,0
2869,2869,44.25,-28.48,164.28,0
2870,2870,44.27,-14.89,115.27,0
2871,2871,44.28,-7.7,27.06,0
2872,2872,44.29,-16.27,25.13,0
2873,2873,44.31,-0.65,-16.38,0
2874,2874,44.32,1.5,-102.78,0
2875,2875,44.33,0.95,-107.09,0
2876,2876,44.35,21.08,-129.4,0
2877,2877,44.36,7.14,-172.17,0
2878,2878,44.37,-13.04,-129.61,0
2879,2879,44.38,11.21,-114.32,0
2880,2880,44.4,16.75,-130.77,0
2881,2881,44.41,1.38,-77.86,0
2882,2882,44.43,18.41,-79.43,0
2883,2883,44.44,28.42,-129.76,0
2884,2884,44.45,20.89,-86.28,0
2885,2885,44.47,23.01,-63.55,0
2886,2886,44.48,6.1,-92.72,0
2887,2887,44.49,-6.46,-45.21,0
2888,2888,44.51,12.15,-21.95,0
2889,2889,44.52,1.21,-57.49,0
2890,2890,44.53,-16.53,-35.27,0
2891,2891,44.54,11.06,-44.31,0
2892,2892,44.56,17.19,-92.23,0
2893,2893,44.57,-1.81,-46.22,0
2894,2894,44.58,5.56,-11.59,0
2895,2895,44.6,-0.15,-41.67,0
2896,2896,44.61,-8.0,-15.75,0
2897,2897,44.63,15.82,-0.72,0
2898,2898,44.64,10.78,-31.09,0
2899,2899,44.65,-13.69,-3.57,0
2900,2900,44.67,-2.75,3.06,0
2901,2901,44.68,-1.27,-34.28,0
2902,2902,44.69,-11.77,4.03,0
2903,2903,44.71,6.69,23.59,0
2904,2904,44.72,7.42,-19.55,0
2905,2905,44.73,-8.75,12.6,0
2906,2906,44.75,4.45,42.28,0
2907,2907,44.76,7.47,1.41,0
2908,2908,44.77,-1.09,13.35,0
2909,2909,44.79,7.99,28.37,0
2910,2910,44.8,-4.79,-1.33,0
2911,2911,44.81,-19.29,31.62,0
2912,2912,44.83,-2.06,54.36,0
2913,2913,44.84,-5.42,12.99,0
2914,2914,44.85,-14.67,30.86,0
2915,2915,44.87,7.36,49.76,0
2916,2916,44.88,6.49,6.97,0
2917,2917,44.89,-10.0,21.62,0
2918,2918,44.9,1.16,46.92,0
2919,2919,44.92,0.36,14.17,0
2920,2920,44.93,-6.52,25.84,0
2921,2921,44.95,11.61,42.16,0
2922,2922,44.96,6.56,8.98,0
2923,2923,44.97,-15.77,29.61,0
2924,2924,44.99,-14.09,48.3,0
2925,2925,45.0,-19.96,1.34,0
2926,2926,45.01,-22.9,16.32,0
2927,2927,45.03,2.3,52.93,0
2928,2928,45.04,2.34,14.51,0
2929,2929,45.05,-13.0,9.88,0
2930,2930,45.06,3.9,27.55,0
2931,2931,45.08,6.91,-3.17,0
2932,2932,45.09,-8.69,15.95,0
2933,2933,45.11,-0.3,47.56,0
2934,2934,45.12,-1.1,16.68,0
2935,2935,45.13,-7.25,36.71,0
2936,2936,45.15,15.18,62.78,0
2937,2937,45.16,13.73,7.07,0
2938,2938,45.17,-15.16,13.44,0
2939,2939,45.19,-11.26,58.11,0
2940,2940,45.2,2.09,16.59,0
2941,2941,45.21,3.23,12.17,0
2942,2942,45.22,12.29,46.41,0
2943,2943,45.24,7.95,3.34,0
2944,2944,45.25,0.4,-5.35,0
2945,2945,45.26,13.67,28.11,0
2946,2946,45.28,7.5,-0.76,0
2947,2947,45.29,-8.33,4.11,0
2948,2948,45.31,4.18,30.09,0
2949,2949,45.32,5.31,-14.11,0
2950,2950,45.33,-4.09,-7.31,0
2951,2951,45.35,7.57,30.04,0
2952,2952,45.36,-0.58,-17.42,0
2953,2953,45.37,-17.8,-18.69,0
2954,2954,45.38,-0.11,25.15,0
2955,2955,45.4,6.81,-15.74,0
2956,2956,45.41,-4.58,-16.67,0
2957,2957,45.43,6.48,30.53,0
2958,2958,45.44,4.47,-11.93,0
2959,2959,45.45,-16.83,-17.54,0
2960,2960,45.47,-9.82,35.56,0
2961,2961,45.48,-1.79,-1.75,0
2962,2962,45.49,-11.97,-15.79,0
2963,2963,45.51,-6.48,27.69,0
2964,2964,45.52,-1.27,-12.87,0
2965,2965,45.53,-1.9,-31.41,0
2966,2966,45.54,12.96,7.95,0
2967,2967,45.56,9.28,-25.47,0
2968,2968,45.57,-8.15,-23.23,0
2969,2969,45.59,4.09,31.33,0
2970,2970,45.6,8.17,-13.44,0
2971,2971,45.61,-6.61,-33.24,0
2972,2972,45.63,1.89,17.49,0
2973,2973,45.64,0.32,-19.04,0
2974,2974,45.65,-19.18,-35.93,0
2975,2975,45.67,-5.67,18.08,0
2976,2976,45.68,9.74,-7.72,0
2977,2977,45.69,0.79,-17.72,0
2978,2978,45.71,4.84,22.49,0
2979,2979,45.72,4.44,-26.54,0
2980,2980,45.73,-11.27,-32.96,0
2981,2981,45.75,-4.32,36.51,0
2982,2982,45.76,-2.33,-3.1,0
2983,2983,45.77,-21.8,-31.08,0
2984,2984,45.79,-10.64,23.61,0
2985,2985,45.8,12.02,-13.37,0
2986,2986,45.81,6.95,-42.99,0
2987,2987,45.83,5.82,8.27,0
2988,2988,45.84,10.48,-16.34,0
2989,2989,45.85,9.62,-23.79,0
2990,2990,45.86,16.07,36.22,0
2991,2991,45.88,4.05,-1.08,0
2992,2992,45.89,-15.8,-26.57,0
2993,2993,45.9,2.58,23.38,0
2994,2994,45.92,15.71,-17.17,0
2995,2995,45.93,-1.75,-38.71,0
2996,2996,45.95,1.89,20.49,0
2997,2997,45.96,10.67,-12.16,0
2998,2998,45.97,-3.25,-26.11,0
2999,2999,45.99,-4.64,38.3,0
3000,3000,46.0,-2.77,-5.31,0
3001,3001,46.01,-10.25,-40.35,0
3002,3002,46.03,5.48,19.56,0
3003,3003,46.04,20.4,-14.24,0
3004,3004,46.05,9.71,-41.44,0
3005,3005,46.06,3.39,28.35,0
3006,3006,46.08,-5.68,1.02,0
3007,3007,46.09,-15.43,-39.45,0
3008,3008,46.11,4.95,7.99,0
3009,3009,46.12,17.27,-22.48,0
3010,3010,46.13,4.3,-41.94,0
3011,3011,46.15,10.48,25.58,0
3012,3012,46.16,11.57,-2.52,0
3013,3013,46.17,-9.39,-20.19,0
3014,3014,46.19,-3.51,62.13,0
3015,3015,46.2,4.14,45.94,0
3016,3016,46.21,-12.89,46.75,0
3017,3017,46.22,7.59,175.46,0
3018,3018,46.24,51.3,191.17,0
3019,3019,46.25,51.37,114.19,0
3020,3020,46.27,27.97,46.34,0
3021,3021,46.28,-1.14,-100.95,0
3022,3022,46.29,-27.85,-165.8,0
3023,3023,46.31,-15.19,-44.28,0
3024,3024,46.32,6.26,58.38,0
3025,3025,46.33,5.26,102.25,0
3026,3026,46.35,9.72,81.2,0
3027,3027,46.36,0.87,-63.04,0
3028,3028,46.37,-26.84,-113.62,0
3029,3029,46.38,-21.27,-22.92,0
3030,3030,46.4,-6.15,-40.74,0
3031,3031,46.41,-15.64,-74.17,0
3032,3032,46.43,-9.72,-19.96,0
3033,3033,46.44,-6.65,-82.77,0
3034,3034,46.45,-31.41,-127.81,0
3035,3035,46.47,-20.73,3.75,0
3036,3036,46.48,15.9,25.61,0
3037,3037,46.49,17.01,-50.43,0
3038,3038,46.5,7.12,6.14,0
3039,3039,46.52,0.61,28.84,0
3040,3040,46.53,-12.29,-42.09,0
3041,3041,46.54,-9.46,-51.51,0
3042,3042,46.56,-7.89,-51.68,0
3043,3043,46.57,-15.07,-49.45,0
3044,3044,46.59,1.58,-24.07,0
3045,3045,46.6,7.23,-51.43,0
3046,3046,46.61,-15.47,-27.82,0
3047,3047,46.63,-7.1,27.98,0
3048,3048,46.64,4.77,-62.42,0
3049,3049,46.65,-21.73,-99.74,0
3050,3050,46.67,-17.34,13.09,0
3051,3051,46.68,16.9,-30.74,0
3052,3052,46.69,9.82,-133.33,0
3053,3053,46.71,-9.81,-38.21,0
3054,3054,46.72,-11.38,37.86,0
3055,3055,46.73,-17.83,30.99,0
3056,3056,46.75,-14.92,69.65,0
3057,3057,46.76,-9.2,20.41,0
3058,3058,46.77,-22.67,-54.35,0
3059,3059,46.79,-15.12,-3.2,0
3060,3060,46.8,8.06,9.39,0
3061,3061,46.81,3.71,-18.2,0
3062,3062,46.83,-0.23,10.15,0
3063,3063,46.84,3.0,-22.77,0
3064,3064,46.85,-2.2,-48.41,0
3065,3065,46.87,9.81,7.06,0
3066,3066,46.88,11.44,-27.83,0
3067,3067,46.89,-16.18,-68.89,0
3068,3068,46.9,-9.12,14.62,0
3069,3069,46.92,15.24,29.7,0
3070,3070,46.93,1.26,-19.3,0
3071,3071,46.95,-1.35,2.8,0
3072,3072,46.96,12.62,-14.53,0
3073,3073,46.97,-2.48,-31.05,0
3074,3074,46.99,-0.05,43.98,0
3075,3075,47.0,18.61,41.48,0
3076,3076,47.01,-0.74,-24.07,0
3077,3077,47.03,-10.11,-24.29,0
3078,3078,47.04,0.38,-21.19,0
3079,3079,47.05,-15.08,29.08,0
3080,3080,47.06,-13.07,101.01,0
3081,3081,47.08,4.9,4.05,0
3082,3082,47.09,-7.18,-86.5,0
3083,3083,47.11,2.08,3.94,0
3084,3084,47.12,34.0,23.25,0
3085,3085,47.13,28.06,-28.88,0
3086,3086,47.14,19.01,43.95,0
3087,3087,47.16,23.92,75.22,0
3088,3088,47.17,15.26,28.28,0
3089,3089,47.18,26.16,67.5,0
3090,3090,47.2,32.02,60.41,0
3091,3091,47.21,-9.71,-16.76,0
3092,3092,47.22,-20.0,5.34,0
3093,3093,47.24,11.42,22.35,0
3094,3094,47.25,3.65,-6.14,0
3095,3095,47.27,-8.52,20.0,0
3096,3096,47.28,11.2,8.9,0
3097,3097,47.29,15.57,11.1,0
3098,3098,47.31,16.26,106.24,0
3099,3099,47.32,19.55,80.83,0
3100,3100,47.33,-0.99,-28.37,0
3101,3101,47.35,-4.7,2.89,0
3102,3102,47.36,-2.14,49.03,0
3103,3103,47.37,-28.9,18.64,0
3104,3104,47.38,-16.41,12.62,0
3105,3105,47.4,19.82,-8.62,0
3106,3106,47.41,2.58,-24.44,0
3107,3107,47.43,-7.03,34.08,0
3108,3108,47.44,6.1,35.09,0
3109,3109,47.45,-14.81,-12.86,0
3110,3110,47.47,-12.24,19.11,0
3111,3111,47.48,19.68,26.23,0
3112,3112,47.49,1.28,-0.67,0
3113,3113,47.51,-23.69,50.04,0
3114,3114,47.52,-9.17,51.01,0
3115,3115,47.53,-2.19,-13.29,0
3116,3116,47.54,5.44,13.31,0
3117,3117,47.56,19.9,38.19,0
3118,3118,47.57,8.63,1.68,0
3119,3119,47.59,13.31,0.86,0
3120,3120,47.6,28.64,-16.45,0
3121,3121,47.61,-6.55,-21.82,0
3122,3122,47.63,-24.97,46.55,0
3123,3123,47.64,8.85,23.39,0
3124,3124,47.65,8.99,-48.94,0
3125,3125,47.67,-9.13,-2.32,0
3126,3126,47.68,-0.25,-8.21,0
3127,3127,47.69,-3.95,-90.0,0
3128,3128,47.71,-7.97,-31.06,0
3129,3129,47.72,-3.61,41.44,0
3130,3130,47.73,-22.55,12.11,0
3131,3131,47.75,-17.76,40.53,0
3132,3132,47.76,13.36,74.95,0
3133,3133,47.77,3.32,26.4,0
3134,3134,47.78,-6.8,3.14,0
3135,3135,47.8,6.18,-9.7,0
3136,3136,47.81,-11.52,-30.68,0
3137,3137,47.82,-12.35,12.71,0
3138,3138,47.84,17.89,29.44,0
3139,3139,47.85,-0.1,-0.14,0
3140,3140,47.86,-20.88,39.75,0
3141,3141,47.88,-0.21,46.22,0
3142,3142,47.89,-4.02,-30.56,0
3143,3143,47.9,-10.2,-27.0,0
3144,3144,47.92,5.86,5.6,0
3145,3145,47.93,-9.96,-21.28,0
3146,3146,47.95,-13.78,-2.7,0
3147,3147,47.96,19.6,18.9,0
3148,3148,47.97,14.96,-0.41,0
3149,3149,47.99,0.37,40.09,0
3150,3150,48.0,11.73,47.03,0
3151,3151,48.01,-4.37,-30.64,0
3152,3152,48.03,-18.97,-26.71,0
3153,3153,48.04,-8.38,5.01,0
3154,3154,48.05,-23.9,-35.12,0
3155,3155,48.06,-30.44,-23.49,0
3156,3156,48.08,-10.35,19.26,0
3157,3157,48.09,-19.98,7.92,0
3158,3158,48.11,-19.54,25.94,0
3159,3159,48.12,10.37,35.8,0
3160,3160,48.13,9.84,-10.24,0
3161,3161,48.15,12.62,20.63,0
3162,3162,48.16,28.57,63.16,0
3163,3163,48.17,-1.57,4.41,0
3164,3164,48.19,-22.35,2.61,0
3165,3165,48.2,0.98,66.92,0
3166,3166,48.21,4.5,70.74,0
3167,3167,48.22,3.34,75.53,0
3168,3168,48.24,5.72,55.08,0
3169,3169,48.25,-19.21,-41.78,0
3170,3170,48.27,-6.84,-83.6,0
3171,3171,48.28,34.31,-112.8,0
3172,3172,48.29,8.21,-225.32,0
3173,3173,48.31,-26.35,-266.96,0
3174,3174,48.32,-8.69,-237.76,0
3175,3175,48.33,-5.27,-259.64,0
3176,3176,48.35,-10.13,-226.14,0
3177,3177,48.36,-3.98,-146.75,0
3178,3178,48.37,-22.61,-136.31,0
3179,3179,48.38,-15.57,-87.24,0
3180,3180,48.4,25.29,-9.92,0
3181,3181,48.41,16.54,-12.9,0
3182,3182,48.42,-2.88,28.21,0
3183,3183,48.44,12.42,104.57,0
3184,3184,48.45,9.74,79.43,0
3185,3185,48.46,12.62,71.74,0
3186,3186,48.48,28.61,110.66,0
3187,3187,48.49,0.99,82.13,0
3188,3188,48.5,-10.78,85.24,0
3189,3189,48.52,21.12,118.79,0
3190,3190,48.53,13.02,68.86,0
3191,3191,48.54,-3.62,66.4,0
3192,3192,48.56,13.18,114.34,0
3193,3193,48.57,3.98,62.34,0
3194,3194,48.59,0.74,37.44,0
3195,3195,48.6,31.89,77.59,0
3196,3196,48.61,21.83,42.25,0
3197,3197,48.63,-3.52,39.11,0
3198,3198,48.64,4.07,85.84,0
3199,3199,48.65,-2.48,33.12,0
3200,3200,48.67,-3.18,11.28,0
3201,3201,48.68,12.47,68.78,0
3202,3202,48.69,-10.98,44.42,0
3203,3203,48.71,-21.35,30.53,0
3204,3204,48.72,7.33,66.82,0
3205,3205,48.73,-1.33,18.82,0
3206,3206,48.75,-10.56,5.91,0
3207,3207,48.76,16.64,61.17,0
3208,3208,48.77,9.75,26.84,0
3209,3209,48.79,-5.79,24.1,0
3210,3210,48.8,7.2,87.39,0
3211,3211,48.81,-7.54,29.12,0
3212,3212,48.83,-15.01,-23.94,0
3213,3213,48.84,14.69,23.32,0
3214,3214,48.85,6.83,3.52,0
3215,3215,48.87,-12.12,-6.51,0
3216,3216,48.88,1.91,47.91,0
3217,3217,48.89,-4.3,10.79,0
3218,3218,48.9,-5.7,-11.15,0
3219,3219,48.92,16.0,44.56,0
3220,3220,48.93,-5.82,8.24,0
3221,3221,48.95,-32.39,-18.13,0
3222,3222,48.96,-22.37,31.79,0
3223,3223,48.97,-28.4,-10.01,0
3224,3224,48.99,-21.45,-32.79,0
3225,3225,49.0,15.26,33.51,0
3226,3226,49.01,18.2,0.28,0
3227,3227,49.03,19.39,-39.3,0
3228,3228,49.04,31.57,0.37,0
3229,3229,49.05,-6.42,-40.24,0
3230,3230,49.06,-28.71,-59.38,0
3231,3231,49.08,1.23,11.91,0
3232,3232,49.09,-6.09,-13.58,0
3233,3233,49.1,-16.11,-44.01,0
3234,3234,49.12,13.14,7.47,0
3235,3235,49.13,3.26,-28.47,0
3236,3236,49.14,-11.93,-56.79,0
3237,3237,49.16,9.97,-0.59,0
3238,3238,49.17,-4.89,-41.2,0
3239,3239,49.19,-20.46,-74.11,0
3240,3240,49.2,7.19,-5.07,0
3241,3241,49.21,0.83,-25.26,0
3242,3242,49.22,-14.56,-51.68,0
3243,3243,49.24,2.83,11.69,0
3244,3244,49.25,-14.16,-13.38,0
3245,3245,49.27,-30.33,-42.9,0
3246,3246,49.28,-2.41,12.14,0
3247,3247,49.29,-7.04,-28.28,0
3248,3248,49.31,-14.97,-69.84,0
3249,3249,49.32,25.89,-6.35,0
3250,3250,49.33,37.08,-19.84,0
3251,3251,49.35,23.52,-43.47,0
3252,3252,49.36,29.42,7.75,0
3253,3253,49.37,5.35,-38.55,0
3254,3254,49.38,-15.25,-80.14,0
3255,3255,49.4,5.53,-8.12,0
3256,3256,49.41,-5.09,-18.74,0
3257,3257,49.43,-24.75,-45.0,0
3258,3258,49.44,-7.13,18.7,0
3259,3259,49.45,-5.61,-14.0,0
3260,3260,49.47,3.94,-67.74,0
3261,3261,49.48,38.44,-13.94,0
3262,3262,49.49,21.06,-21.72,0
3263,3263,49.51,-9.63,-43.01,0
3264,3264,49.52,0.2,8.59,0
3265,3265,49.53,-9.25,-29.05,0
3266,3266,49.54,-18.16,-60.53,0
3267,3267,49.56,6.35,16.64,0
3268,3268,49.57,4.82,2.63,0
3269,3269,49.59,3.67,-40.25,0
3270,3270,49.6,31.36,10.24,0
3271,3271,49.61,16.99,-8.17,0
3272,3272,49.63,-9.5,-27.37,0
3273,3273,49.64,1.15,49.36,0
3274,3274,49.65,-9.37,31.26,0
3275,3275,49.67,-16.58,-17.23,0
3276,3276,49.68,12.65,25.18,0
3277,3277,49.69,4.77,-9.9,0
3278,3278,49.7,-14.07,-53.74,0
3279,3279,49.72,10.7,10.13,0
3280,3280,49.73,14.88,-0.56,0
3281,3281,49.74,3.78,-36.31,0
3282,3282,49.76,17.04,15.58,0
3283,3283,49.77,2.87,-9.42,0
3284,3284,49.78,-19.13,-39.25,0
3285,3285,49.8,-6.7,38.14,0
3286,3286,49.81,-8.54,25.34,0
3287,3287,49.83,-7.62,-22.42,0
3288,3288,49.84,17.18,33.63,0
3289,3289,49.85,1.86,17.24,0
3290,3290,49.87,-15.19,-30.28,0
3291,3291,49.88,9.19,22.49,0
3292,3292,49.89,0.64,11.8,0
3293,3293,49.9,-19.33,-25.28,0
3294,3294,49.92,-3.34,26.7,0
3295,3295,49.93,-11.15,6.48,0
3296,3296,49.95,-23.51,-33.79,0
3297,3297,49.96,-5.2,27.31,0
3298,3298,49.97,-13.01,14.04,0
3299,3299,49.99,-21.77,-32.84,0
3300,3300,50.0,-0.66,27.36,0
3301,3301,50.01,-7.77,33.73,0
3302,3302,50.03,-13.33,-4.85,0
3303,3303,50.04,10.65,23.6,0
3304,3304,50.05,-1.68,-8.75,0
3305,3305,50.06,-14.77,-40.72,0
3306,3306,50.08,14.71,35.96,0
3307,3307,50.09,18.37,36.06,0
3308,3308,50.11,6.71,-14.94,0
3309,3309,50.12,10.01,23.8,0
3310,3310,50.13,-17.87,15.55,0
3311,3311,50.15,-27.7,-14.91,0
3312,3312,50.16,22.13,45.59,0
3313,3313,50.17,39.08,44.38,0
3314,3314,50.19,17.0,-8.41,0
3315,3315,50.2,9.42,-8.53,0
3316,3316,50.21,-6.39,-77.79,0
3317,3317,50.22,6.11,-154.44,0
3318,3318,50.24,57.16,-129.86,0
3319,3319,50.25,52.1,-164.29,0
3320,3320,50.27,17.67,-202.34,0
3321,3321,50.28,11.77,-112.24,0
3322,3322,50.29,-7.73,-80.75,0
3323,3323,50.31,-10.46,-104.71,0
3324,3324,50.32,12.73,-34.81,0
3325,3325,50.33,-18.35,-12.13,0
3326,3326,50.34,-48.44,-34.94,0
3327,3327,50.36,-16.31,40.94,0
3328,3328,50.37,-21.51,77.3,0
3329,3329,50.38,-56.98,56.22,0
3330,3330,50.4,-30.95,116.37,0
3331,3331,50.41,-3.04,140.42,0
3332,3332,50.42,-6.85,109.09,0
3333,3333,50.44,0.21,148.01,0
3334,3334,50.45,-7.32,152.51,0
3335,3335,50.46,-13.98,109.5,0
3336,3336,50.48,9.41,135.11,0
3337,3337,50.49,15.34,136.39,0
3338,3338,50.51,13.93,112.43,0
3339,3339,50.52,19.73,155.64,0
3340,3340,50.53,-5.93,142.83,0
3341,3341,50.54,-5.38,82.66,0
3342,3342,50.56,38.06,110.43,0
3343,3343,50.57,16.79,117.05,0
3344,3344,50.59,-30.76,76.46,0
3345,3345,50.6,-14.05,98.55,0
3346,3346,50.61,-0.68,84.45,0
3347,3347,50.63,-4.83,26.41,0
3348,3348,50.64,16.93,46.12,0
3349,3349,50.65,13.06,43.08,0
3350,3350,50.67,-10.53,-2.29,0
3351,3351,50.68,-10.13,30.38,0
3352,3352,50.69,-20.69,39.97,0
3353,3353,50.71,-14.68,-5.17,0
3354,3354,50.72,29.18,16.89,0
3355,3355,50.73,22.83,17.77,0
3356,3356,50.75,-13.99,-32.36,0
3357,3357,50.76,-3.81,-11.0,0
3358,3358,50.77,0.94,-4.58,0
3359,3359,50.79,-9.28,-47.92,0
3360,3360,50.8,8.5,-19.67,0
3361,3361,50.81,9.15,-4.48,0
3362,3362,50.83,0.7,-45.85,0
3363,3363,50.84,21.85,-24.78,0
3364,3364,50.85,16.82,-15.46,0
3365,3365,50.87,-5.81,-61.11,0
3366,3366,50.88,1.39,-41.7,0
3367,3367,50.89,-8.79,-23.25,0
3368,3368,50.9,-22.48,-58.4,0
3369,3369,50.92,4.6,-38.47,0
3370,3370,50.93,12.4,-19.39,0
3371,3371,50.95,-3.0,-49.57,0
3372,3372,50.96,3.49,-32.19,0
3373,3373,50.97,-3.98,-24.86,0
3374,3374,50.98,-18.49,-59.59,0
3375,3375,51.0,-6.06,-28.65,0
3376,3376,51.01,-6.5,-11.97,0
3377,3377,51.02,-11.63,-65.53,0
3378,3378,51.04,3.64,-54.97,0
3379,3379,51.05,-6.85,-26.16,0
3380,3380,51.06,-19.51,-49.67,0
3381,3381,51.08,6.07,-23.56,0
3382,3382,51.09,7.32,-9.0,0
3383,3383,51.1,-11.23,-68.0,0
3384,3384,51.12,1.81,-60.76,0
3385,3385,51.13,5.88,-24.81,0
3386,3386,51.15,0.38,-55.58,0
3387,3387,51.16,10.61,-48.7,0
3388,3388,51.17,-4.24,-27.21,0
3389,3389,51.19,-17.88,-57.76,0
3390,3390,51.2,6.21,-33.25,0
3391,3391,51.21,9.27,1.15,0
3392,3392,51.22,0.07,-36.82,0
3393,3393,51.24,16.21,-24.77,0
3394,3394,51.25,1.82,5.98,0
3395,3395,51.27,-27.59,-34.67,0
3396,3396,51.28,-9.34,-22.8,0
3397,3397,51.29,5.37,13.43,0
3398,3398,51.31,-6.87,-31.39,0
3399,3399,51.32,-1.64,-32.79,0
3400,3400,51.33,1.52,-0.02,0
3401,3401,51.35,-3.5,-40.37,0
3402,3402,51.36,5.73,-37.84,0
3403,3403,51.37,1.88,2.82,0
3404,3404,51.38,-0.01,-31.87,0
3405,3405,51.4,25.57,-37.5,0
3406,3406,51.41,25.6,-8.15,0
3407,3407,51.43,4.65,-36.61,0
3408,3408,51.44,8.58,-18.9,0
3409,3409,51.45,1.81,23.04,0
3410,3410,51.47,-8.32,-20.04,0
3411,3411,51.48,16.76,-17.86,0
3412,3412,51.49,17.91,28.34,0
3413,3413,51.51,-11.88,-11.1,0
3414,3414,51.52,-7.3,-17.72,0
3415,3415,51.53,4.03,23.31,0
3416,3416,51.54,2.35,-11.77,0
3417,3417,51.56,16.9,-12.18,0
3418,3418,51.57,12.79,29.03,0
3419,3419,51.59,-9.66,-15.67,0
3420,3420,51.6,-4.52,-25.7,0
3421,3421,51.61,-3.78,21.27,0
3422,3422,51.62,-10.85,-7.36,0
3423,3423,51.64,15.02,-6.62,0
3424,3424,51.65,27.59,39.49,0
3425,3425,51.66,10.42,-0.7,0
3426,3426,51.68,13.16,-9.04,0
3427,3427,51.69,5.42,40.3,0
3428,3428,51.7,-26.34,4.11,0
3429,3429,51.72,-25.08,-7.97,0
3430,3430,51.73,-6.57,35.68,0
3431,3431,51.74,2.33,-3.17,0
3432,3432,51.76,15.07,-8.66,0
3433,3433,51.77,6.08,48.71,0
3434,3434,51.79,-11.7,12.68,0
3435,3435,51.8,3.83,-2.2,0
3436,3436,51.81,12.78,48.48,0
3437,3437,51.83,3.66,6.28,0
3438,3438,51.84,15.31,-17.04,0
3439,3439,51.85,17.33,31.44,0
3440,3440,51.87,0.75,-7.74,0
3441,3441,51.88,3.78,-24.12,0
3442,3442,51.89,-3.39,37.85,0
3443,3443,51.9,-29.27,8.16,0
3444,3444,51.92,-23.53,-11.99,0
3445,3445,51.93,-2.48,42.89,0
3446,3446,51.95,8.21,11.85,0
3447,3447,51.96,21.18,-6.5,0
3448,3448,51.97,11.59,52.39,0
3449,3449,51.99,-13.38,24.2,0
3450,3450,52.0,-8.37,-0.35,0
3451,3451,52.01,-2.19,46.76,0
3452,3452,52.03,-12.83,16.88,0
3453,3453,52.04,-8.51,4.48,0
3454,3454,52.05,-10.88,57.05,0
3455,3455,52.06,-19.85,12.46,0
3456,3456,52.08,-0.25,-11.26,0
3457,3457,52.09,7.02,50.61,0
3458,3458,52.11,-7.53,8.55,0
3459,3459,52.12,2.37,-31.63,0
3460,3460,52.13,4.03,35.37,0
3461,3461,52.15,-11.39,49.79,0
3462,3462,52.16,6.33,92.58,0
3463,3463,52.17,20.49,206.86,0
3464,3464,52.19,2.5,183.05,0
3465,3465,52.2,2.74,137.9,0
3466,3466,52.21,10.1,198.32,0
3467,3467,52.22,-5.91,157.61,0
3468,3468,52.24,-19.61,67.11,0
3469,3469,52.25,-34.73,52.72,0
3470,3470,52.26,-43.64,-16.96,0
3471,3471,52.28,-11.82,-71.28,0
3472,3472,52.29,11.98,-50.56,0
3473,3473,52.3,-6.6,-114.88,0
3474,3474,52.32,-12.16,-148.41,0
3475,3475,52.33,-2.9,-75.62,0
3476,3476,52.34,-5.17,-104.62,0
3477,3477,52.36,3.71,-141.17,0
3478,3478,52.37,7.24,-75.54,0
3479,3479,52.38,-3.86,-96.39,0
3480,3480,52.4,4.96,-127.58,0
3481,3481,52.41,6.13,-61.34,0
3482,3482,52.43,-8.38,-74.97,0
3483,3483,52.44,9.14,-99.61,0
3484,3484,52.45,22.1,-37.54,0
3485,3485,52.47,2.87,-58.24,0
3486,3486,52.48,6.55,-77.34,0
3487,3487,52.49,18.03,-0.68,0
3488,3488,52.51,8.45,-23.84,0
3489,3489,52.52,10.99,-70.93,0
3490,3490,52.53,3.12,-19.27,0
3491,3491,52.54,-19.83,-40.32,0
3492,3492,52.56,0.93,-69.81,0
3493,3493,52.57,23.46,-5.02,0
3494,3494,52.59,1.13,-17.05,0
3495,3495,52.6,-3.18,-38.43,0
3496,3496,52.61,9.63,22.34,0
3497,3497,52.63,2.39,-12.41,0
3498,3498,52.64,12.69,-52.85,0
3499,3499,52.65,26.4,15.47,0
3500,3500,52.67,10.77,0.49,0
3501,3501,52.68,5.79,-32.07,0
3502,3502,52.69,2.86,37.93,0
3503,3503,52.71,-17.77,28.12,0
3504,3504,52.72,-12.55,-10.63,0
3505,3505,52.73,0.09,32.93,0
3506,3506,52.75,-8.74,-1.35,0
3507,3507,52.76,2.52,-33.29,0
3508,3508,52.77,14.0,47.59,0
3509,3509,52.79,-4.06,36.91,0
3510,3510,52.8,-0.56,-15.3,0
3511,3511,52.81,12.28,34.94,0
3512,3512,52.83,-1.55,24.73,0
3513,3513,52.84,-2.27,-10.27,0
3514,3514,52.85,-7.37,38.7,0
3515,3515,52.87,-39.67,16.53,0
3516,3516,52.88,-30.69,-9.36,0
3517,3517,52.89,7.87,64.12,0
3518,3518,52.9,13.46,41.52,0
3519,3519,52.92,14.45,-18.96,0
3520,3520,52.93,12.13,31.07,0
3521,3521,52.94,-10.73,27.11,0
3522,3522,52.96,-7.31,-0.72,0
3523,3523,52.97,2.62,56.37,0
3524,3524,52.98,-19.11,31.46,0
3525,3525,53.0,-14.21,-16.22,0
3526,3526,53.01,13.11,46.1,0
3527,3527,53.02,6.37,40.3,0
3528,3528,53.04,-1.39,-4.33,0
3529,3529,53.05,-1.97,43.6,0
3530,3530,53.06,-16.37,33.05,0
3531,3531,53.08,-2.43,-1.11,0
3532,3532,53.09,23.0,51.06,0
3533,3533,53.11,13.76,32.42,0
3534,3534,53.12,6.44,-11.58,0
3535,3535,53.13,-3.42,36.75,0
3536,3536,53.15,-37.22,18.48,0
3537,3537,53.16,-36.83,-24.77,0
3538,3538,53.17,-9.32,33.67,0
3539,3539,53.19,-4.08,32.66,0
3540,3540,53.2,14.2,-7.94,0
3541,3541,53.21,36.83,39.04,0
3542,3542,53.22,15.11,29.72,0
3543,3543,53.24,-6.63,-14.45,0
3544,3544,53.25,-9.41,31.63,0
3545,3545,53.27,-23.34,29.71,0
3546,3546,53.28,-12.98,-7.55,0
3547,3547,53.29,16.01,30.57,0
3548,3548,53.31,15.9,13.84,0
3549,3549,53.32,18.42,-23.75,0
3550,3550,53.33,16.4,31.99,0
3551,3551,53.35,-19.68,25.96,0
3552,3552,53.36,-24.66,-23.68,0
3553,3553,53.37,-1.59,21.55,0
3554,3554,53.38,-6.98,19.93,0
3555,3555,53.4,4.8,-32.47,0
3556,3556,53.41,28.06,2.74,0
3557,3557,53.43,4.44,6.96,0
3558,3558,53.44,-14.19,-27.53,0
3559,3559,53.45,-5.41,19.62,0
3560,3560,53.47,-10.33,27.23,0
3561,3561,53.48,2.74,-17.29,0
3562,3562,53.49,27.3,2.65,0
3563,3563,53.51,15.51,-9.46,0
3564,3564,53.52,9.64,-42.25,0
3565,3565,53.53,10.87,6.89,0
3566,3566,53.54,-18.55,12.69,0
3567,3567,53.56,-17.29,-18.45,0
3568,3568,53.57,13.97,28.01,0
3569,3569,53.58,4.18,21.72,0
3570,3570,53.6,-3.75,-34.29,0
3571,3571,53.61,7.5,-0.39,0
3572,3572,53.62,-13.1,4.4,0
3573,3573,53.64,-20.27,-44.62,0
3574,3574,53.65,5.97,-15.43,0
3575,3575,53.66,6.96,-2.3,0
3576,3576,53.68,0.66,-31.44,0
3577,3577,53.69,3.11,5.27,0
3578,3578,53.7,-9.55,9.16,0
3579,3579,53.72,-2.11,-33.33,0
3580,3580,53.73,9.28,-2.59,0
3581,3581,53.75,-18.59,3.24,0
3582,3582,53.76,-18.05,-36.67,0
3583,3583,53.77,12.19,-5.54,0
3584,3584,53.79,-0.63,1.04,0
3585,3585,53.8,-4.38,-40.1,0
3586,3586,53.81,19.12,-9.92,0
3587,3587,53.83,2.93,1.92,0
3588,3588,53.84,-7.77,-33.33,0
3589,3589,53.85,10.75,-1.31,0
3590,3590,53.87,-3.54,7.26,0
3591,3591,53.88,-11.76,-36.39,0
3592,3592,53.89,10.33,-5.07,0
3593,3593,53.9,2.37,17.64,0
3594,3594,53.92,-11.81,-13.78,0
3595,3595,53.93,-12.88,14.66,0
3596,3596,53.95,-27.83,19.3,0
3597,3597,53.96,-9.97,-38.21,0
3598,3598,53.97,24.99,-15.85,0
3599,3599,53.99,8.12,14.72,0
3600,3600,54.0,1.34,-21.17,0
3601,3601,54.01,24.74,-4.55,0
3602,3602,54.03,5.88,16.85,0
3603,3603,54.04,-10.35,-16.44,0
3604,3604,54.05,8.12,1.23,0
3605,3605,54.06,0.57,14.36,0
3606,3606,54.08,-6.68,-28.0,0
3607,3607,54.09,4.67,-8.24,0
3608,3608,54.11,-8.74,16.0,0
3609,3609,54.12,-10.41,-18.54,0
3610,3610,54.13,3.46,12.77,0
3611,3611,54.15,-18.1,52.87,0
3612,3612,54.16,-24.22,18.91,0
3613,3613,54.17,-0.11,48.14,0
3614,3614,54.18,-4.33,88.92,0
3615,3615,54.2,3.15,47.04,0
3616,3616,54.21,37.86,96.18,0
3617,3617,54.22,43.44,176.08,0
3618,3618,54.24,49.46,153.07,0
3619,3619,54.25,62.93,193.31,0
3620,3620,54.26,32.5,219.85,0
3621,3621,54.28,3.86,141.63,0
3622,3622,54.29,-9.11,207.69,0
3623,3623,54.3,-58.94,341.61,0
3624,3624,54.32,-70.01,280.26,0
3625,3625,54.33,-8.22,153.12,0
3626,3626,54.34,23.2,132.8,0
3627,3627,54.36,40.67,139.71,0
3628,3628,54.37,63.91,97.79,0
3629,3629,54.38,5.08,50.71,0
3630,3630,54.4,-64.46,30.38,0
3631,3631,54.41,-37.16,13.6,0
3632,3632,54.43,27.12,-13.07,0
3633,3633,54.44,67.56,-37.46,0
3634,3634,54.45,36.71,-53.91,0
3635,3635,54.47,-52.47,-69.52,0
3636,3636,54.48,-67.89,-87.36,0
3637,3637,54.49,-11.16,-103.14,0
3638,3638,54.51,5.04,-114.75,0
3639,3639,54.52,-8.46,-124.77,0
3640,3640,54.53,-29.11,-135.02,0
3641,3641,54.54,-58.96,-144.46,0
3642,3642,54.56,-32.26,-152.14,0
3643,3643,54.57,10.36,-158.21,0
3644,3644,54.59,-17.43,-183.24,0
3645,3645,54.6,-25.47,-243.84,0
3646,3646,54.61,4.44,-303.6,0
3647,3647,54.63,-15.32,-335.4,0
3648,3648,54.64,-6.26,-298.23,0
3649,3649,54.65,35.49,-157.38,0
3650,3650,54.67,-17.59,-55.15,0
3651,3651,54.68,-63.14,-97.59,0
3652,3652,54.69,13.04,-164.25,0
3653,3653,54.71,74.51,-186.39,0
3654,3654,54.72,53.03,-202.09,0
3655,3655,54.73,13.18,-215.79,0
3656,3656,54.75,-23.57,-280.27,0
3657,3657,54.76,-21.4,-393.86,0
3658,3658,54.77,6.15,-347.45,0
3659,3659,54.79,-12.28,-145.88,0
3660,3660,54.8,-24.47,-95.89,0
3661,3661,54.81,2.64,-159.93,0
3662,3662,54.82,-1.47,-134.41,0
3663,3663,54.84,-4.08,-130.53,0
3664,3664,54.85,16.72,-153.7,0
3665,3665,54.86,-1.4,-92.04,0
3666,3666,54.88,-9.12,-48.62,0
3667,3667,54.89,12.88,-65.04,0
3668,3668,54.9,-6.72,-117.81,0
3669,3669,54.92,-15.65,-190.35,0
3670,3670,54.93,9.16,-121.86,0
3671,3671,54.94,-7.65,-10.92,0
3672,3672,54.96,-16.21,-118.54,0
3673,3673,54.97,10.4,-239.54,0
3674,3674,54.98,-3.86,-179.9,0
3675,3675,55.0,-4.18,-114.91,0
3676,3676,55.01,35.12,-73.4,0
3677,3677,55.025000000000006,7.64,-36.25,0
3678,3678,55.04,-30.16,-63.86,0
3679,3679,55.05,0.32,-0.95,0
3680,3680,55.06,6.67,151.78,0
3681,3681,55.08,-2.09,133.57,0
3682,3682,55.09,27.86,56.2,0
3683,3683,55.11,26.97,101.55,0
3684,3684,55.12,10.12,92.99,0
3685,3685,55.13,21.27,50.96,0
3686,3686,55.15,9.88,84.49,0
3687,3687,55.16,-0.14,60.36,0
3688,3688,55.17,8.83,59.96,0
3689,3689,55.19,-13.7,156.2,0
3690,3690,55.2,-15.24,139.05,0
3691,3691,55.21,15.48,78.93,0
3692,3692,55.22,1.29,120.55,0
3693,3693,55.24,-0.71,143.09,0
3694,3694,55.25,38.5,175.0,0
3695,3695,55.27,28.04,210.94,0
3696,3696,55.28,8.67,119.87,0
3697,3697,55.29,28.09,83.09,0
3698,3698,55.31,9.21,179.49,0
3699,3699,55.32,-20.73,205.26,0
3700,3700,55.33,-11.0,224.84,0
3701,3701,55.35,-13.17,283.38,0
3702,3702,55.36,-1.69,218.3,0
3703,3703,55.37,33.25,156.85,0
3704,3704,55.38,12.6,201.96,0
3705,3705,55.4,-11.35,168.31,0
3706,3706,55.41,14.39,128.38,0
3707,3707,55.43,7.88,201.76,0
3708,3708,55.44,-9.07,218.22,0
3709,3709,55.45,10.15,198.94,0
3710,3710,55.46,-2.69,214.83,0
3711,3711,55.48,-11.82,151.37,0
3712,3712,55.49,28.47,123.29,0
3713,3713,55.5,21.36,172.69,0
3714,3714,55.52,-16.39,108.82,0
3715,3715,55.53,-6.55,82.23,0
3716,3716,55.54,-5.24,169.48,0
3717,3717,55.56,-10.5,111.04,0
3718,3718,55.57,8.25,64.17,0
3719,3719,55.58,-5.83,186.59,0
3720,3720,55.6,-6.32,154.34,0
3721,3721,55.61,43.77,18.7,0
3722,3722,55.62,42.04,53.7,0
3723,3723,55.64,6.59,74.48,0
3724,3724,55.65,1.7,6.39,0
3725,3725,55.66,-21.18,28.18,0
3726,3726,55.68,-30.59,84.05,0
3727,3727,55.69,-0.26,109.32,0
3728,3728,55.71,-11.57,101.67,0
3729,3729,55.72,-32.39,-4.8,0
3730,3730,55.73,-16.06,-33.27,0
3731,3731,55.75,-23.84,100.96,0
3732,3732,55.76,-23.22,101.93,0
3733,3733,55.77,10.78,-6.75,0
3734,3734,55.79,0.6,-2.38,0
3735,3735,55.8,-8.93,-6.49,0
3736,3736,55.81,18.79,1.9,0
3737,3737,55.83,2.06,110.73,0
3738,3738,55.84,-15.63,93.24,0
3739,3739,55.85,5.4,-9.84,0
3740,3740,55.87,-11.76,1.63,0
3741,3741,55.88,-16.54,14.4,0
3742,3742,55.89,27.51,23.64,0
3743,3743,55.9,14.78,48.76,0
3744,3744,55.92,-16.84,-50.47,0
3745,3745,55.93,9.01,-126.72,0
3746,3746,55.95,9.03,-109.76,0
3747,3747,55.96,-15.35,-197.63,0
3748,3748,55.97,-6.27,-192.39,0
3749,3749,55.99,-20.39,39.45,0
3750,3750,56.0,-46.39,126.31,0
3751,3751,56.01,-32.66,54.47,0
3752,3752,56.03,-17.99,48.86,0
3753,3753,56.04,9.14,-35.47,0
3754,3754,56.05,40.64,-156.53,0
3755,3755,56.06,1.45,-108.55,0
3756,3756,56.08,-28.54,-34.53,0
3757,3757,56.09,19.41,-28.97,0
3758,3758,56.1,32.47,-46.22,0
3759,3759,56.12,1.96,-109.67,0
3760,3760,56.13,-5.0,-73.51,0
3761,3761,56.14,-21.33,72.88,0
3762,3762,56.16,-22.91,59.72,0
3763,3763,56.17,5.73,-39.27,0
3764,3764,56.18,-10.45,-26.52,0
3765,3765,56.2,-24.53,-28.53,0
3766,3766,56.21,6.46,-48.77,0
3767,3767,56.22,-12.64,-8.74,0
3768,3768,56.24,-52.56,-56.99,0
3769,3769,56.25,-31.92,-148.13,0
3770,3770,56.26,-9.08,-148.87,0
3771,3771,56.28,6.49,-209.98,0
3772,3772,56.29,28.94,-303.79,0
3773,3773,56.3,5.59,-280.01,0
3774,3774,56.32,-7.21,-279.28,0
3775,3775,56.33,30.87,-303.05,0
3776,3776,56.35,29.97,-225.75,0
3777,3777,56.36,18.8,-173.99,0
3778,3778,56.37,43.78,-144.85,0
3779,3779,56.38,18.2,-46.67,0
3780,3780,56.4,-18.75,-27.33,0
3781,3781,56.41,6.02,-54.56,0
3782,3782,56.43,6.25,8.45,0
3783,3783,56.44,-15.7,20.64,0
3784,3784,56.45,-1.76,-12.46,0
3785,3785,56.47,-8.46,37.74,0
3786,3786,56.48,-14.64,35.51,0
3787,3787,56.49,14.28,-17.71,0
3788,3788,56.51,-0.52,18.67,0
3789,3789,56.52,-24.22,28.71,0
3790,3790,56.53,3.17,-0.1,0
3791,3791,56.54,3.71,45.89,0
3792,3792,56.56,-9.9,49.89,0
3793,3793,56.57,12.06,14.49,0
3794,3794,56.59,6.1,57.25,0
3795,3795,56.6,-5.19,52.26,0
3796,3796,56.61,19.44,-1.65,0
3797,3797,56.63,9.72,25.32,0
3798,3798,56.64,-10.69,19.33,0
3799,3799,56.65,3.67,-22.78,0
3800,3800,56.67,-5.92,22.55,0
3801,3801,56.68,-8.55,33.59,0
3802,3802,56.69,30.2,-6.37,0
3803,3803,56.71,25.9,28.71,0
3804,3804,56.72,-3.32,39.4,0
3805,3805,56.73,3.68,14.81,0
3806,3806,56.74,-5.54,61.43,0
3807,3807,56.76,-20.97,61.9,0
3808,3808,56.77,-5.89,18.19,0
3809,3809,56.78,-13.67,68.95,0
3810,3810,56.8,-19.47,82.51,0
3811,3811,56.81,9.32,15.7,0
3812,3812,56.82,-1.04,30.44,0
3813,3813,56.84,-22.46,50.81,0
3814,3814,56.85,-0.36,13.63,0
3815,3815,56.86,-4.67,27.72,0
3816,3816,56.88,-17.77,27.16,0
3817,3817,56.89,10.69,-12.59,0
3818,3818,56.9,4.04,16.06,0
3819,3819,56.92,-27.2,23.99,0
3820,3820,56.93,-12.43,-14.91,0
3821,3821,56.94,-1.66,18.39,0
3822,3822,56.96,-4.18,30.67,0
3823,3823,56.97,6.85,-14.8,0
3824,3824,56.99,-14.25,13.66,0
3825,3825,57.0,-25.52,33.39,0
3826,3826,57.01,18.85,-14.65,0
3827,3827,57.03,25.17,-5.1,0
3828,3828,57.04,-1.97,10.31,0
3829,3829,57.05,21.42,-15.87,0
3830,3830,57.06,35.55,16.77,0
3831,3831,57.08,4.25,28.79,0
3832,3832,57.09,-14.57,-22.63,0
3833,3833,57.11,-19.13,0.95,0
3834,3834,57.12,-1.27,27.52,0
3835,3835,57.13,31.86,-24.5,0
3836,3836,57.15,15.49,-13.34,0
3837,3837,57.16,-4.1,33.07,0
3838,3838,57.17,25.98,12.77,0
3839,3839,57.19,25.9,4.42,0
3840,3840,57.2,-4.91,-6.44,0
3841,3841,57.21,-8.38,-40.94,0
3842,3842,57.22,-18.55,-3.06,0
3843,3843,57.24,-15.06,12.63,0
3844,3844,57.25,32.37,-55.99,0
3845,3845,57.27,38.55,-43.43,0
3846,3846,57.28,7.47,9.68,0
3847,3847,57.29,11.96,-11.63,0
3848,3848,57.31,8.38,-4.31,0
3849,3849,57.32,-13.42,4.93,0
3850,3850,57.33,-8.21,-50.85,0
3851,3851,57.35,-7.4,-38.2,0
3852,3852,57.36,-10.41,6.82,0
3853,3853,57.37,-3.22,-28.54,0
3854,3854,57.38,-27.9,-34.0,0
3855,3855,57.4,-37.83,-12.13,0
3856,3856,57.41,6.82,-33.78,0
3857,3857,57.42,16.94,0.5,0
3858,3858,57.44,-4.76,28.93,0
3859,3859,57.45,7.41,-44.02,0
3860,3860,57.46,4.44,-53.69,0
3861,3861,57.48,-14.63,0.68,0
3862,3862,57.49,1.51,-19.08,0
3863,3863,57.5,7.95,-19.58,0
3864,3864,57.52,-1.94,6.3,0
3865,3865,57.53,9.7,-27.79,0
3866,3866,57.54,4.18,-7.27,0
3867,3867,57.56,-11.58,44.94,0
3868,3868,57.57,1.19,-0.65,0
3869,3869,57.58,-4.37,-28.46,0
3870,3870,57.6,-23.13,-9.51,0
3871,3871,57.61,-4.17,-28.46,0
3872,3872,57.63,15.42,6.85,0
3873,3873,57.64,20.93,46.89,0
3874,3874,57.65,30.72,-28.42,0
3875,3875,57.67,9.73,-51.27,0
3876,3876,57.68,-18.55,11.68,0
3877,3877,57.69,-11.05,3.7,0
3878,3878,57.71,-13.57,4.15,0
3879,3879,57.72,-20.87,24.29,0
3880,3880,57.73,3.5,-45.02,0
3881,3881,57.75,9.93,-58.19,0
3882,3882,57.76,0.98,14.98,0
3883,3883,57.77,15.63,5.49,0
3884,3884,57.79,4.26,-8.73,0
3885,3885,57.8,-22.83,12.12,0
3886,3886,57.81,-7.89,-33.44,0
3887,3887,57.83,4.05,-29.79,0
3888,3888,57.84,4.2,31.2,0
3889,3889,57.85,26.44,-1.71,0
3890,3890,57.87,19.01,-17.49,0
3891,3891,57.88,-6.79,19.41,0
3892,3892,57.89,11.56,-25.47,0
3893,3893,57.9,24.98,-36.31,0
3894,3894,57.92,12.17,20.38,0
3895,3895,57.93,10.13,-6.54,0
3896,3896,57.95,-9.52,-15.5,0
3897,3897,57.96,-33.55,30.05,0
3898,3898,57.97,-22.62,-9.5,0
3899,3899,57.99,-23.65,-20.36,0
3900,3900,58.0,-28.92,30.65,0
3901,3901,58.01,11.59,-9.73,0
3902,3902,58.02,37.74,-21.1,0
3903,3903,58.04,17.8,37.38,0
3904,3904,58.05,3.44,-5.2,0
3905,3905,58.06,-16.82,-30.93,0
3906,3906,58.08,-42.69,28.51,0
3907,3907,58.09,-23.72,7.31,0
3908,3908,58.1,8.72,-3.63,0
3909,3909,58.12,17.48,46.23,0
3910,3910,58.13,19.67,-1.07,0
3911,3911,58.14,1.81,-21.7,0
3912,3912,58.16,-14.87,48.81,0
3913,3913,58.17,3.73,0.07,0
3914,3914,58.18,0.44,-80.29,0
3915,3915,58.2,-22.74,-71.43,0
3916,3916,58.21,-1.8,-112.68,0
3917,3917,58.22,14.18,-126.55,0
3918,3918,58.24,6.28,-67.9,0
3919,3919,58.25,33.64,-118.21,0
3920,3920,58.26,41.42,-157.8,0
3921,3921,58.28,-0.68,-83.69,0
3922,3922,58.29,-1.99,-81.68,0
3923,3923,58.31,28.78,-80.42,0
3924,3924,58.32,32.81,5.1,0
3925,3925,58.33,27.06,12.15,0
3926,3926,58.35,8.37,20.61,0
3927,3927,58.36,-8.06,95.12,0
3928,3928,58.37,5.42,71.48,0
3929,3929,58.38,-10.17,59.21,0
3930,3930,58.4,-50.08,136.41,0
3931,3931,58.41,-34.36,115.75,0
3932,3932,58.43,-9.94,89.34,0
3933,3933,58.44,-27.32,153.39,0
3934,3934,58.45,-25.49,135.25,0
3935,3935,58.47,-9.17,113.36,0
3936,3936,58.48,-13.25,166.65,0
3937,3937,58.49,0.08,124.29,0
3938,3938,58.51,22.81,93.01,0
3939,3939,58.52,21.74,165.75,0
3940,3940,58.53,19.1,138.59,0
3941,3941,58.54,13.2,91.88,0
3942,3942,58.56,-1.83,139.19,0
3943,3943,58.57,-5.33,98.23,0
3944,3944,58.59,-16.15,45.56,0
3945,3945,58.6,-27.48,92.94,0
3946,3946,58.61,-2.05,59.39,0
3947,3947,58.63,11.67,14.46,0
3948,3948,58.64,-11.2,67.58,0
3949,3949,58.65,-9.11,39.49,0
3950,3950,58.66,-0.28,-4.82,0
3951,3951,58.68,-17.03,42.21,0
3952,3952,58.69,-13.59,7.93,0
3953,3953,58.7,-3.26,-33.4,0
3954,3954,58.72,-4.05,25.06,0
3955,3955,58.73,18.28,-0.11,0
3956,3956,58.74,17.53,-39.25,0
3957,3957,58.76,-24.08,17.68,0
3958,3958,58.77,-27.78,-8.79,0
3959,3959,58.78,-10.26,-44.76,0
3960,3960,58.8,-15.03,21.79,0
3961,3961,58.81,-0.69,-0.33,0
3962,3962,58.82,15.23,-51.19,0
3963,3963,58.84,1.8,-5.18,0
3964,3964,58.85,0.5,-28.58,0
3965,3965,58.86,2.24,-63.6,0
3966,3966,58.88,-3.27,-4.94,0
3967,3967,58.89,18.83,-26.91,0
3968,3968,58.9,24.07,-62.94,0
3969,3969,58.92,-8.68,-4.31,0
3970,3970,58.93,-8.53,-37.0,0
3971,3971,58.95,7.44,-89.83,0
3972,3972,58.96,-5.31,-27.64,0
3973,3973,58.97,0.31,-36.37,0
3974,3974,58.99,18.94,-79.33,0
3975,3975,59.0,12.72,-29.62,0
3976,3976,59.01,12.79,-43.65,0
3977,3977,59.03,9.59,-75.51,0
3978,3978,59.04,-14.35,-18.5,0
3979,3979,59.05,-11.02,-39.59,0
3980,3980,59.06,3.1,-78.33,0
3981,3981,59.08,-4.85,-12.46,0
3982,3982,59.09,5.3,-23.28,0
3983,3983,59.11,14.63,-70.13,0
3984,3984,59.12,-5.04,-20.47,0
3985,3985,59.13,1.06,-32.44,0
3986,3986,59.15,18.56,-62.48,0
3987,3987,59.16,-0.97,2.4,0
3988,3988,59.17,-12.22,-15.32,0
3989,3989,59.19,-5.25,-70.45,0
3990,3990,59.2,-7.62,-22.18,0
3991,3991,59.21,9.57,-27.68,0
3992,3992,59.22,24.34,-62.46,0
3993,3993,59.24,3.68,-12.41,0
3994,3994,59.25,2.95,-28.68,0
3995,3995,59.27,17.15,-66.62,0
3996,3996,59.28,-3.71,-4.18,0
3997,3997,59.29,-23.04,-8.57,0
3998,3998,59.3,-25.53,-55.82,0
3999,3999,59.32,-22.05,-10.55,0
4000,4000,59.33,14.42,-13.25,0
4001,4001,59.34,35.56,-44.02,0
4002,4002,59.36,0.09,9.83,0
4003,4003,59.37,-14.92,-3.99,0
4004,4004,59.38,-4.39,-52.6,0
4005,4005,59.4,-15.76,2.63,0
4006,4006,59.41,-6.07,8.33,0
4007,4007,59.42,8.93,-35.87,0
4008,4008,59.44,-13.7,1.93,0
4009,4009,59.45,-7.93,-0.37,0
4010,4010,59.46,21.46,-31.71,0
4011,4011,59.48,8.69,17.02,0
4012,4012,59.49,-0.07,9.7,0
4013,4013,59.5,7.96,-34.59,0
4014,4014,59.52,-8.89,9.28,0
4015,4015,59.53,-2.9,12.95,0
4016,4016,59.54,20.67,-20.13,0
4017,4017,59.56,-0.21,19.96,0
4018,4018,59.57,-13.61,13.13,0
4019,4019,59.59,3.74,-22.56,0
4020,4020,59.6,1.87,21.84,0
4021,4021,59.61,7.54,9.05,0
4022,4022,59.63,12.44,-42.16,0
4023,4023,59.64,-20.61,6.94,0
4024,4024,59.65,-19.68,20.63,0
4025,4025,59.67,15.13,-23.85,0
4026,4026,59.68,4.57,3.44,0
4027,4027,59.69,-6.21,6.65,0
4028,4028,59.71,5.66,-22.47,0
4029,4029,59.72,-13.08,23.51,0
4030,4030,59.73,-19.55,29.81,0
4031,4031,59.75,4.91,-14.84,0
4032,4032,59.76,4.48,13.84,0
4033,4033,59.77,1.94,18.42,0
4034,4034,59.79,8.31,-18.96,0
4035,4035,59.8,-5.72,15.57,0
4036,4036,59.81,-0.24,29.12,0
4037,4037,59.83,14.16,4.77,0
4038,4038,59.84,-4.93,41.35,0
4039,4039,59.85,2.01,36.25,0
4040,4040,59.87,25.91,-11.53,0
4041,4041,59.88,2.11,22.23,0
4042,4042,59.89,-6.76,32.06,0
4043,4043,59.9,13.29,-9.42,0
4044,4044,59.92,-1.99,21.41,0
4045,4045,59.93,-5.39,36.91,0
4046,4046,59.94,16.35,3.65,0
4047,4047,59.96,2.47,32.02,0
4048,4048,59.97,-4.19,36.05,0
