,Unnamed: 0,Timestamp,Data1,Data2,Label
0,0,6.0,5.42,21.05,0
1,1,6.01,-1.1,4.26,0
2,2,6.03,4.15,-35.99,0
3,3,6.04,-0.4,5.96,0
4,4,6.05,-2.68,14.83,0
5,5,6.07,9.99,-15.84,0
6,6,6.08,6.57,12.57,0
7,7,6.09,-3.2,3.1,0
8,8,6.11,2.9,-33.9,0
9,9,6.12,-1.69,5.6,0
10,10,6.13,-8.82,12.76,0
11,11,6.15,4.71,-22.2,0
12,12,6.16,8.51,12.33,0
13,13,6.17,3.99,20.65,0
14,14,6.19,16.23,-18.76,0
15,15,6.2,11.69,-21.96,0
16,16,6.21,-5.89,-80.27,0
17,17,6.23,31.71,-54.52,0
18,18,6.24,89.03,261.77,0
19,19,6.25,66.88,479.76,0
20,20,6.27,6.95,324.85,0
21,21,6.28,7.03,89.12,0
22,22,6.29,45.41,-67.66,0
23,23,6.31,39.22,-28.7,0
24,24,6.32,-23.35,282.99,0
25,25,6.33,-51.77,463.75,0
26,26,6.35,-10.35,302.09,0
27,27,6.36,0.41,152.43,0
28,28,6.37,-41.6,175.97,0
29,29,6.39,-48.16,186.25,0
30,30,6.4,-24.06,121.28,0
31,31,6.41,-26.96,72.15,0
32,32,6.43,-43.11,59.8,0
33,33,6.44,-43.09,40.04,0
34,34,6.45,-31.18,7.5,0
35,35,6.47,-25.18,-17.08,0
36,36,6.48,-36.38,-34.07,0
37,37,6.49,-46.14,-53.45,0
38,38,6.51,-35.96,-73.23,0
39,39,6.52,-18.34,-88.66,0
40,40,6.53,0.21,-101.39,0
41,41,6.55,2.53,-114.11,0
42,42,6.56,-25.6,-125.87,0
43,43,6.57,-27.32,-135.62,0
44,44,6.59,8.91,-143.82,0
45,45,6.6,-1.75,-151.54,0
46,46,6.61,-38.01,-158.52,0
47,47,6.63,-12.47,-164.02,0
48,48,6.64,31.47,-167.87,0
49,49,6.65,39.63,-170.79,0
50,50,6.67,29.91,-173.08,0
51,51,6.68,-1.94,-174.82,0
52,52,6.69,-27.22,-175.81,0
53,53,6.71,-11.67,-175.57,0
54,54,6.72,9.98,-173.86,0
55,55,6.73,34.89,-171.76,0
56,56,6.75,53.81,-169.77,0
57,57,6.76,22.94,-167.61,0
58,58,6.77,-2.93,-164.57,0
59,59,6.79,11.74,-160.89,0
60,60,6.8,-4.49,-156.76,0
61,61,6.81,-33.28,-151.99,0
62,62,6.82,-9.53,-146.6,0
63,63,6.84,18.19,-141.16,0
64,64,6.85,15.19,-135.96,0
65,65,6.86,10.69,-130.29,0
66,66,6.88,-5.01,-123.88,0
67,67,6.89,-14.58,-117.07,0
68,68,6.91,20.53,-110.59,0
69,69,6.92,39.97,-104.32,0
70,70,6.93,10.21,-97.45,0
71,71,6.95,1.73,-90.04,0
72,72,6.96,15.15,-83.27,0
73,73,6.97,7.27,-77.03,0
74,74,6.99,5.76,-70.04,0
75,75,7.0,20.92,-62.51,0
76,76,7.01,26.18,-55.67,0
77,77,7.03,13.78,-49.31,0
78,78,7.04,-5.06,-42.5,0
79,79,7.05,3.3,-34.98,0
80,80,7.07,21.18,-27.76,0
81,81,7.08,1.85,-21.58,0
82,82,7.09,-7.95,-15.59,0
83,83,7.11,13.81,-9.54,0
84,84,7.12,1.63,-3.75,0
85,85,7.13,-20.86,2.22,0
86,86,7.15,7.06,8.4,0
87,87,7.16,37.92,14.04,0
88,88,7.17,26.74,19.01,0
89,89,7.19,-2.18,24.39,0
90,90,7.2,-19.27,30.0,0
91,91,7.21,-2.86,34.97,0
92,92,7.23,18.27,39.43,0
93,93,7.24,-3.44,43.95,0
94,94,7.25,-23.54,48.33,0
95,95,7.27,-2.73,52.33,0
96,96,7.28,13.82,55.83,0
97,97,7.29,20.01,52.95,0
98,98,7.31,25.13,34.58,0
99,99,7.32,-3.94,-11.46,0
100,100,7.33,-33.98,-124.95,0
101,101,7.35,-21.8,-258.62,0
102,102,7.36,-7.98,-260.77,0
103,103,7.37,-13.13,-205.38,0
104,104,7.39,-14.53,-239.66,0
105,105,7.4,-7.07,-198.16,0
106,106,7.41,1.29,-39.74,0
107,107,7.43,-5.69,6.27,0
108,108,7.44,-24.44,-33.02,0
109,109,7.45,-11.17,-31.33,0
110,110,7.47,23.38,-30.59,0
111,111,7.48,19.37,4.51,0
112,112,7.49,7.61,71.93,0
113,113,7.51,25.12,85.56,0
114,114,7.52,21.03,126.51,0
115,115,7.53,-0.92,181.23,0
116,116,7.55,1.66,144.1,0
117,117,7.56,5.41,137.38,0
118,118,7.57,3.07,146.16,0
119,119,7.59,5.54,39.53,0
120,120,7.6,-9.49,22.48,0
121,121,7.61,-19.3,173.55,0
122,122,7.63,1.03,240.58,0
123,123,7.64,7.9,230.4,0
124,124,7.65,4.88,260.91,0
125,125,7.67,18.68,254.04,0
126,126,7.68,17.29,242.28,0
127,127,7.69,11.69,291.48,0
128,128,7.71,15.38,324.92,0
129,129,7.72,-13.09,308.73,0
130,130,7.73,-40.18,213.25,0
131,131,7.75,-21.77,84.62,0
132,132,7.76,-9.01,141.05,0
133,133,7.77,-20.75,299.16,0
134,134,7.79,-28.82,244.66,0
135,135,7.8,-33.5,123.67,0
136,136,7.81,-14.36,156.53,0
137,137,7.83,22.12,159.95,0
138,138,7.84,8.06,122.82,0
139,139,7.85,-30.36,163.07,0
140,140,7.87,-15.29,163.79,0
141,141,7.88,8.84,163.39,0
142,142,7.89,-6.87,214.26,0
143,143,7.91,-18.34,167.52,0
144,144,7.92,-7.9,152.69,0
145,145,7.93,14.0,251.29,0
146,146,7.95,39.08,192.16,0
147,147,7.96,29.04,53.43,0
148,148,7.97,-5.78,90.55,0
149,149,7.99,-14.89,154.99,0
150,150,8.0,-12.99,125.23,0
151,151,8.01,-13.13,93.21,0
152,152,8.03,-1.94,81.17,0
153,153,8.04,-0.85,95.28,0
154,154,8.05,-4.03,83.91,0
155,155,8.07,-0.18,-23.62,0
156,156,8.08,-11.85,-67.11,0
157,157,8.09,-12.26,19.0,0
158,158,8.1,12.13,48.35,0
159,159,8.12,13.68,81.68,0
160,160,8.13,4.46,171.72,0
161,161,8.15,11.76,85.7,0
162,162,8.16,2.85,-51.55,0
163,163,8.17,-14.15,-9.04,0
164,164,8.19,-8.87,14.95,0
165,165,8.2,-1.91,-20.34,0
166,166,8.21,6.06,15.5,0
167,167,8.23,21.89,9.89,0
168,168,8.24,13.74,-24.65,0
169,169,8.25,-4.95,0.76,0
170,170,8.27,0.61,-15.18,0
171,171,8.28,0.98,-25.26,0
172,172,8.29,-8.56,18.85,0
173,173,8.31,1.26,-38.04,0
174,174,8.32,1.19,-139.25,0
175,175,8.33,-15.72,-197.77,0
176,176,8.35,-16.09,-326.3,0
177,177,8.36,-15.39,-417.2,0
178,178,8.37,-11.93,-370.42,0
179,179,8.39,5.25,-353.25,0
180,180,8.4,-1.32,-329.52,0
181,181,8.41,-12.66,-222.19,0
182,182,8.43,2.75,-181.19,0
183,183,8.44,-2.44,-149.55,0
184,184,8.45,-20.59,-46.15,0
185,185,8.47,-4.03,-34.37,0
186,186,8.48,10.22,-54.32,0
187,187,8.49,3.32,9.21,0
188,188,8.51,3.42,8.78,0
189,189,8.52,-4.28,-17.97,0
190,190,8.53,-10.73,31.41,0
191,191,8.55,11.1,20.54,0
192,192,8.56,20.86,-12.06,0
193,193,8.57,7.07,30.97,0
194,194,8.59,8.06,21.33,0
195,195,8.6,4.79,-3.91,0
196,196,8.61,-12.01,33.68,0
197,197,8.63,3.63,0.52,0
198,198,8.64,34.85,-40.25,0
199,199,8.65,30.45,9.57,0
200,200,8.67,5.45,-6.95,0
201,201,8.68,-4.95,-53.3,0
202,202,8.69,7.1,-7.23,0
203,203,8.71,17.58,2.2,0
204,204,8.72,-1.22,-19.95,0
205,205,8.73,-16.01,13.88,0
206,206,8.75,-0.45,-4.79,0
207,207,8.76,2.21,-45.66,0
208,208,8.77,-12.67,-22.88,0
209,209,8.78,-13.12,-45.57,0
210,210,8.8,-14.16,-76.64,0
211,211,8.81,-17.03,-30.95,0
212,212,8.82,-8.52,-32.9,0
213,213,8.84,-11.45,-57.64,0
214,214,8.85,-14.2,-17.35,0
215,215,8.87,4.09,-32.04,0
216,216,8.88,7.34,-69.95,0
217,217,8.89,-4.7,-29.22,0
218,218,8.91,0.51,-36.75,0
219,219,8.92,2.86,-81.48,0
220,220,8.93,-3.2,-54.42,0
221,221,8.95,1.87,-58.46,0
222,222,8.96,1.68,-85.15,0
223,223,8.97,1.28,-45.92,0
224,224,8.99,11.89,-44.13,0
225,225,9.0,2.12,-63.55,0
226,226,9.01,-12.01,-25.32,0
227,227,9.03,3.73,-44.5,0
228,228,9.04,10.91,-87.95,0
229,229,9.05,1.41,-46.23,0
230,230,9.07,8.83,-43.5,0
231,231,9.08,12.75,-82.8,0
232,232,9.09,4.41,-51.77,0
233,233,9.11,-0.66,-44.99,0
234,234,9.12,-18.25,-69.25,0
235,235,9.13,-27.59,-35.98,0
236,236,9.15,-5.84,-41.72,0
237,237,9.16,2.69,-79.82,0
238,238,9.17,-3.42,-50.36,0
239,239,9.19,10.41,-48.09,0
240,240,9.2,14.02,-72.0,0
241,241,9.21,-0.64,-26.84,0
242,242,9.23,1.35,-11.3,0
243,243,9.24,4.52,-37.84,0
244,244,9.25,2.18,-18.34,0
245,245,9.27,9.44,-32.77,0
246,246,9.28,-0.51,-66.46,0
247,247,9.29,-14.3,-22.72,0
248,248,9.31,4.72,-5.96,0
249,249,9.32,12.87,-37.27,0
250,250,9.33,-9.59,-14.14,0
251,251,9.35,-16.69,-3.48,0
252,252,9.36,-8.67,-22.48,0
253,253,9.37,-3.7,3.01,0
254,254,9.39,1.82,-0.82,0
255,255,9.4,-3.21,-26.22,0
256,256,9.41,-7.58,14.1,0
257,257,9.43,8.26,22.56,0
258,258,9.44,16.26,-14.34,0
259,259,9.45,10.92,10.53,0
260,260,9.47,17.94,21.48,0
261,261,9.48,19.12,-9.82,0
262,262,9.49,4.08,12.1,0
263,263,9.51,-4.7,24.65,0
264,264,9.52,-10.1,-0.06,0
265,265,9.53,-8.32,19.23,0
266,266,9.55,5.7,18.73,0
267,267,9.56,0.34,-12.83,0
268,268,9.57,-10.48,17.43,0
269,269,9.59,6.77,30.92,0
270,270,9.6,12.95,-4.01,0
271,271,9.61,-5.56,17.07,0
272,272,9.63,-7.11,35.16,0
273,273,9.64,-0.54,6.16,0
274,274,9.65,-2.17,23.78,0
275,275,9.67,5.6,42.41,0
276,276,9.68,10.43,19.61,0
277,277,9.69,5.19,38.45,0
278,278,9.71,7.51,54.17,0
279,279,9.72,3.72,28.1,0
280,280,9.73,-2.41,38.05,0
281,281,9.75,7.94,37.16,0
282,282,9.76,5.27,3.08,0
283,283,9.77,-8.2,31.51,0
284,284,9.79,2.38,54.27,0
285,285,9.8,9.88,12.08,0
286,286,9.81,-3.4,15.9,0
287,287,9.83,-7.67,36.01,0
288,288,9.84,-7.17,7.14,0
289,289,9.85,-8.05,20.22,0
290,290,9.87,2.95,49.07,0
291,291,9.88,6.87,24.1,0
292,292,9.89,1.05,25.58,0
293,293,9.91,7.45,42.07,0
294,294,9.92,8.1,23.61,0
295,295,9.93,-2.46,41.02,0
296,296,9.95,0.02,52.86,0
297,297,9.96,1.17,5.33,0
298,298,9.97,-3.71,7.99,0
299,299,9.99,9.19,45.92,0
300,300,10.0,16.2,37.01,0
301,301,10.01,-2.8,48.14,0
302,302,10.02,-15.79,58.1,0
303,303,10.04,-11.72,15.3,0
304,304,10.05,-0.47,17.17,0
305,305,10.06,12.77,38.7,0
306,306,10.08,6.47,9.96,0
307,307,10.09,-11.16,25.58,0
308,308,10.1,-8.16,55.04,0
309,309,10.12,-3.03,18.21,0
310,310,10.13,-12.1,24.44,0
311,311,10.15,-7.76,57.26,0
312,312,10.16,5.97,16.0,0
313,313,10.17,8.77,5.39,0
314,314,10.19,9.28,37.59,0
315,315,10.2,5.31,9.17,0
316,316,10.21,1.93,-11.25,0
317,317,10.23,13.22,-19.79,0
318,318,10.24,17.19,-89.72,0
319,319,10.25,12.48,-119.11,0
320,320,10.27,17.49,-99.42,0
321,321,10.28,4.97,-122.03,0
322,322,10.29,-16.23,-99.38,0
323,323,10.31,-2.92,-41.6,0
324,324,10.32,8.62,-61.56,0
325,325,10.33,-8.74,-59.67,0
326,326,10.35,-8.9,-15.99,0
327,327,10.36,2.96,-33.39,0
328,328,10.37,-10.39,-13.76,0
329,329,10.39,-25.94,56.53,0
330,330,10.4,-25.43,48.71,0
331,331,10.41,-27.02,45.16,0
332,332,10.43,-28.8,87.71,0
333,333,10.44,-23.35,76.52,0
334,334,10.45,-15.21,84.91,0
335,335,10.47,-1.92,133.8,0
336,336,10.48,6.97,120.01,0
337,337,10.49,1.54,127.28,0
338,338,10.51,0.03,168.6,0
339,339,10.52,5.25,122.4,0
340,340,10.53,3.05,91.86,0
341,341,10.55,4.75,125.58,0
342,342,10.56,12.84,93.4,0
343,343,10.57,9.15,65.31,0
344,344,10.59,1.62,88.24,0
345,345,10.6,5.57,54.16,0
346,346,10.61,11.2,39.18,0
347,347,10.63,4.55,73.75,0
348,348,10.64,-11.63,36.23,0
349,349,10.65,-13.73,10.24,0
350,350,10.67,2.95,40.19,0
351,351,10.68,6.52,9.37,0
352,352,10.69,0.53,-0.39,0
353,353,10.71,12.97,42.33,0
354,354,10.72,20.63,7.11,0
355,355,10.73,2.65,-14.35,0
356,356,10.75,-8.13,27.73,0
357,357,10.76,5.18,-0.26,0
358,358,10.77,15.45,-20.21,0
359,359,10.78,12.6,11.79,0
360,360,10.8,10.5,-34.54,0
361,361,10.81,8.14,-65.06,0
362,362,10.83,-1.23,-17.31,0
363,363,10.84,-12.96,-26.72,0
364,364,10.85,-17.19,-29.52,0
365,365,10.87,-9.23,6.33,0
366,366,10.88,-3.31,-49.19,0
367,367,10.89,-5.94,-82.92,0
368,368,10.91,0.12,-25.36,0
369,369,10.92,7.24,-39.25,0
370,370,10.93,-1.81,-66.09,0
371,371,10.95,-9.73,-32.04,0
372,372,10.96,-5.24,-56.51,0
373,373,10.97,-0.44,-65.98,0
374,374,10.99,0.72,-14.16,0
375,375,11.0,-4.35,-47.04,0
376,376,11.01,-12.73,-74.88,0
377,377,11.03,-8.7,-21.09,0
378,378,11.04,3.75,-41.87,0
379,379,11.05,10.22,-73.87,0
380,380,11.07,10.88,-30.42,0
381,381,11.08,4.6,-48.21,0
382,382,11.09,-3.1,-76.37,0
383,383,11.11,0.64,-39.3,0
384,384,11.12,4.5,-58.51,0
385,385,11.13,1.75,-72.96,0
386,386,11.15,9.1,-22.65,0
387,387,11.16,14.46,-42.7,0
388,388,11.17,-3.11,-57.96,0
389,389,11.19,-18.61,-1.23,0
390,390,11.2,-14.39,-27.39,0
391,391,11.21,-6.14,-58.64,0
392,392,11.23,5.3,2.79,0
393,393,11.24,15.79,-3.47,0
394,394,11.25,7.93,-40.66,0
395,395,11.27,-5.3,-13.71,0
396,396,11.28,-5.46,-39.77,0
397,397,11.29,1.84,-59.84,0
398,398,11.31,10.03,-3.2,0
399,399,11.32,9.86,-15.7,0
400,400,11.33,0.49,-39.76,0
401,401,11.35,0.66,8.2,0
402,402,11.36,3.67,-12.52,0
403,403,11.37,-5.24,-45.13,0
404,404,11.39,-5.86,2.88,0
405,405,11.4,-0.21,-6.03,0
406,406,11.41,-11.63,-32.25,0
407,407,11.43,-15.18,7.57,0
408,408,11.44,3.3,-12.81,0
409,409,11.45,7.53,-39.37,0
410,410,11.47,-6.63,11.94,0
411,411,11.48,-15.35,1.33,0
412,412,11.49,-13.52,-24.1,0
413,413,11.51,-1.76,23.88,0
414,414,11.52,6.11,4.96,0
415,415,11.53,-0.86,-36.16,0
416,416,11.55,-0.15,-1.59,0
417,417,11.56,10.29,-17.92,0
418,418,11.57,7.95,-42.75,0
419,419,11.59,3.08,10.38,0
420,420,11.6,1.04,6.41,0
421,421,11.61,-9.41,-15.65,0
422,422,11.63,-9.67,35.18,0
423,423,11.64,0.02,27.98,0
424,424,11.65,-3.93,-1.5,0
425,425,11.67,-2.65,34.91,0
426,426,11.68,12.84,13.54,0
427,427,11.69,11.15,-16.33,0
428,428,11.71,-1.64,32.46,0
429,429,11.72,-2.81,19.36,0
430,430,11.73,-1.01,-12.16,0
431,431,11.75,3.81,35.57,0
432,432,11.76,10.12,20.34,0
433,433,11.77,4.45,-23.08,0
434,434,11.79,-2.62,19.78,0
435,435,11.8,-6.66,23.56,0
436,436,11.81,-12.22,0.15,0
437,437,11.83,-4.37,36.38,0
438,438,11.84,5.78,19.91,0
439,439,11.85,-2.64,-10.63,0
440,440,11.87,-2.83,30.51,0
441,441,11.88,13.17,14.56,0
442,442,11.89,13.83,-16.65,0
443,443,11.91,5.65,36.8,0
444,444,11.92,6.0,34.23,0
445,445,11.93,4.07,-8.19,0
446,446,11.94,5.83,20.5,0
447,447,11.96,12.86,8.12,0
448,448,11.97,2.0,-31.2,0
449,449,11.98,-12.69,4.32,0
450,450,12.0,-9.88,9.91,0
451,451,12.01,-8.44,-7.13,0
452,452,12.02,-9.94,32.92,0
453,453,12.04,-4.85,24.54,0
454,454,12.05,-0.25,-5.26,0
455,455,12.06,14.28,31.14,0
456,456,12.08,29.74,22.29,0
457,457,12.09,19.42,-7.74,0
458,458,12.1,3.2,31.22,0
459,459,12.12,-1.47,25.87,0
460,460,12.13,-9.34,-5.95,0
461,461,12.15,-9.94,28.71,0
462,462,12.16,-0.95,22.36,0
463,463,12.17,-2.89,1.41,0
464,464,12.19,-2.3,78.87,0
465,465,12.2,0.66,143.33,0
466,466,12.21,-15.42,174.63,0
467,467,12.23,-17.63,242.93,0
468,468,12.24,6.85,231.3,0
469,469,12.25,6.32,147.68,0
470,470,12.27,-12.8,121.3,0
471,471,12.28,-3.69,83.0,0
472,472,12.29,14.65,21.53,0
473,473,12.31,14.13,14.39,0
474,474,12.32,1.56,-30.83,0
475,475,12.33,-11.0,-112.6,0
476,476,12.35,-4.1,-121.65,0
477,477,12.36,8.26,-128.13,0
478,478,12.37,-3.59,-145.42,0
479,479,12.39,-5.44,-106.53,0
480,480,12.4,16.33,-103.31,0
481,481,12.41,8.98,-131.34,0
482,482,12.43,-17.14,-94.31,0
483,483,12.44,-15.74,-85.9,0
484,484,12.45,-3.6,-123.86,0
485,485,12.47,3.42,-98.15,0
486,486,12.48,9.31,-73.5,0
487,487,12.49,6.25,-83.52,0
488,488,12.51,6.84,-54.81,0
489,489,12.52,10.5,-54.35,0
490,490,12.53,-4.98,-86.89,0
491,491,12.55,-11.1,-53.79,0
492,492,12.56,10.93,-28.26,0
493,493,12.57,14.05,-47.43,0
494,494,12.59,-5.15,-23.68,0
495,495,12.6,-9.06,-7.68,0
496,496,12.61,-9.89,-28.42,0
497,497,12.63,-12.34,-15.58,0
498,498,12.64,-1.82,-21.94,0
499,499,12.65,3.51,-49.75,0
500,500,12.67,6.6,-9.44,0
501,501,12.68,16.75,20.69,0
502,502,12.69,5.71,-4.99,0
503,503,12.71,-15.69,1.66,0
504,504,12.72,-16.65,5.91,0
505,505,12.73,-13.62,-10.96,0
506,506,12.75,-7.94,21.69,0
507,507,12.76,11.77,31.42,0
508,508,12.77,18.42,-13.51,0
509,509,12.79,4.33,-4.68,0
510,510,12.8,-11.08,17.59,0
511,511,12.81,-19.57,-2.83,0
512,512,12.83,-4.57,13.17,0
513,513,12.84,18.47,30.08,0
514,514,12.85,7.03,7.36,0
515,515,12.87,-10.17,31.79,0
516,516,12.88,4.05,61.82,0
517,517,12.89,10.01,38.9,0
518,518,12.91,-7.16,37.67,0
519,519,12.92,-14.17,31.05,0
520,520,12.93,-12.78,-5.57,0
521,521,12.95,-16.16,19.53,0
522,522,12.96,-17.48,46.5,0
523,523,12.97,-8.44,8.04,0
524,524,12.99,13.49,15.31,0
525,525,13.0,25.57,51.81,0
526,526,13.01,11.43,32.99,0
527,527,13.03,3.38,28.25,0
528,528,13.04,7.64,35.41,0
529,529,13.05,-6.22,17.49,0
530,530,13.07,-15.92,42.68,0
531,531,13.08,-3.29,56.55,0
532,532,13.09,-0.55,3.9,0
533,533,13.11,1.14,2.94,0
534,534,13.12,10.74,35.3,0
535,535,13.13,-3.77,11.21,0
536,536,13.15,-18.22,16.53,0
537,537,13.16,-7.66,46.38,0
538,538,13.17,-5.18,22.17,0
539,539,13.19,3.22,27.64,0
540,540,13.2,28.86,56.7,0
541,541,13.21,18.1,22.55,0
542,542,13.23,-15.86,10.0,0
543,543,13.24,-17.43,27.46,0
544,544,13.25,-5.93,-4.4,0
545,545,13.27,-1.09,-4.12,0
546,546,13.28,2.95,23.53,0
547,547,13.29,-3.01,-9.34,0
548,548,13.31,-2.28,-8.7,0
549,549,13.32,6.05,30.62,0
550,550,13.33,-5.44,4.27,0
551,551,13.35,-6.39,-6.43,0
552,552,13.36,15.99,20.97,0
553,553,13.37,12.96,1.51,0
554,554,13.39,-0.93,6.81,0
555,555,13.4,10.48,33.16,0
556,556,13.41,14.05,-3.2,0
557,557,13.43,5.11,2.94,0
558,558,13.44,8.76,46.9,0
559,559,13.45,7.18,3.28,0
560,560,13.47,4.23,-16.37,0
561,561,13.48,10.08,28.59,0
562,562,13.49,-3.33,3.01,0
563,563,13.51,-16.48,-23.71,0
564,564,13.52,-1.22,-1.11,0
565,565,13.53,3.88,-25.39,0
566,566,13.55,-4.94,-31.48,0
567,567,13.56,-0.91,-1.33,0
568,568,13.57,-5.0,-32.38,0
569,569,13.59,-10.43,-35.23,0
570,570,13.6,1.24,9.43,0
571,571,13.61,-5.71,-17.18,0
572,572,13.63,-20.62,-28.54,0
573,573,13.64,-4.04,10.42,0
574,574,13.65,14.76,-10.06,0
575,575,13.67,16.71,-7.82,0
576,576,13.68,12.13,32.35,0
577,577,13.69,-6.46,-11.63,0
578,578,13.71,-14.9,-30.37,0
579,579,13.72,1.51,19.28,0
580,580,13.73,8.28,-6.29,0
581,581,13.75,11.93,-26.64,0
582,582,13.76,18.32,15.42,0
583,583,13.77,-11.52,-5.09,0
584,584,13.79,-44.11,-18.81,0
585,585,13.8,-25.41,20.97,0
586,586,13.81,5.52,-5.16,0
587,587,13.83,20.42,-21.78,0
588,588,13.84,27.02,19.41,0
589,589,13.85,8.0,-5.39,0
590,590,13.86,-14.77,-27.68,0
591,591,13.88,-11.88,0.94,0
592,592,13.89,-8.62,-24.42,0
593,593,13.9,-1.28,-16.95,0
594,594,13.92,19.02,42.81,0
595,595,13.93,14.35,3.27,0
596,596,13.94,0.98,-31.54,0
597,597,13.96,6.93,14.92,0
598,598,13.97,-1.81,-4.59,0
599,599,13.98,-7.47,-27.26,0
600,600,14.0,16.74,11.76,0
601,601,14.01,15.62,-14.02,0
602,602,14.02,-8.05,-32.12,0
603,603,14.04,-4.46,11.89,0
604,604,14.05,-3.46,-15.45,0
605,605,14.07,-15.37,-33.69,0
606,606,14.08,-7.76,12.64,0
607,607,14.09,-2.27,-21.72,0
608,608,14.11,-6.95,-47.31,0
609,609,14.12,-2.82,15.76,0
610,610,14.13,-8.31,11.27,0
611,611,14.15,-8.68,-4.17,0
612,612,14.16,21.6,36.22,0
613,613,14.17,43.17,-61.97,0
614,614,14.19,41.56,-190.22,0
615,615,14.2,33.61,-23.17,0
616,616,14.21,22.73,252.3,0
617,617,14.23,23.92,283.51,0
618,618,14.24,13.97,103.48,0
619,619,14.25,-28.1,-122.45,0
620,620,14.27,-34.09,-109.84,0
621,621,14.28,13.64,239.69,0
622,622,14.29,17.53,448.76,0
623,623,14.31,-35.75,329.82,0
624,624,14.32,-58.53,264.05,0
625,625,14.33,-47.85,322.45,0
626,626,14.35,-43.51,288.13,0
627,627,14.36,-28.6,157.48,0
628,628,14.37,-2.35,42.78,0
629,629,14.39,10.95,29.25,0
630,630,14.4,-0.59,113.79,0
631,631,14.41,-34.65,131.1,0
632,632,14.43,-32.6,-14.32,0
633,633,14.44,17.16,-163.1,0
634,634,14.45,13.14,-182.12,0
635,635,14.47,-27.21,-177.06,0
636,636,14.48,-14.31,-218.66,0
637,637,14.49,-10.9,-201.38,0
638,638,14.51,-30.58,-109.3,0
639,639,14.52,11.9,-101.4,0
640,640,14.53,59.33,-226.5,0
641,641,14.55,33.9,-289.14,0
642,642,14.56,-8.91,-248.17,0
643,643,14.57,-23.95,-265.84,0
644,644,14.59,-15.31,-258.87,0
645,645,14.6,5.35,-172.83,0
646,646,14.61,3.71,-154.27,0
647,647,14.63,-7.01,-135.34,0
648,648,14.64,11.05,-87.55,0
649,649,14.65,22.91,-148.82,0
650,650,14.67,15.37,-207.34,0
651,651,14.68,18.71,-164.52,0
652,652,14.69,12.68,-161.43,0
653,653,14.71,0.27,-189.32,0
654,654,14.72,10.53,-179.82,0
655,655,14.73,13.57,-187.07,0
656,656,14.75,4.94,-131.47,0
657,657,14.76,12.97,-34.67,0
658,658,14.77,13.42,-91.93,0
659,659,14.79,-2.29,-136.18,0
660,660,14.8,-8.74,-2.96,0
661,661,14.81,-10.16,51.43,0
662,662,14.83,-0.08,-33.16,0
663,663,14.84,22.44,-86.31,0
664,664,14.85,17.63,-116.9,0
665,665,14.87,-1.43,-99.94,0
666,666,14.88,3.38,-1.96,0
667,667,14.89,8.34,36.87,0
668,668,14.91,6.95,-6.3,0
669,669,14.92,6.78,-28.71,0
670,670,14.93,-8.93,-17.84,0
671,671,14.95,-8.64,50.59,0
672,672,14.96,18.06,102.44,0
673,673,14.97,19.72,-2.92,0
674,674,14.99,12.33,-80.83,0
675,675,15.0,21.46,20.2,0
676,676,15.01,5.67,69.72,0
677,677,15.03,-18.67,30.44,0
678,678,15.04,-6.64,56.04,0
679,679,15.05,9.82,53.56,0
680,680,15.07,10.62,-0.52,0
681,681,15.08,9.79,3.92,0
682,682,15.09,-5.68,21.48,0
683,683,15.11,-13.64,46.96,0
684,684,15.12,11.97,102.45,0
685,685,15.13,19.13,77.18,0
686,686,15.15,-7.12,14.27,0
687,687,15.16,-18.56,60.18,0
688,688,15.17,-17.48,137.06,0
689,689,15.19,-9.63,131.27,0
690,690,15.2,14.84,63.16,0
691,691,15.21,19.03,9.48,0
692,692,15.23,1.01,74.98,0
693,693,15.24,-2.29,173.38,0
694,694,15.25,-9.72,124.55,0
695,695,15.27,-21.97,58.79,0
696,696,15.28,-8.0,97.59,0
697,697,15.29,1.31,84.47,0
698,698,15.31,-9.86,33.76,0
699,699,15.32,-10.29,77.61,0
700,700,15.33,-8.94,113.42,0
701,701,15.35,-7.37,97.18,0
702,702,15.36,4.67,126.02,0
703,703,15.37,-1.2,142.07,0
704,704,15.39,-14.32,106.87,0
705,705,15.4,-7.02,94.54,0
706,706,15.41,-8.9,86.05,0
707,707,15.43,-18.43,91.07,0
708,708,15.44,-7.78,129.85,0
709,709,15.45,-4.54,103.57,0
710,710,15.47,-8.99,58.96,0
711,711,15.48,-0.91,98.03,0
712,712,15.49,-10.61,96.78,0
713,713,15.51,-22.71,39.9,0
714,714,15.52,-3.15,56.82,0
715,715,15.53,6.69,62.21,0
716,716,15.55,2.03,7.43,0
717,717,15.56,14.26,24.25,0
718,718,15.57,8.18,83.79,0
719,719,15.59,-18.23,91.87,0
720,720,15.6,-15.91,69.47,0
721,721,15.61,-0.43,17.45,0
722,722,15.63,2.87,-10.94,0
723,723,15.64,2.84,31.36,0
724,724,15.65,-5.51,29.82,0
725,725,15.67,-5.65,-0.54,0
726,726,15.68,16.09,38.53,0
727,727,15.69,19.05,37.62,0
728,728,15.71,1.44,7.14,0
729,729,15.72,1.72,74.48,0
730,730,15.73,3.3,102.14,0
731,731,15.75,-2.68,19.48,0
732,732,15.76,6.03,-12.3,0
733,733,15.77,12.71,-4.62,0
734,734,15.78,8.23,-25.1,0
735,735,15.8,9.5,-14.53,0
736,736,15.81,7.43,-9.76,0
737,737,15.82,2.04,-24.47,0
738,738,15.84,4.21,17.6,0
739,739,15.85,-2.97,33.88,0
740,740,15.86,-15.96,-19.27,0
741,741,15.88,-16.58,-8.6,0
742,742,15.89,-17.13,43.59,0
743,743,15.9,-9.34,15.52,0
744,744,15.92,17.84,-45.44,0
745,745,15.93,21.98,-68.1,0
746,746,15.94,-3.52,-65.61,0
747,747,15.96,-9.17,-66.27,0
748,748,15.97,5.15,-109.07,0
749,749,15.98,11.14,-138.65,0
750,750,16.0,7.47,-45.99,0
751,751,16.01,-6.51,68.1,0
752,752,16.03,-10.33,51.7,0
753,753,16.04,10.67,-24.85,0
754,754,16.05,13.79,-57.2,0
755,755,16.07,-4.06,-21.15,0
756,756,16.08,-0.97,39.96,0
757,757,16.09,4.27,6.5,0
758,758,16.11,-2.19,-70.66,0
759,759,16.12,4.56,-54.14,0
760,760,16.13,6.78,-49.73,0
761,761,16.15,-7.21,-98.2,0
762,762,16.16,-9.73,-42.65,0
763,763,16.17,-3.71,48.37,0
764,764,16.19,-0.25,23.83,0
765,765,16.2,6.21,-22.25,0
766,766,16.21,4.98,-5.25,0
767,767,16.23,1.72,20.92,0
768,768,16.24,13.93,27.62,0
769,769,16.25,21.19,-3.42,0
770,770,16.27,15.8,-51.42,0
771,771,16.28,13.56,-37.07,0
772,772,16.29,-1.83,-9.97,0
773,773,16.31,-21.4,-40.0,0
774,774,16.32,-10.52,-54.66,0
775,775,16.33,2.64,-71.59,0
776,776,16.35,-4.42,-135.0,0
777,777,16.36,-6.04,-146.33,0
778,778,16.37,-7.85,-151.37,0
779,779,16.39,-14.68,-243.57,0
780,780,16.4,-8.59,-285.78,0
781,781,16.41,-4.02,-239.01,0
782,782,16.42,-7.45,-201.06,0
783,783,16.44,-5.95,-128.65,0
784,784,16.45,-11.43,-51.79,0
785,785,16.46,-14.65,-50.73,0
786,786,16.48,2.34,-16.99,0
787,787,16.49,6.12,43.68,0
788,788,16.5,-9.35,21.85,0
789,789,16.52,-5.96,19.65,0
790,790,16.53,1.47,59.99,0
791,791,16.54,-8.34,39.73,0
792,792,16.56,-7.2,41.37,0
793,793,16.57,6.79,78.09,0
794,794,16.58,11.68,53.83,0
795,795,16.6,3.4,53.02,0
796,796,16.61,-17.95,72.36,0
797,797,16.62,-26.17,13.91,0
798,798,16.64,0.47,5.39,0
799,799,16.65,19.33,67.16,0
800,800,16.67,6.94,55.27,0
801,801,16.68,4.43,53.91,0
802,802,16.69,15.11,93.93,0
803,803,16.71,7.02,57.27,0
804,804,16.72,-6.32,43.99,0
805,805,16.73,-3.75,90.63,0
806,806,16.75,7.41,63.91,0
807,807,16.76,14.46,42.77,0
808,808,16.77,5.4,71.78,0
809,809,16.79,-5.15,42.78,0
810,810,16.8,7.61,36.43,0
811,811,16.81,20.34,73.78,0
812,812,16.83,13.83,31.37,0
813,813,16.84,8.71,7.22,0
814,814,16.85,3.48,47.57,0
815,815,16.87,-6.71,19.72,0
816,816,16.88,-4.02,0.19,0
817,817,16.89,2.69,40.62,0
818,818,16.91,0.34,20.01,0
819,819,16.92,-1.06,10.02,0
820,820,16.93,-4.44,52.89,0
821,821,16.95,-2.97,30.97,0
822,822,16.96,17.75,22.92,0
823,823,16.97,24.14,65.15,0
824,824,16.99,-2.17,28.28,0
825,825,17.0,-13.36,-0.25,0
826,826,17.01,1.32,36.06,0
827,827,17.03,5.64,6.01,0
828,828,17.04,2.03,-13.67,0
829,829,17.05,-0.53,32.66,0
830,830,17.06,-7.98,6.09,0
831,831,17.08,-3.44,-20.69,0
832,832,17.09,7.47,21.52,0
833,833,17.1,0.47,-1.61,0
834,834,17.12,-3.22,-31.53,0
835,835,17.13,6.89,-0.58,0
836,836,17.14,5.59,-23.83,0
837,837,17.16,-4.81,-34.31,0
838,838,17.17,-12.75,17.17,0
839,839,17.18,-18.4,-5.18,0
840,840,17.2,-11.31,-26.02,0
841,841,17.21,-1.3,22.3,0
842,842,17.22,-7.46,2.61,0
843,843,17.24,-10.98,-20.92,0
844,844,17.25,-1.94,17.55,0
845,845,17.26,0.38,-12.51,0
846,846,17.28,-0.64,-38.64,0
847,847,17.29,-1.04,6.53,0
848,848,17.3,-7.92,-19.54,0
849,849,17.32,-5.46,-48.23,0
850,850,17.33,5.29,1.28,0
851,851,17.35,2.88,-13.04,0
852,852,17.36,-3.46,-37.9,0
853,853,17.37,-2.85,2.01,0
854,854,17.39,-1.44,-22.99,0
855,855,17.4,2.93,-42.42,0
856,856,17.41,3.19,16.48,0
857,857,17.43,-5.25,-4.48,0
858,858,17.44,-3.92,-50.78,0
859,859,17.45,0.97,-18.05,0
860,860,17.47,-9.92,-25.62,0
861,861,17.48,-17.58,-30.82,0
862,862,17.49,-8.79,22.75,0
863,863,17.51,1.72,-5.38,0
864,864,17.52,10.77,-39.53,0
865,865,17.53,14.34,12.73,0
866,866,17.55,7.56,-4.73,0
867,867,17.56,4.35,-45.93,0
868,868,17.57,4.85,-4.29,0
869,869,17.59,3.58,-13.37,0
870,870,17.6,12.0,-45.72,0
871,871,17.61,16.96,-12.12,0
872,872,17.63,2.73,-27.02,0
873,873,17.64,-5.13,-48.45,0
874,874,17.65,0.63,-1.75,0
875,875,17.67,-2.16,-14.19,0
876,876,17.68,-5.54,-36.0,0
877,877,17.69,1.0,12.79,0
878,878,17.7,6.4,-3.58,0
879,879,17.72,10.43,-37.57,0
880,880,17.73,6.08,1.89,0
881,881,17.75,-12.72,-14.23,0
882,882,17.76,-15.92,-41.59,0
883,883,17.77,2.73,6.18,0
884,884,17.78,11.21,-5.3,0
885,885,17.8,9.65,-38.92,0
886,886,17.81,6.98,-1.59,0
887,887,17.82,-5.22,-13.5,0
888,888,17.84,-13.82,-40.35,0
889,889,17.85,-11.54,0.28,0
890,890,17.86,-8.4,-12.85,0
891,891,17.88,2.21,-37.68,0
892,892,17.89,9.94,9.73,0
893,893,17.9,-2.62,-3.37,0
894,894,17.92,-8.57,-34.25,0
895,895,17.93,0.49,17.48,0
896,896,17.94,-0.76,12.97,0
897,897,17.96,0.13,-28.52,0
898,898,17.97,9.76,-0.42,0
899,899,17.99,7.59,-7.69,0
900,900,18.0,8.72,-25.19,0
901,901,18.01,17.64,23.25,0
902,902,18.03,5.01,12.96,0
903,903,18.04,-15.15,-20.4,0
904,904,18.05,-19.26,20.49,0
905,905,18.07,-17.52,16.68,0
906,906,18.08,-8.31,-12.46,0
907,907,18.09,1.08,21.74,0
908,908,18.11,-6.58,9.86,0
909,909,18.12,-8.17,-21.53,0
910,910,18.13,2.48,17.51,0
911,911,18.15,-3.91,12.08,0
912,912,18.16,-11.61,-17.05,0
913,913,18.17,-3.1,27.4,0
914,914,18.19,-2.51,25.35,0
915,915,18.2,-1.5,-22.87,0
916,916,18.21,12.17,-4.12,0
917,917,18.23,16.78,0.05,0
918,918,18.24,26.31,-27.49,0
919,919,18.25,47.56,-27.9,0
920,920,18.27,37.55,-80.17,0
921,921,18.28,2.47,-140.12,0
922,922,18.29,-15.45,-114.63,0
923,923,18.31,-15.29,-115.91,0
924,924,18.32,-5.51,-146.19,0
925,925,18.33,5.97,-110.58,0
926,926,18.34,-0.97,-92.22,0
927,927,18.36,-21.98,-89.03,0
928,928,18.37,-30.05,-27.75,0
929,929,18.38,-18.51,-5.69,0
930,930,18.4,-4.39,-7.34,0
931,931,18.41,-9.26,57.94,0
932,932,18.42,-25.77,82.07,0
933,933,18.44,-12.57,60.4,0
934,934,18.45,16.93,97.77,0
935,935,18.46,13.46,115.81,0
936,936,18.48,7.95,102.39,0
937,937,18.49,29.13,143.67,0
938,938,18.5,31.67,163.56,0
939,939,18.52,10.27,146.11,0
940,940,18.53,-5.12,164.38,0
941,941,18.54,-14.22,145.08,0
942,942,18.56,-8.58,97.0,0
943,943,18.57,2.53,114.79,0
944,944,18.58,-11.58,116.52,0
945,945,18.6,-26.17,85.01,0
946,946,18.61,-16.58,101.21,0
947,947,18.63,-7.23,86.77,0
948,948,18.64,1.35,39.35,0
949,949,18.65,11.82,55.99,0
950,950,18.67,2.76,54.12,0
951,951,18.68,-4.06,14.84,0
952,952,18.69,13.02,38.09,0
953,953,18.71,22.84,49.3,0
954,954,18.72,17.38,14.64,0
955,955,18.73,9.84,26.22,0
956,956,18.75,-6.17,25.99,0
957,957,18.76,-13.37,-8.93,0
958,958,18.77,-3.64,6.62,0
959,959,18.79,-3.2,8.27,0
960,960,18.8,-2.7,-21.92,0
961,961,18.81,7.03,6.02,0
962,962,18.83,1.96,16.24,0
963,963,18.84,-3.16,-27.11,0
964,964,18.85,6.93,-25.75,0
965,965,18.87,8.66,-23.78,0
966,966,18.88,11.91,-48.09,0
967,967,18.89,19.92,-21.36,0
968,968,18.91,0.62,-10.88,0
969,969,18.92,-24.19,-45.99,0
970,970,18.93,-20.85,-26.94,0
971,971,18.95,-10.48,-6.29,0
972,972,18.96,-0.41,-31.36,0
973,973,18.97,10.38,-16.74,0
974,974,18.98,-3.95,-8.14,0
975,975,19.0,-23.53,-47.53,0
976,976,19.01,-12.03,-41.41,0
977,977,19.02,6.45,-21.75,0
978,978,19.04,14.7,-40.13,0
979,979,19.05,15.88,-25.8,0
980,980,19.06,-1.56,-14.5,0
981,981,19.08,-12.15,-43.37,0
982,982,19.09,0.74,-25.35,0
983,983,19.1,3.28,-0.88,0
984,984,19.12,3.62,-30.17,0
985,985,19.13,15.51,-29.34,0
986,986,19.14,5.0,-22.75,0
987,987,19.16,-10.66,-58.5,0
988,988,19.17,-2.2,-44.67,0
989,989,19.18,-0.53,-14.73,0
990,990,19.2,-1.59,-40.83,0
991,991,19.21,11.63,-33.63,0
992,992,19.22,7.4,-10.46,0
993,993,19.24,-6.66,-38.26,0
994,994,19.25,-4.24,-31.27,0
995,995,19.27,-4.07,-9.41,0
996,996,19.28,-1.06,-38.05,0
997,997,19.29,10.67,-24.67,0
998,998,19.31,1.24,8.12,0
999,999,19.32,-8.34,-23.02,0
1000,1000,19.33,5.17,-24.93,0
1001,1001,19.35,0.35,2.18,0
1002,1002,19.36,-16.69,-20.14,0
1003,1003,19.37,-10.62,-11.63,0
1004,1004,19.39,-6.88,11.1,0
1005,1005,19.4,-11.02,-35.79,0
1006,1006,19.41,-6.01,-43.12,0
1007,1007,19.43,-8.52,0.63,0
1008,1008,19.44,-7.82,-12.63,0
1009,1009,19.45,6.91,-14.05,0
1010,1010,19.47,4.3,8.9,0
1011,1011,19.48,-1.33,-25.07,0
1012,1012,19.49,12.87,-29.73,0
1013,1013,19.51,11.08,7.53,0
1014,1014,19.52,-1.14,-9.92,0
1015,1015,19.53,4.36,-12.04,0
1016,1016,19.55,-1.85,9.59,0
1017,1017,19.56,-15.4,-25.02,0
1018,1018,19.57,-8.6,-19.81,0
1019,1019,19.59,-5.18,25.31,0
1020,1020,19.6,1.27,-8.38,0
1021,1021,19.61,22.68,-25.9,0
1022,1022,19.62,17.08,13.81,0
1023,1023,19.64,-2.98,1.57,0
1024,1024,19.65,-0.91,-5.02,0
1025,1025,19.67,-5.59,18.19,0
1026,1026,19.68,-11.53,-8.74,0
1027,1027,19.69,7.64,-9.05,0
1028,1028,19.7,14.4,18.34,0
1029,1029,19.72,5.61,-22.37,0
1030,1030,19.73,13.18,-26.25,0
1031,1031,19.75,13.12,24.07,0
1032,1032,19.76,-1.84,-1.09,0
1033,1033,19.77,-10.96,-13.67,0
1034,1034,19.78,-21.94,31.46,0
1035,1035,19.8,-16.24,13.35,0
1036,1036,19.81,14.08,1.09,0
1037,1037,19.82,20.71,33.15,0
1038,1038,19.84,4.39,1.99,0
1039,1039,19.85,-2.37,-10.03,0
1040,1040,19.86,-7.33,32.14,0
1041,1041,19.88,-0.28,7.31,0
1042,1042,19.89,15.18,-6.15,0
1043,1043,19.9,-0.99,35.24,0
1044,1044,19.92,-16.38,11.78,0
1045,1045,19.93,5.05,-7.46,0
1046,1046,19.95,13.24,20.44,0
1047,1047,19.96,-4.15,-10.15,0
1048,1048,19.97,-16.56,-16.77,0
1049,1049,19.99,-23.88,34.61,0
1050,1050,20.0,-9.11,12.37,0
1051,1051,20.01,21.93,-7.86,0
1052,1052,20.03,19.61,31.73,0
1053,1053,20.04,-0.67,16.59,0
1054,1054,20.05,-3.39,8.87,0
1055,1055,20.07,-7.18,46.83,0
1056,1056,20.08,-5.97,32.65,0
1057,1057,20.09,5.53,65.29,0
1058,1058,20.11,-6.02,167.94,0
1059,1059,20.12,-23.39,187.33,0
1060,1060,20.13,-20.57,202.41,0
1061,1061,20.15,-23.67,238.29,0
1062,1062,20.16,-22.79,144.47,0
1063,1063,20.17,3.42,51.41,0
1064,1064,20.19,16.0,58.61,0
1065,1065,20.2,4.42,3.88,0
1066,1066,20.21,1.22,-58.03,0
1067,1067,20.23,3.77,-49.78,0
1068,1068,20.24,12.39,-102.91,0
1069,1069,20.25,29.17,-146.86,0
1070,1070,20.26,21.13,-103.02,0
1071,1071,20.28,1.32,-109.4,0
1072,1072,20.29,6.72,-119.49,0
1073,1073,20.3,13.26,-71.5,0
1074,1074,20.32,13.0,-92.33,0
1075,1075,20.33,23.17,-110.14,0
1076,1076,20.34,14.61,-48.61,0
1077,1077,20.36,-9.14,-48.17,0
1078,1078,20.37,-9.72,-65.69,0
1079,1079,20.38,-7.73,-33.65,0
1080,1080,20.4,-9.6,-68.57,0
1081,1081,20.41,11.48,-92.08,0
1082,1082,20.42,24.05,-32.55,0
1083,1083,20.44,7.59,-40.57,0
1084,1084,20.45,-2.09,-62.55,0
1085,1085,20.46,1.03,-16.72,0
1086,1086,20.48,6.37,-30.73,0
1087,1087,20.49,8.56,-44.29,0
1088,1088,20.5,-6.61,7.64,0
1089,1089,20.52,-14.74,-18.82,0
1090,1090,20.53,1.65,-52.52,0
1091,1091,20.54,4.01,-5.29,0
1092,1092,20.56,-3.15,-21.87,0
1093,1093,20.57,6.79,-44.59,0
1094,1094,20.59,2.44,16.8,0
1095,1095,20.6,-13.53,15.88,0
1096,1096,20.61,-9.67,-7.07,0
1097,1097,20.63,-9.54,35.19,0
1098,1098,20.64,-11.83,16.97,0
1099,1099,20.65,5.53,-7.94,0
1100,1100,20.67,4.91,37.46,0
1101,1101,20.68,-18.98,13.43,0
1102,1102,20.69,-26.41,-18.41,0
1103,1103,20.71,-27.14,37.19,0
1104,1104,20.72,-21.85,32.84,0
1105,1105,20.73,0.34,6.99,0
1106,1106,20.75,4.19,52.78,0
1107,1107,20.76,0.16,36.44,0
1108,1108,20.77,11.27,-0.78,0
1109,1109,20.79,-4.34,35.59,0
1110,1110,20.8,-25.42,19.34,0
1111,1111,20.81,-2.13,-7.63,0
1112,1112,20.83,15.48,37.67,0
1113,1113,20.84,5.99,21.59,0
1114,1114,20.85,9.29,-8.61,0
1115,1115,20.87,6.5,42.45,0
1116,1116,20.88,-10.0,37.94,0
1117,1117,20.89,-8.72,7.15,0
1118,1118,20.9,-7.47,46.57,0
1119,1119,20.92,-11.31,37.17,0
1120,1120,20.93,0.24,8.91,0
1121,1121,20.94,3.75,44.27,0
1122,1122,20.96,2.33,25.44,0
1123,1123,20.97,14.99,-4.38,0
1124,1124,20.98,8.16,37.77,0
1125,1125,21.0,-5.87,21.63,0
1126,1126,21.01,8.6,-9.33,0
1127,1127,21.02,8.98,38.74,0
1128,1128,21.04,-11.1,25.55,0
1129,1129,21.05,-3.42,-21.57,0
1130,1130,21.06,8.28,13.76,0
1131,1131,21.08,0.79,17.24,0
1132,1132,21.09,-0.81,-6.73,0
1133,1133,21.1,-7.89,27.48,0
1134,1134,21.12,-16.27,19.23,0
1135,1135,21.13,1.88,-2.94,0
1136,1136,21.14,12.07,40.49,0
1137,1137,21.16,-0.7,33.98,0
1138,1138,21.17,-5.43,5.49,0
1139,1139,21.18,-12.87,37.11,0
1140,1140,21.2,-15.72,17.6,0
1141,1141,21.21,7.42,-12.68,0
1142,1142,21.23,16.15,34.18,0
1143,1143,21.24,4.34,21.41,0
1144,1144,21.25,2.72,-30.94,0
1145,1145,21.27,-7.66,-3.13,0
1146,1146,21.28,-11.96,-1.23,0
1147,1147,21.29,15.33,-32.51,0
1148,1148,21.31,23.56,-1.65,0
1149,1149,21.32,6.85,9.4,0
1150,1150,21.33,9.2,3.64,0
1151,1151,21.35,7.84,39.88,0
1152,1152,21.36,-5.19,18.9,0
1153,1153,21.37,-0.96,-20.04,0
1154,1154,21.39,-3.64,16.7,0
1155,1155,21.4,-11.91,13.87,0
1156,1156,21.41,3.43,-22.86,0
1157,1157,21.43,5.48,6.88,0
1158,1158,21.44,-10.67,8.67,0
1159,1159,21.45,-0.68,-18.55,0
1160,1160,21.47,12.51,13.35,0
1161,1161,21.48,8.58,8.09,0
1162,1162,21.49,9.57,-29.3,0
1163,1163,21.51,4.83,5.97,0
1164,1164,21.52,-1.56,17.03,0
1165,1165,21.53,6.63,-19.06,0
1166,1166,21.54,2.3,-7.95,0
1167,1167,21.56,-7.33,-17.36,0
1168,1168,21.57,3.65,-42.13,0
1169,1169,21.58,5.04,1.77,0
1170,1170,21.6,-3.68,12.32,0
1171,1171,21.61,5.31,-21.97,0
1172,1172,21.62,7.39,3.96,0
1173,1173,21.64,-0.61,12.3,0
1174,1174,21.65,4.08,-18.64,0
1175,1175,21.67,-4.98,2.09,0
1176,1176,21.68,-23.25,5.81,0
1177,1177,21.69,-8.54,-22.94,0
1178,1178,21.7,12.32,1.67,0
1179,1179,21.72,10.99,8.24,0
1180,1180,21.73,10.37,-20.69,0
1181,1181,21.75,6.09,-1.79,0
1182,1182,21.76,-1.5,-2.15,0
1183,1183,21.77,5.01,-31.97,0
1184,1184,21.78,0.01,-9.59,0
1185,1185,21.8,-14.44,-10.51,0
1186,1186,21.81,-2.1,-42.07,0
1187,1187,21.82,10.58,-8.44,0
1188,1188,21.84,2.79,7.55,0
1189,1189,21.85,2.74,-27.33,0
1190,1190,21.87,3.49,-7.97,0
1191,1191,21.88,-1.57,10.24,0
1192,1192,21.89,7.66,-12.99,0
1193,1193,21.91,11.25,6.1,0
1194,1194,21.92,1.2,10.22,0
1195,1195,21.93,-1.6,-31.46,0
1196,1196,21.95,-13.0,-20.71,0
1197,1197,21.96,-22.68,-5.6,0
1198,1198,21.97,-1.59,-25.44,0
1199,1199,21.99,10.98,0.37,0
1200,1200,22.0,1.71,14.79,0
1201,1201,22.01,8.29,-19.41,0
1202,1202,22.03,10.21,-9.09,0
1203,1203,22.04,-9.57,0.18,0
1204,1204,22.05,-14.01,-30.42,0
1205,1205,22.07,-1.54,-9.57,0
1206,1206,22.08,5.36,17.22,0
1207,1207,22.09,2.36,-3.59,0
1208,1208,22.11,-13.18,6.68,0
1209,1209,22.12,-17.38,10.69,0
1210,1210,22.13,5.08,-28.01,0
1211,1211,22.15,10.72,-16.97,0
1212,1212,22.16,-6.71,-2.4,0
1213,1213,22.17,-6.88,-47.33,0
1214,1214,22.18,-2.08,-65.05,0
1215,1215,22.2,5.75,-55.86,0
1216,1216,22.21,40.55,-84.42,0
1217,1217,22.22,48.63,-166.55,0
1218,1218,22.24,11.99,-204.12,0
1219,1219,22.25,7.46,-35.98,0
1220,1220,22.26,29.05,193.09,0
1221,1221,22.28,18.96,296.54,0
1222,1222,22.29,-14.82,359.38,0
1223,1223,22.3,-55.1,345.21,0
1224,1224,22.32,-65.74,244.27,0
1225,1225,22.33,-16.62,252.38,0
1226,1226,22.34,22.42,346.21,0
1227,1227,22.36,3.73,347.59,0
1228,1228,22.37,-17.15,237.26,0
1229,1229,22.38,-21.66,44.71,0
1230,1230,22.4,-33.26,-156.21,0
1231,1231,22.41,-31.56,-153.62,0
1232,1232,22.42,-5.61,29.53,0
1233,1233,22.44,13.81,67.72,0
1234,1234,22.45,3.82,-77.12,0
1235,1235,22.46,-22.71,-178.38,0
1236,1236,22.48,-32.57,-205.26,0
1237,1237,22.49,-17.42,-228.14,0
1238,1238,22.5,-6.99,-230.83,0
1239,1239,22.52,-10.67,-202.35,0
1240,1240,22.53,-0.13,-180.57,0
1241,1241,22.55,31.37,-166.59,0
1242,1242,22.56,52.06,-136.52,0
1243,1243,22.57,27.75,-85.26,0
1244,1244,22.59,-26.2,-9.24,0
1245,1245,22.6,-37.18,-2.1,0
1246,1246,22.61,6.5,-97.01,0
1247,1247,22.63,22.48,-104.6,0
1248,1248,22.64,-5.41,-42.7,0
1249,1249,22.65,-15.53,-116.38,0
1250,1250,22.67,-3.44,-202.63,0
1251,1251,22.68,5.35,-150.38,0
1252,1252,22.69,7.11,-93.34,0
1253,1253,22.71,-1.19,-90.02,0
1254,1254,22.72,7.51,-79.73,0
1255,1255,22.73,38.34,-59.47,0
1256,1256,22.75,30.78,-33.84,0
1257,1257,22.76,-9.29,-29.67,0
1258,1258,22.77,-12.27,-34.88,0
1259,1259,22.79,12.73,16.66,0
1260,1260,22.8,19.02,26.56,0
1261,1261,22.81,7.88,-73.04,0
1262,1262,22.82,-7.61,-97.59,0
1263,1263,22.84,-15.89,-15.56,0
1264,1264,22.85,-5.37,23.26,0
1265,1265,22.86,7.19,28.48,0
1266,1266,22.88,9.16,6.64,0
1267,1267,22.89,10.69,-45.0,0
1268,1268,22.9,6.02,-9.11,0
1269,1269,22.92,-0.21,45.01,0
1270,1270,22.93,5.95,-22.3,0
1271,1271,22.94,4.87,-71.6,0
1272,1272,22.96,-6.3,-32.42,0
1273,1273,22.97,-3.41,-6.47,0
1274,1274,22.98,0.41,55.53,0
1275,1275,23.0,-9.61,107.72,0
1276,1276,23.01,-12.0,39.16,0
1277,1277,23.02,-2.86,24.72,0
1278,1278,23.04,2.08,69.68,0
1279,1279,23.05,-1.99,-0.73,0
1280,1280,23.06,-16.61,-3.14,0
1281,1281,23.08,-23.2,107.34,0
1282,1282,23.09,-1.17,65.97,0
1283,1283,23.1,18.22,-28.28,0
1284,1284,23.12,8.61,5.53,0
1285,1285,23.13,-1.69,45.49,0
1286,1286,23.14,-1.42,78.85,0
1287,1287,23.16,-3.19,110.68,0
1288,1288,23.17,3.23,32.51,0
1289,1289,23.19,17.25,-2.71,0
1290,1290,23.2,25.19,85.72,0
1291,1291,23.21,26.38,53.29,0
1292,1292,23.23,15.6,-47.89,0
1293,1293,23.24,-0.02,5.93,0
1294,1294,23.25,-5.79,96.42,0
1295,1295,23.27,-13.72,112.94,0
1296,1296,23.28,-21.45,80.42,0
1297,1297,23.29,-11.64,-4.78,0
1298,1298,23.31,-1.19,-11.2,0
1299,1299,23.32,2.08,72.5,0
1300,1300,23.33,11.74,50.88,0
1301,1301,23.35,10.89,2.9,0
1302,1302,23.36,-1.76,40.86,0
1303,1303,23.37,5.92,31.33,0
1304,1304,23.39,20.01,15.79,0
1305,1305,23.4,11.51,57.38,0
1306,1306,23.41,4.25,36.81,0
1307,1307,23.43,8.7,18.31,0
1308,1308,23.44,0.85,52.82,0
1309,1309,23.45,-11.33,21.02,0
1310,1310,23.46,-11.52,6.13,0
1311,1311,23.48,-11.81,64.77,0
1312,1312,23.49,-15.13,51.64,0
1313,1313,23.5,-16.52,18.47,0
1314,1314,23.52,-16.23,21.93,0
1315,1315,23.53,-2.9,-32.27,0
1316,1316,23.54,14.09,-8.04,0
1317,1317,23.56,6.98,114.37,0
1318,1318,23.57,-7.93,75.11,0
1319,1319,23.58,-3.09,-18.64,0
1320,1320,23.6,10.24,17.79,0
1321,1321,23.61,13.32,6.48,0
1322,1322,23.62,-1.55,-50.89,0
1323,1323,23.64,-21.6,-20.17,0
1324,1324,23.65,-20.27,-1.57,0
1325,1325,23.67,-6.38,14.67,0
1326,1326,23.68,-1.75,65.12,0
1327,1327,23.69,1.73,14.3,0
1328,1328,23.7,2.02,-29.6,0
1329,1329,23.72,-9.14,52.74,0
1330,1330,23.73,-9.42,57.77,0
1331,1331,23.75,3.33,4.99,0
1332,1332,23.76,-0.57,46.59,0
1333,1333,23.77,-12.53,29.09,0
1334,1334,23.78,-9.01,-60.24,0
1335,1335,23.8,-1.15,-73.5,0
1336,1336,23.81,1.54,-61.04,0
1337,1337,23.83,-3.42,-22.58,0
1338,1338,23.84,-11.47,24.93,0
1339,1339,23.85,-1.7,-27.8,0
1340,1340,23.87,12.28,-44.13,0
1341,1341,23.88,5.63,43.66,0
1342,1342,23.89,3.47,39.8,0
1343,1343,23.91,11.85,1.4,0
1344,1344,23.92,2.17,40.8,0
1345,1345,23.93,-5.15,-8.09,0
1346,1346,23.95,8.66,-72.64,0
1347,1347,23.96,11.82,22.38,0
1348,1348,23.97,0.73,75.82,0
1349,1349,23.99,-5.14,30.18,0
1350,1350,24.0,-5.54,43.48,0
1351,1351,24.01,3.58,21.98,0
1352,1352,24.03,14.32,-35.77,0
1353,1353,24.04,9.55,0.21,0
1354,1354,24.05,-0.21,14.79,0
1355,1355,24.07,-6.8,-23.05,0
1356,1356,24.08,-15.18,-15.91,0
1357,1357,24.09,-11.65,-24.71,0
1358,1358,24.1,1.02,-18.44,0
1359,1359,24.12,-1.71,34.29,0
1360,1360,24.13,-10.57,-4.76,0
1361,1361,24.14,-9.61,-46.28,0
1362,1362,24.16,-7.63,27.65,0
1363,1363,24.17,-4.04,44.07,0
1364,1364,24.18,-1.43,15.13,0
1365,1365,24.2,-11.27,67.49,0
1366,1366,24.21,-11.85,67.62,0
1367,1367,24.22,11.73,9.39,0
1368,1368,24.24,30.16,3.7,0
1369,1369,24.25,29.32,-50.91,0
1370,1370,24.26,15.58,-153.82,0
1371,1371,24.28,-9.37,-208.62,0
1372,1372,24.29,-24.53,-282.47,0
1373,1373,24.3,-21.34,-324.31,0
1374,1374,24.32,-15.58,-252.61,0
1375,1375,24.33,5.55,-212.17,0
1376,1376,24.34,33.03,-197.48,0
1377,1377,24.36,23.95,-97.17,0
1378,1378,24.37,0.33,-28.64,0
1379,1379,24.38,-1.22,-15.2,0
1380,1380,24.4,-1.48,36.7,0
1381,1381,24.41,-4.35,50.92,0
1382,1382,24.42,0.53,40.61,0
1383,1383,24.44,-1.55,84.76,0
1384,1384,24.45,-6.16,81.63,0
1385,1385,24.465,-6.64,45.61,0
1386,1386,24.48,-13.14,77.96,0
1387,1387,24.49,-7.41,83.79,0
1388,1388,24.51,16.07,51.39,0
1389,1389,24.52,23.92,62.15,0
1390,1390,24.53,16.24,42.24,0
1391,1391,24.55,12.67,12.59,0
1392,1392,24.56,8.75,55.39,0
1393,1393,24.57,7.75,66.3,0
1394,1394,24.59,11.42,44.18,0
1395,1395,24.6,6.87,79.86,0
1396,1396,24.61,5.25,79.62,0
1397,1397,24.63,14.49,37.29,0
1398,1398,24.64,14.42,51.42,0
1399,1399,24.65,7.83,49.9,0
1400,1400,24.67,5.58,28.01,0
1401,1401,24.68,-1.11,62.62,0
1402,1402,24.69,-2.97,61.81,0
1403,1403,24.71,1.52,24.31,0
1404,1404,24.72,-5.42,51.03,0
1405,1405,24.73,-10.69,57.92,0
1406,1406,24.75,-11.35,24.82,0
1407,1407,24.76,-21.9,47.28,0
1408,1408,24.77,-16.1,52.99,0
1409,1409,24.78,6.69,16.76,0
1410,1410,24.8,4.54,25.34,0
1411,1411,24.81,-4.21,22.21,0
1412,1412,24.82,9.2,-0.44,0
1413,1413,24.84,13.49,33.52,0
1414,1414,24.85,0.78,41.51,0
1415,1415,24.86,-12.41,7.09,0
1416,1416,24.88,-26.68,25.98,0
1417,1417,24.89,-21.78,29.11,0
1418,1418,24.9,0.79,-12.68,0
1419,1419,24.92,4.48,-3.71,0
1420,1420,24.93,2.55,8.65,0
1421,1421,24.94,10.71,-7.84,0
1422,1422,24.96,5.03,15.08,0
1423,1423,24.97,-0.57,17.81,0
1424,1424,24.98,4.0,-18.36,0
1425,1425,25.0,-5.99,-2.55,0
1426,1426,25.01,-5.65,7.5,0
1427,1427,25.02,18.52,-24.21,0
1428,1428,25.04,18.49,-11.26,0
1429,1429,25.05,-0.96,-3.07,0
1430,1430,25.06,-4.86,-33.0,0
1431,1431,25.08,-6.89,-17.08,0
1432,1432,25.09,-10.1,-8.42,0
1433,1433,25.1,-12.34,-38.54,0
1434,1434,25.12,-24.84,-16.37,0
1435,1435,25.13,-17.31,-0.11,0
1436,1436,25.15,11.54,-38.63,0
1437,1437,25.16,9.08,-33.95,0
1438,1438,25.17,-3.63,-17.44,0
1439,1439,25.19,10.21,-36.6,0
1440,1440,25.2,9.77,-10.36,0
1441,1441,25.21,-7.56,14.28,0
1442,1442,25.23,-6.18,-24.0,0
1443,1443,25.24,0.42,-31.47,0
1444,1444,25.25,2.31,-22.82,0
1445,1445,25.27,-0.23,-51.67,0
1446,1446,25.28,-12.79,-43.26,0
1447,1447,25.29,-9.91,-24.5,0
1448,1448,25.31,6.59,-43.43,0
1449,1449,25.32,5.97,-20.91,0
1450,1450,25.33,14.36,1.08,0
1451,1451,25.35,30.38,-34.64,0
1452,1452,25.36,-0.65,-26.84,0
1453,1453,25.37,-39.25,-4.81,0
1454,1454,25.38,-24.29,-43.03,0
1455,1455,25.4,1.06,-38.32,0
1456,1456,25.41,10.2,-0.38,0
1457,1457,25.42,15.17,-17.26,0
1458,1458,25.44,-3.3,-11.21,0
1459,1459,25.45,-20.78,12.06,0
1460,1460,25.46,-4.07,-21.16,0
1461,1461,25.48,11.26,-27.67,0
1462,1462,25.49,12.86,-8.37,0
1463,1463,25.5,10.1,-32.58,0
1464,1464,25.52,-12.16,-22.58,0
1465,1465,25.53,-23.71,2.17,0
1466,1466,25.54,-4.12,-38.4,0
1467,1467,25.56,1.57,-44.58,0
1468,1468,25.57,-4.98,-13.1,0
1469,1469,25.58,3.3,-35.96,0
1470,1470,25.6,3.51,-30.05,0
1471,1471,25.61,0.33,6.89,0
1472,1472,25.62,6.66,-15.96,0
1473,1473,25.64,-2.41,-11.75,0
1474,1474,25.65,-6.51,21.5,0
1475,1475,25.67,8.62,-16.17,0
1476,1476,25.68,2.87,-33.57,0
1477,1477,25.69,-7.05,-6.27,0
1478,1478,25.7,3.43,-25.84,0
1479,1479,25.72,-1.75,-19.31,0
1480,1480,25.73,-10.99,15.58,0
1481,1481,25.75,0.5,-13.81,0
1482,1482,25.76,-0.82,-12.7,0
1483,1483,25.77,-5.35,27.54,0
1484,1484,25.79,11.73,-6.96,0
1485,1485,25.8,13.18,-22.69,0
1486,1486,25.81,-2.22,11.4,0
1487,1487,25.83,-3.27,-13.5,0
1488,1488,25.84,-1.41,-16.01,0
1489,1489,25.85,4.3,24.55,0
1490,1490,25.87,14.58,-5.98,0
1491,1491,25.88,2.49,-19.66,0
1492,1492,25.89,-10.14,18.16,0
1493,1493,25.91,-1.65,-4.79,0
1494,1494,25.92,-3.88,-9.0,0
1495,1495,25.93,-7.97,34.87,0
1496,1496,25.95,2.54,4.62,0
1497,1497,25.96,-0.99,-20.49,0
1498,1498,25.97,-0.67,12.92,0
1499,1499,25.99,18.87,-3.98,0
1500,1500,26.0,10.15,-11.98,0
1501,1501,26.01,-14.76,17.34,0
1502,1502,26.02,-14.38,-14.97,0
1503,1503,26.04,-13.36,-13.44,0
1504,1504,26.05,-12.84,46.36,0
1505,1505,26.06,4.24,17.92,0
1506,1506,26.08,8.73,-13.41,0
1507,1507,26.09,5.12,22.6,0
1508,1508,26.1,8.87,6.23,0
1509,1509,26.12,-5.98,-5.46,0
1510,1510,26.13,-16.02,30.68,0
1511,1511,26.14,6.28,12.73,0
1512,1512,26.16,16.91,10.08,0
1513,1513,26.17,15.65,23.22,0
1514,1514,26.18,28.75,-72.47,0
1515,1515,26.2,21.53,-133.6,0
1516,1516,26.21,2.7,-90.24,0
1517,1517,26.22,7.2,-116.41,0
1518,1518,26.24,0.86,-149.72,0
1519,1519,26.25,-10.97,-112.68,0
1520,1520,26.26,10.32,-123.15,0
1521,1521,26.28,27.61,-102.94,0
1522,1522,26.29,19.53,-12.44,0
1523,1523,26.3,6.6,-15.56,0
1524,1524,26.32,-19.59,-36.35,0
1525,1525,26.33,-42.26,20.21,0
1526,1526,26.34,-34.57,33.54,0
1527,1527,26.36,-18.25,45.74,0
1528,1528,26.37,-3.79,97.98,0
1529,1529,26.38,3.16,83.66,0
1530,1530,26.4,-11.57,95.83,0
1531,1531,26.41,-10.87,167.0,0
1532,1532,26.43,9.53,134.95,0
1533,1533,26.44,-10.38,101.5,0
1534,1534,26.45,-35.44,162.54,0
1535,1535,26.47,-4.04,154.41,0
1536,1536,26.48,20.49,121.24,0
1537,1537,26.49,8.3,153.29,0
1538,1538,26.51,13.59,125.04,0
1539,1539,26.52,17.98,85.2,0
1540,1540,26.53,3.3,107.16,0
1541,1541,26.55,6.31,74.22,0
1542,1542,26.56,10.28,54.35,0
1543,1543,26.57,3.61,110.81,0
1544,1544,26.59,10.01,90.19,0
1545,1545,26.6,11.17,47.43,0
1546,1546,26.61,2.9,79.72,0
1547,1547,26.63,-0.97,61.1,0
1548,1548,26.64,-10.59,27.44,0
1549,1549,26.65,-3.46,53.8,0
1550,1550,26.67,22.11,29.21,0
1551,1551,26.68,14.45,5.24,0
1552,1552,26.69,-3.74,39.86,0
1553,1553,26.7,11.34,9.98,0
1554,1554,26.72,16.36,-15.68,0
1555,1555,26.73,0.93,25.54,0
1556,1556,26.75,2.3,-7.43,0
1557,1557,26.76,4.96,-38.7,0
1558,1558,26.77,3.03,13.23,0
1559,1559,26.78,3.96,-10.0,0
1560,1560,26.8,-15.64,-51.83,0
1561,1561,26.81,-24.61,-6.98,0
1562,1562,26.82,5.3,-14.77,0
1563,1563,26.84,18.13,-37.04,0
1564,1564,26.85,6.22,13.87,0
1565,1565,26.86,2.69,-7.99,0
1566,1566,26.88,-12.1,-62.68,0
1567,1567,26.89,-24.46,-30.15,0
1568,1568,26.9,-9.89,-27.98,0
1569,1569,26.92,-4.09,-46.65,0
1570,1570,26.93,-3.28,-16.44,0
1571,1571,26.94,9.07,-46.19,0
1572,1572,26.96,-4.78,-76.04,0
1573,1573,26.97,-20.1,-26.1,0
1574,1574,26.98,2.45,-37.94,0
1575,1575,27.0,3.44,-67.25,0
1576,1576,27.01,-23.74,-21.96,0
1577,1577,27.02,-17.07,-37.71,0
1578,1578,27.04,3.67,-74.81,0
1579,1579,27.05,10.43,-34.36,0
1580,1580,27.065,14.83,-44.63,0
1581,1581,27.08,1.76,-73.7,0
1582,1582,27.09,-19.22,-27.64,0
1583,1583,27.11,-23.49,-30.82,0
1584,1584,27.12,-26.03,-56.44,0
1585,1585,27.13,-18.55,-16.33,0
1586,1586,27.15,1.25,-25.81,0
1587,1587,27.16,-5.6,-50.86,0
1588,1588,27.17,-13.42,-11.67,0
1589,1589,27.19,13.84,-31.0,0
1590,1590,27.2,23.12,-63.9,0
1591,1591,27.21,3.47,-13.29,0
1592,1592,27.23,1.3,-11.05,0
1593,1593,27.24,-4.03,-40.4,0
1594,1594,27.25,-19.12,-9.68,0
1595,1595,27.27,-10.22,-29.05,0
1596,1596,27.28,-2.23,-63.52,0
1597,1597,27.29,-1.29,-18.03,0
1598,1598,27.3,13.9,-18.14,0
1599,1599,27.32,12.35,-50.57,0
1600,1600,27.33,5.61,-15.91,0
1601,1601,27.34,21.57,-19.44,0
1602,1602,27.36,16.28,-48.18,0
1603,1603,27.37,-2.5,-9.53,0
1604,1604,27.38,3.42,-10.88,0
1605,1605,27.4,0.53,-43.67,0
1606,1606,27.41,-9.77,-8.78,0
1607,1607,27.42,-1.33,0.02,0
1608,1608,27.44,-4.83,-18.04,0
1609,1609,27.45,-11.35,10.62,0
1610,1610,27.46,5.54,-4.75,0
1611,1611,27.48,8.44,-33.95,0
1612,1612,27.49,-1.2,4.22,0
1613,1613,27.5,6.64,-2.76,0
1614,1614,27.52,6.63,-31.37,0
1615,1615,27.53,2.11,16.74,0
1616,1616,27.54,15.61,22.76,0
1617,1617,27.56,12.19,-17.39,0
1618,1618,27.57,-6.52,5.7,0
1619,1619,27.58,-4.27,9.28,0
1620,1620,27.6,-1.39,-12.08,0
1621,1621,27.61,-2.82,22.74,0
1622,1622,27.62,8.31,18.97,0
1623,1623,27.64,1.82,-21.49,0
1624,1624,27.65,-15.25,0.88,0
1625,1625,27.67,-4.67,6.41,0
1626,1626,27.68,5.9,-9.58,0
1627,1627,27.69,3.01,33.34,0
1628,1628,27.7,9.52,41.97,0
1629,1629,27.72,4.53,6.45,0
1630,1630,27.73,-8.6,18.47,0
1631,1631,27.75,1.63,7.38,0
1632,1632,27.76,7.14,-21.63,0
1633,1633,27.77,-2.38,16.98,0
1634,1634,27.79,2.64,23.01,0
1635,1635,27.8,2.73,-15.71,0
1636,1636,27.81,-9.91,13.12,0
1637,1637,27.83,-5.67,35.87,0
1638,1638,27.84,1.69,14.24,0
1639,1639,27.85,3.08,25.98,0
1640,1640,27.87,9.23,17.33,0
1641,1641,27.88,-2.92,-9.37,0
1642,1642,27.89,-19.97,25.87,0
1643,1643,27.91,-9.75,34.76,0
1644,1644,27.92,-1.73,0.28,0
1645,1645,27.93,0.08,22.61,0
1646,1646,27.94,14.93,30.7,0
1647,1647,27.96,8.89,-4.37,0
1648,1648,27.97,-11.23,14.46,0
1649,1649,27.98,-3.52,28.32,0
1650,1650,28.0,3.76,2.1,0
1651,1651,28.01,1.79,17.32,0
1652,1652,28.02,16.9,17.26,0
1653,1653,28.04,14.65,-17.29,0
1654,1654,28.05,-6.87,11.29,0
1655,1655,28.06,-3.76,38.73,0
1656,1656,28.08,-3.44,9.88,0
1657,1657,28.09,-18.01,9.24,0
1658,1658,28.1,-6.92,5.89,0
1659,1659,28.12,11.51,-21.65,0
1660,1660,28.13,14.97,9.31,0
1661,1661,28.14,20.15,40.66,0
1662,1662,28.16,17.92,30.38,0
1663,1663,28.17,10.65,76.79,0
1664,1664,28.18,11.22,145.34,0
1665,1665,28.2,-0.75,171.41,0
1666,1666,28.21,-13.0,204.16,0
1667,1667,28.22,-1.39,196.86,0
1668,1668,28.24,1.39,132.44,0
1669,1669,28.25,-9.09,122.42,0
1670,1670,28.26,-0.56,122.31,0
1671,1671,28.28,8.22,60.33,0
1672,1672,28.29,0.68,19.34,0
1673,1673,28.3,-6.47,-17.22,0
1674,1674,28.32,-14.39,-93.56,0
1675,1675,28.33,-11.7,-124.08,0
1676,1676,28.34,9.49,-123.89,0
1677,1677,28.36,10.89,-141.17,0
1678,1678,28.37,-6.62,-113.06,0
1679,1679,28.39,-7.01,-88.17,0
1680,1680,28.4,-5.91,-118.7,0
1681,1681,28.41,-9.65,-99.78,0
1682,1682,28.43,-0.35,-61.39,0
1683,1683,28.44,-0.9,-87.19,0
1684,1684,28.45,-13.71,-85.36,0
1685,1685,28.47,-12.54,-64.19,0
1686,1686,28.48,-9.57,-98.52,0
1687,1687,28.49,-2.43,-98.42,0
1688,1688,28.51,18.19,-64.58,0
1689,1689,28.52,15.14,-73.5,0
1690,1690,28.53,-6.53,-57.25,0
1691,1691,28.55,-6.52,-30.64,0
1692,1692,28.56,-3.13,-58.89,0
1693,1693,28.57,-3.71,-49.96,0
1694,1694,28.58,8.77,-13.33,0
1695,1695,28.6,6.22,-31.05,0
1696,1696,28.61,-7.39,-24.15,0
1697,1697,28.62,7.19,-0.44,0
1698,1698,28.64,20.3,-31.65,0
1699,1699,28.65,6.42,-23.47,0
1700,1700,28.67,1.26,10.71,0
1701,1701,28.68,6.67,-22.57,0
1702,1702,28.69,4.24,-20.24,0
1703,1703,28.7,2.34,23.06,0
1704,1704,28.72,-3.4,-2.97,0
1705,1705,28.73,-9.06,-10.02,0
1706,1706,28.75,0.63,24.73,0
1707,1707,28.76,4.18,1.09,0
1708,1708,28.77,-5.67,-3.42,0
1709,1709,28.78,-4.77,30.12,0
1710,1710,28.8,-2.24,4.77,0
1711,1711,28.81,-4.5,0.43,0
1712,1712,28.82,4.76,35.33,0
1713,1713,28.84,7.45,13.21,0
1714,1714,28.85,-4.59,16.06,0
1715,1715,28.86,-7.37,54.36,0
1716,1716,28.88,-9.87,20.83,0
1717,1717,28.89,-17.15,7.48,0
1718,1718,28.9,-9.83,43.96,0
1719,1719,28.92,-3.88,19.71,0
1720,1720,28.93,-5.01,13.05,0
1721,1721,28.94,8.25,47.16,0
1722,1722,28.96,14.37,12.77,0
1723,1723,28.97,2.4,0.67,0
1724,1724,28.98,0.26,43.55,0
1725,1725,29.0,-1.43,22.17,0
1726,1726,29.01,-13.29,17.63,0
1727,1727,29.03,-13.55,61.85,0
1728,1728,29.04,-9.12,29.36,0
1729,1729,29.05,-9.68,3.85,0
1730,1730,29.07,-2.24,37.98,0
1731,1731,29.08,1.57,15.56,0
1732,1732,29.09,-2.83,2.75,0
1733,1733,29.11,2.34,38.5,0
1734,1734,29.12,4.26,16.28,0
1735,1735,29.13,-1.8,16.31,0
1736,1736,29.15,3.46,61.34,0
1737,1737,29.16,2.99,18.67,0
1738,1738,29.17,-6.31,-11.2,0
1739,1739,29.19,0.65,33.96,0
1740,1740,29.2,3.58,12.7,0
1741,1741,29.21,-6.24,-8.42,0
1742,1742,29.22,-0.72,33.71,0
1743,1743,29.24,0.79,12.74,0
1744,1744,29.25,-17.18,-6.35,0
1745,1745,29.26,-21.48,35.46,0
1746,1746,29.28,-8.89,12.96,0
1747,1747,29.29,4.2,-9.38,0
1748,1748,29.3,14.83,25.68,0
1749,1749,29.32,7.07,-0.42,0
1750,1750,29.33,-10.03,-10.46,0
1751,1751,29.34,-5.21,45.88,0
1752,1752,29.36,7.28,25.54,0
1753,1753,29.37,9.29,-2.44,0
1754,1754,29.38,13.15,28.57,0
1755,1755,29.4,7.78,-5.3,0
1756,1756,29.41,-9.07,-27.18,0
1757,1757,29.42,-7.26,26.16,0
1758,1758,29.44,3.61,17.16,0
1759,1759,29.45,1.94,4.34,0
1760,1760,29.46,3.2,44.22,0
1761,1761,29.48,6.35,12.18,0
1762,1762,29.49,3.05,-12.53,0
1763,1763,29.5,10.54,28.29,0
1764,1764,29.52,19.15,-5.0,0
1765,1765,29.53,9.34,-28.52,0
1766,1766,29.54,4.12,29.59,0
1767,1767,29.56,11.06,15.6,0
1768,1768,29.57,11.08,-9.79,0
1769,1769,29.58,9.76,27.8,0
1770,1770,29.6,6.66,-6.62,0
1771,1771,29.61,-9.3,-38.32,0
1772,1772,29.62,-21.69,12.08,0
1773,1773,29.64,-18.66,-2.21,0
1774,1774,29.65,-4.81,-24.74,0
1775,1775,29.67,14.43,18.24,0
1776,1776,29.68,17.36,-13.6,0
1777,1777,29.69,0.68,-49.5,0
1778,1778,29.71,-2.31,-1.53,0
1779,1779,29.72,6.81,-14.74,0
1780,1780,29.73,4.94,-39.18,0
1781,1781,29.75,4.24,8.54,0
1782,1782,29.76,9.0,-6.34,0
1783,1783,29.77,8.66,-35.41,0
1784,1784,29.79,10.0,3.88,0
1785,1785,29.8,6.53,-10.38,0
1786,1786,29.81,-6.16,-26.6,0
1787,1787,29.83,-7.44,19.73,0
1788,1788,29.84,-2.9,-5.27,0
1789,1789,29.85,-5.95,-35.25,0
1790,1790,29.86,-0.5,13.91,0
1791,1791,29.88,5.29,-0.83,0
1792,1792,29.89,-5.04,-34.66,0
1793,1793,29.9,-5.9,2.12,0
1794,1794,29.92,6.66,-13.43,0
1795,1795,29.93,5.07,-35.91,0
1796,1796,29.94,-2.63,8.42,0
1797,1797,29.96,-2.88,-10.62,0
1798,1798,29.97,-6.21,-36.25,0
1799,1799,29.98,-10.17,11.1,0
1800,1800,30.0,-7.68,-10.4,0
1801,1801,30.01,1.15,-46.47,0
1802,1802,30.02,13.17,-1.54,0
1803,1803,30.04,3.47,-11.58,0
1804,1804,30.05,-30.79,-35.6,0
1805,1805,30.06,-39.83,14.61,0
1806,1806,30.08,-18.48,3.13,0
1807,1807,30.09,-8.97,-29.32,0
1808,1808,30.1,-1.28,10.85,0
1809,1809,30.12,16.56,-6.58,0
1810,1810,30.13,17.52,-38.31,0
1811,1811,30.14,7.59,12.69,0
1812,1812,30.16,1.53,7.44,0
1813,1813,30.17,-8.42,-18.71,0
1814,1814,30.18,-7.42,42.06,0
1815,1815,30.2,8.96,46.92,0
1816,1816,30.21,18.52,15.09,0
1817,1817,30.22,28.0,77.92,0
1818,1818,30.24,38.58,100.57,0
1819,1819,30.25,25.17,46.06,0
1820,1820,30.26,2.13,61.65,0
1821,1821,30.28,-1.83,81.46,0
1822,1822,30.29,8.61,26.9,0
1823,1823,30.3,22.38,19.37,0
1824,1824,30.32,24.06,91.28,0
1825,1825,30.33,8.77,140.27,0
1826,1826,30.35,2.52,56.92,0
1827,1827,30.36,5.13,-126.59,0
1828,1828,30.37,-8.61,-118.48,0
1829,1829,30.39,-25.57,150.02,0
1830,1830,30.4,-32.09,259.34,0
1831,1831,30.41,-36.04,38.11,0
1832,1832,30.43,-20.43,-144.22,0
1833,1833,30.44,14.02,-87.98,0
1834,1834,30.45,25.57,-13.75,0
1835,1835,30.47,5.35,-85.47,0
1836,1836,30.48,-19.07,-129.74,0
1837,1837,30.49,-32.15,32.67,0
1838,1838,30.5,-26.2,120.25,0
1839,1839,30.52,-4.84,-100.55,0
1840,1840,30.53,12.01,-222.6,0
1841,1841,30.54,19.48,-64.02,0
1842,1842,30.56,11.37,-39.09,0
1843,1843,30.57,-15.83,-142.46,0
1844,1844,30.58,-34.44,-93.03,0
1845,1845,30.6,-33.14,-64.7,0
1846,1846,30.61,-22.07,-146.07,0
1847,1847,30.62,-2.93,-131.91,0
1848,1848,30.64,3.85,-43.1,0
1849,1849,30.65,-14.15,-4.86,0
1850,1850,30.67,-16.26,-38.55,0
1851,1851,30.68,3.94,-129.52,0
1852,1852,30.69,0.51,-138.16,0
1853,1853,30.7,-10.34,-8.68,0
1854,1854,30.72,-0.21,66.64,0
1855,1855,30.73,4.32,39.75,0
1856,1856,30.75,2.58,9.77,0
1857,1857,30.76,-7.36,-29.19,0
1858,1858,30.77,-34.29,-31.05,0
1859,1859,30.78,-21.72,14.13,0
1860,1860,30.8,24.48,-9.44,0
1861,1861,30.81,18.19,-51.96,0
1862,1862,30.82,-13.29,-42.23,0
1863,1863,30.84,-6.12,-47.61,0
1864,1864,30.85,13.0,-16.21,0
1865,1865,30.86,26.13,56.1,0
1866,1866,30.88,28.97,4.09,0
1867,1867,30.89,8.17,-84.89,0
1868,1868,30.9,-3.07,-24.77,0
1869,1869,30.92,8.11,12.38,0
1870,1870,30.93,8.46,-71.62,0
1871,1871,30.94,1.94,-67.7,0
1872,1872,30.96,-0.16,14.62,0
1873,1873,30.97,-8.7,31.27,0
1874,1874,30.99,-7.81,25.44,0
1875,1875,31.0,4.98,29.31,0
1876,1876,31.01,4.77,36.02,0
1877,1877,31.03,9.31,51.04,0
1878,1878,31.04,26.76,28.58,0
1879,1879,31.05,19.47,25.86,0
1880,1880,31.07,-3.45,89.07,0
1881,1881,31.08,-9.18,56.04,0
1882,1882,31.09,-5.35,-54.67,0
1883,1883,31.11,7.43,-28.36,0
1884,1884,31.12,19.44,54.47,0
1885,1885,31.13,8.73,28.08,0
1886,1886,31.14,6.33,-38.21,0
1887,1887,31.16,17.4,-59.41,0
1888,1888,31.17,-2.65,-18.5,0
1889,1889,31.18,-19.29,40.03,0
1890,1890,31.2,7.2,22.72,0
1891,1891,31.21,19.77,0.07,0
1892,1892,31.22,4.77,85.76,0
1893,1893,31.24,6.03,140.67,0
1894,1894,31.25,11.27,73.41,0
1895,1895,31.26,14.83,41.73,0
1896,1896,31.28,30.95,72.58,0
1897,1897,31.29,27.17,73.2,0
1898,1898,31.3,-2.79,66.77,0
1899,1899,31.32,-20.27,28.61,0
1900,1900,31.33,-16.2,-39.66,0
1901,1901,31.34,5.18,-20.97,0
1902,1902,31.36,23.95,23.92,0
1903,1903,31.37,6.8,2.93,0
1904,1904,31.38,-16.09,-4.15,0
1905,1905,31.4,-11.26,2.29,0
1906,1906,31.41,-7.39,14.17,0
1907,1907,31.42,-1.38,64.48,0
1908,1908,31.44,13.29,35.83,0
1909,1909,31.45,-2.69,-55.36,0
1910,1910,31.46,-26.44,-12.9,0
1911,1911,31.48,-15.91,81.69,0
1912,1912,31.49,-6.51,47.17,0
1913,1913,31.5,-6.65,-11.41,0
1914,1914,31.52,3.67,5.21,0
1915,1915,31.53,-2.71,23.55,0
1916,1916,31.54,-7.36,12.71,0
1917,1917,31.56,26.84,-26.93,0
1918,1918,31.57,46.47,-58.11,0
1919,1919,31.58,12.29,-7.96,0
1920,1920,31.6,-35.08,59.45,0
1921,1921,31.61,-46.74,72.94,0
1922,1922,31.63,-18.69,68.52,0
1923,1923,31.64,-4.22,14.08,0
1924,1924,31.65,-15.18,-55.21,0
1925,1925,31.67,-3.78,0.37,0
1926,1926,31.68,4.88,82.46,0
1927,1927,31.69,-18.9,46.71,0
1928,1928,31.71,-22.51,21.22,0
1929,1929,31.72,-8.16,49.67,0
1930,1930,31.73,-17.7,18.06,0
1931,1931,31.75,-15.83,-4.83,0
1932,1932,31.76,8.61,31.05,0
1933,1933,31.77,10.26,33.44,0
1934,1934,31.78,7.36,27.75,0
1935,1935,31.8,14.73,26.47,0
1936,1936,31.81,-0.15,7.78,0
1937,1937,31.82,-12.64,52.65,0
1938,1938,31.84,-3.59,90.37,0
1939,1939,31.85,-2.82,19.45,0
1940,1940,31.86,-1.85,-31.04,0
1941,1941,31.88,-3.44,-26.93,0
1942,1942,31.89,-21.66,-36.24,0
1943,1943,31.9,-18.59,7.71,0
1944,1944,31.92,0.32,50.35,0
1945,1945,31.93,1.15,-4.77,0
1946,1946,31.94,7.11,-29.7,0
1947,1947,31.96,10.34,-18.59,0
1948,1948,31.97,-4.11,-62.64,0
1949,1949,31.98,2.58,-47.03,0
1950,1950,32.0,9.34,-0.67,0
1951,1951,32.01,-13.81,-45.01,0
1952,1952,32.03,-12.41,-40.38,0
1953,1953,32.04,9.34,-6.13,0
1954,1954,32.05,0.34,-83.05,0
1955,1955,32.06,-7.38,-81.34,0
1956,1956,32.08,-1.04,37.37,0
1957,1957,32.09,-6.58,46.84,0
1958,1958,32.11,5.38,24.47,0
1959,1959,32.12,23.27,45.09,0
1960,1960,32.13,-0.55,-38.01,0
1961,1961,32.15,-22.77,-102.7,0
1962,1962,32.16,-14.2,-18.46,0
1963,1963,32.17,-12.02,32.3,0
1964,1964,32.19,-6.08,13.35,0
1965,1965,32.2,7.62,9.49,0
1966,1966,32.21,-0.23,-5.96,0
1967,1967,32.22,6.44,27.11,0
1968,1968,32.24,37.9,78.43,0
1969,1969,32.25,29.29,22.36,0
1970,1970,32.27,-0.86,-6.7,0
1971,1971,32.28,0.52,39.09,0
1972,1972,32.29,2.47,-6.97,0
1973,1973,32.31,1.43,-67.42,0
1974,1974,32.32,16.23,-79.3,0
1975,1975,32.33,13.48,-164.84,0
1976,1976,32.35,2.92,-230.56,0
1977,1977,32.36,9.39,-221.61,0
1978,1978,32.37,6.53,-263.02,0
1979,1979,32.39,3.15,-256.6,0
1980,1980,32.4,10.27,-160.03,0
1981,1981,32.41,10.09,-136.45,0
1982,1982,32.43,17.97,-110.36,0
1983,1983,32.44,16.41,-22.38,0
1984,1984,32.45,-17.84,-11.42,0
1985,1985,32.47,-24.86,6.15,0
1986,1986,32.48,4.38,87.67,0
1987,1987,32.49,9.03,78.45,0
1988,1988,32.51,2.9,52.84,0
1989,1989,32.52,4.92,95.11,0
1990,1990,32.53,-10.82,76.36,0
1991,1991,32.54,-18.9,62.49,0
1992,1992,32.56,-2.3,112.87,0
1993,1993,32.57,-1.26,89.41,0
1994,1994,32.59,-7.31,69.08,0
1995,1995,32.6,6.11,114.94,0
1996,1996,32.61,9.15,83.09,0
1997,1997,32.63,-2.18,60.88,0
1998,1998,32.64,-4.5,115.86,0
1999,1999,32.65,-4.24,80.71,0
2000,2000,32.67,3.09,40.49,0
2001,2001,32.68,8.62,95.14,0
2002,2002,32.69,-4.47,75.6,0
2003,2003,32.71,-2.19,30.49,0
2004,2004,32.72,7.16,69.35,0
2005,2005,32.73,-10.42,61.66,0
2006,2006,32.75,-8.94,42.69,0
2007,2007,32.76,9.91,83.72,0
2008,2008,32.77,-7.39,58.88,0
2009,2009,32.79,-17.99,30.12,0
2010,2010,32.8,-3.71,69.22,0
2011,2011,32.81,-12.79,44.09,0
2012,2012,32.83,-12.39,25.85,0
2013,2013,32.84,12.37,78.55,0
2014,2014,32.85,11.53,44.68,0
2015,2015,32.87,12.33,0.42,0
2016,2016,32.88,28.39,46.85,0
2017,2017,32.89,15.37,34.39,0
2018,2018,32.9,6.36,6.61,0
2019,2019,32.92,13.39,48.66,0
2020,2020,32.93,-9.38,25.89,0
2021,2021,32.95,-17.22,-1.66,0
2022,2022,32.96,7.15,49.09,0
2023,2023,32.97,-0.8,25.21,0
2024,2024,32.99,-13.57,-13.32,0
2025,2025,33.0,-4.54,36.96,0
2026,2026,33.01,-16.54,21.62,0
2027,2027,33.03,-15.55,-20.64,0
2028,2028,33.04,12.57,12.66,0
2029,2029,33.05,9.2,-12.53,0
2030,2030,33.06,-0.35,-49.47,0
2031,2031,33.08,9.01,-5.15,0
2032,2032,33.09,-0.31,-16.76,0
2033,2033,33.11,-0.68,-38.05,0
2034,2034,33.12,17.96,14.8,0
2035,2035,33.13,6.31,-6.31,0
2036,2036,33.15,-4.65,-48.93,0
2037,2037,33.16,8.98,-5.31,0
2038,2038,33.17,-0.17,-12.32,0
2039,2039,33.19,-14.97,-37.78,0
2040,2040,33.2,-9.57,4.37,0
2041,2041,33.21,-11.7,-17.84,0
2042,2042,33.22,-4.33,-51.98,0
2043,2043,33.24,11.13,-3.09,0
2044,2044,33.25,-4.72,-18.82,0
2045,2045,33.27,-13.07,-61.12,0
2046,2046,33.28,0.39,-20.8,0
2047,2047,33.29,-13.0,-25.55,0
2048,2048,33.31,-18.59,-46.67,0
2049,2049,33.32,6.09,-0.16,0
2050,2050,33.33,5.94,-19.66,0
2051,2051,33.35,-1.96,-60.5,0
2052,2052,33.36,7.51,-21.33,0
2053,2053,33.37,-0.27,-33.04,0
2054,2054,33.38,-1.99,-62.31,0
2055,2055,33.4,7.28,-17.89,0
2056,2056,33.41,-16.12,-33.91,0
2057,2057,33.43,-22.9,-70.66,0
2058,2058,33.44,8.76,-22.43,0
2059,2059,33.45,9.02,-25.31,0
2060,2060,33.47,-0.93,-59.22,0
2061,2061,33.48,13.71,-20.42,0
2062,2062,33.49,7.09,-28.85,0
2063,2063,33.51,-2.17,-60.67,0
2064,2064,33.52,9.85,-15.38,0
2065,2065,33.53,0.89,-17.77,0
2066,2066,33.54,-5.27,-54.36,0
2067,2067,33.56,11.03,-19.92,0
2068,2068,33.57,4.86,-23.6,0
2069,2069,33.59,1.35,-51.96,0
2070,2070,33.6,16.81,-10.05,0
2071,2071,33.61,-1.54,-12.13,0
2072,2072,33.63,-21.45,-44.86,0
2073,2073,33.64,-3.43,-8.23,0
2074,2074,33.65,3.24,-13.11,0
2075,2075,33.67,3.5,-50.71,0
2076,2076,33.68,14.37,-18.28,0
2077,2077,33.69,0.2,-16.25,0
2078,2078,33.71,-4.41,-39.98,0
2079,2079,33.72,17.5,-3.1,0
2080,2080,33.73,5.21,-13.93,0
2081,2081,33.75,-13.59,-54.93,0
2082,2082,33.76,-4.01,-14.9,0
2083,2083,33.77,-14.55,-5.92,0
2084,2084,33.79,-18.63,-43.27,0
2085,2085,33.8,11.39,-17.08,0
2086,2086,33.81,10.57,-8.21,0
2087,2087,33.83,-9.41,-28.04,0
2088,2088,33.84,-7.13,10.11,0
2089,2089,33.85,-18.22,12.55,0
2090,2090,33.87,-20.06,-28.48,0
2091,2091,33.88,13.18,-6.82,0
2092,2092,33.89,15.83,3.3,0
2093,2093,33.9,-5.39,-12.88,0
2094,2094,33.92,-2.1,24.52,0
2095,2095,33.93,-4.91,25.02,0
2096,2096,33.95,-7.94,-15.92,0
2097,2097,33.96,5.7,9.2,0
2098,2098,33.97,-5.52,19.57,0
2099,2099,33.99,-12.64,-12.68,0
2100,2100,34.0,13.48,4.32,0
2101,2101,34.01,12.96,5.13,0
2102,2102,34.03,-0.31,-19.78,0
2103,2103,34.04,5.04,18.53,0
2104,2104,34.05,-20.53,32.98,0
2105,2105,34.06,-40.59,-0.18,0
2106,2106,34.08,-5.65,20.92,0
2107,2107,34.09,8.19,30.19,0
2108,2108,34.11,-7.15,2.77,0
2109,2109,34.12,6.14,26.99,0
2110,2110,34.13,14.17,29.98,0
2111,2111,34.15,5.99,-10.9,0
2112,2112,34.16,10.49,9.39,0
2113,2113,34.17,5.25,22.12,0
2114,2114,34.19,2.24,-26.84,0
2115,2115,34.2,9.58,-45.46,0
2116,2116,34.21,-9.67,-65.89,0
2117,2117,34.23,-7.76,-109.23,0
2118,2118,34.24,38.65,-92.12,0
2119,2119,34.25,53.19,-80.57,0
2120,2120,34.27,51.28,-120.81,0
2121,2121,34.28,66.41,-116.18,0
2122,2122,34.29,41.95,-98.43,0
2123,2123,34.31,-0.92,-105.47,0
2124,2124,34.32,-13.13,-56.12,0
2125,2125,34.33,-26.63,-4.25,0
2126,2126,34.35,-31.04,-6.13,0
2127,2127,34.36,-13.55,30.05,0
2128,2128,34.37,-17.98,71.66,0
2129,2129,34.38,-23.68,60.38,0
2130,2130,34.4,-10.75,84.55,0
2131,2131,34.41,-19.58,119.87,0
2132,2132,34.43,-24.72,108.12,0
2133,2133,34.44,-10.3,129.46,0
2134,2134,34.45,-22.42,155.69,0
2135,2135,34.47,-23.31,130.99,0
2136,2136,34.48,9.36,140.93,0
2137,2137,34.49,6.57,159.09,0
2138,2138,34.51,-12.23,129.53,0
2139,2139,34.52,-1.38,136.17,0
2140,2140,34.53,-6.04,142.74,0
2141,2141,34.54,-22.23,93.41,0
2142,2142,34.56,-8.58,93.95,0
2143,2143,34.57,3.35,114.08,0
2144,2144,34.59,2.67,73.03,0
2145,2145,34.6,13.25,67.94,0
2146,2146,34.61,6.61,85.86,0
2147,2147,34.63,-13.66,48.22,0
2148,2148,34.64,-3.15,40.79,0
2149,2149,34.65,11.2,52.8,0
2150,2150,34.67,0.65,19.99,0
2151,2151,34.68,-8.96,30.97,0
2152,2152,34.69,-12.56,53.82,0
2153,2153,34.71,-8.19,4.4,0
2154,2154,34.72,9.44,-3.97,0
2155,2155,34.73,9.66,27.68,0
2156,2156,34.75,-0.2,-4.84,0
2157,2157,34.76,9.74,-11.92,0
2158,2158,34.77,10.24,14.87,0
2159,2159,34.79,2.17,-20.88,0
2160,2160,34.8,8.97,-28.95,0
2161,2161,34.81,0.76,1.26,0
2162,2162,34.83,-4.07,-28.98,0
2163,2163,34.84,14.82,-32.22,0
2164,2164,34.85,4.73,-1.13,0
2165,2165,34.87,-7.91,-39.62,0
2166,2166,34.88,14.3,-53.03,0
2167,2167,34.89,8.73,-20.63,0
2168,2168,34.91,-10.4,-50.29,0
2169,2169,34.92,6.21,-59.25,0
2170,2170,34.93,5.85,-23.0,0
2171,2171,34.95,-13.44,-41.38,0
2172,2172,34.96,-9.0,-40.61,0
2173,2173,34.97,-10.98,-9.24,0
2174,2174,34.99,-12.26,-44.8,0
2175,2175,35.0,7.39,-57.61,0
2176,2176,35.01,1.34,-27.3,0
2177,2177,35.03,-4.6,-52.92,0
2178,2178,35.04,24.04,-44.78,0
2179,2179,35.05,14.47,0.35,0
2180,2180,35.06,-27.31,-39.74,0
2181,2181,35.08,-22.62,-54.28,0
2182,2182,35.09,1.77,-6.55,0
2183,2183,35.11,10.66,-35.73,0
2184,2184,35.12,22.57,-57.81,0
2185,2185,35.13,27.7,-19.0,0
2186,2186,35.15,25.51,-37.93,0
2187,2187,35.16,15.95,-44.01,0
2188,2188,35.17,-17.24,-2.64,0
2189,2189,35.19,-26.19,-29.33,0
2190,2190,35.2,1.73,-39.25,0
2191,2191,35.21,-3.89,4.96,0
2192,2192,35.22,-21.83,-21.75,0
2193,2193,35.24,-8.18,-39.21,0
2194,2194,35.25,-8.03,-7.03,0
2195,2195,35.27,-13.53,-44.62,0
2196,2196,35.28,1.94,-59.72,0
2197,2197,35.29,-4.34,-8.32,0
2198,2198,35.31,-16.58,-26.89,0
2199,2199,35.32,-2.6,-37.63,0
2200,2200,35.33,0.76,4.12,0
2201,2201,35.35,4.4,-27.46,0
2202,2202,35.36,20.39,-39.75,0
2203,2203,35.37,6.47,11.12,0
2204,2204,35.38,-3.12,-18.99,0
2205,2205,35.4,15.99,-41.64,0
2206,2206,35.41,1.86,2.29,0
2207,2207,35.43,-16.4,-21.35,0
2208,2208,35.44,9.9,-28.65,0
2209,2209,35.45,15.28,22.61,0
2210,2210,35.47,-4.81,-15.9,0
2211,2211,35.48,1.28,-42.88,0
2212,2212,35.49,2.66,12.29,0
2213,2213,35.51,-3.45,-8.89,0
2214,2214,35.52,7.98,-31.71,0
2215,2215,35.53,2.1,20.19,0
2216,2216,35.55,-9.16,3.01,0
2217,2217,35.56,5.16,-17.48,0
2218,2218,35.57,8.63,24.16,0
2219,2219,35.59,3.25,-8.94,0
2220,2220,35.6,6.57,-34.26,0
2221,2221,35.61,-7.98,19.2,0
2222,2222,35.63,-9.63,-0.49,0
2223,2223,35.64,17.97,-24.04,0
2224,2224,35.65,10.14,26.27,0
2225,2225,35.67,-11.16,6.22,0
2226,2226,35.68,7.71,-16.6,0
2227,2227,35.69,14.61,33.67,0
2228,2228,35.71,-3.53,11.43,0
2229,2229,35.72,-6.18,-15.69,0
2230,2230,35.73,-10.29,31.47,0
2231,2231,35.75,-11.45,6.72,0
2232,2232,35.76,5.76,-21.5,0
2233,2233,35.77,4.99,32.26,0
2234,2234,35.79,0.43,17.77,0
2235,2235,35.8,16.04,-7.65,0
2236,2236,35.81,10.17,41.18,0
2237,2237,35.83,-6.35,17.93,0
2238,2238,35.84,-1.07,-18.89,0
2239,2239,35.85,-6.7,21.77,0
2240,2240,35.87,-15.65,0.54,0
2241,2241,35.88,-4.29,-23.73,0
2242,2242,35.89,-6.87,29.02,0
2243,2243,35.9,-10.04,8.6,0
2244,2244,35.92,9.71,-17.8,0
2245,2245,35.93,9.65,41.5,0
2246,2246,35.95,-3.08,24.02,0
2247,2247,35.96,6.4,-17.49,0
2248,2248,35.97,8.23,26.06,0
2249,2249,35.99,-0.0,13.9,0
2250,2250,36.0,6.2,-13.36,0
2251,2251,36.01,6.55,33.77,0
2252,2252,36.03,2.68,19.87,0
2253,2253,36.04,5.74,-4.66,0
2254,2254,36.05,-9.64,43.18,0
2255,2255,36.06,-21.23,22.24,0
2256,2256,36.08,-7.32,-8.29,0
2257,2257,36.09,-12.8,40.33,0
2258,2258,36.11,-19.72,13.74,0
2259,2259,36.12,9.21,-29.48,0
2260,2260,36.13,16.92,26.15,0
2261,2261,36.15,-4.86,28.51,0
2262,2262,36.16,-5.83,-4.08,0
2263,2263,36.17,-5.61,31.9,0
2264,2264,36.19,-5.57,32.0,0
2265,2265,36.2,16.94,51.43,0
2266,2266,36.21,22.21,167.12,0
2267,2267,36.23,9.43,210.28,0
2268,2268,36.24,15.87,195.59,0
2269,2269,36.25,21.68,221.88,0
2270,2270,36.27,16.21,175.42,0
2271,2271,36.28,5.78,102.51,0
2272,2272,36.29,-24.24,100.67,0
2273,2273,36.31,-36.17,42.2,0
2274,2274,36.32,-4.15,-33.3,0
2275,2275,36.33,6.37,-28.9,0
2276,2276,36.35,-14.19,-78.45,0
2277,2277,36.36,-12.16,-145.1,0
2278,2278,36.37,-7.98,-121.73,0
2279,2279,36.38,-17.02,-135.33,0
2280,2280,36.4,-13.24,-162.16,0
2281,2281,36.41,-16.93,-112.75,0
2282,2282,36.43,-27.89,-115.51,0
2283,2283,36.44,-14.02,-139.01,0
2284,2284,36.45,1.72,-91.11,0
2285,2285,36.47,8.7,-95.87,0
2286,2286,36.48,21.77,-113.31,0
2287,2287,36.49,11.86,-48.49,0
2288,2288,36.51,-9.98,-39.16,0
2289,2289,36.52,2.02,-62.99,0
2290,2290,36.53,17.9,-24.7,0
2291,2291,36.54,14.16,-46.35,0
2292,2292,36.56,15.71,-89.5,0
2293,2293,36.57,11.71,-42.09,0
2294,2294,36.59,2.78,-35.92,0
2295,2295,36.6,6.97,-67.61,0
2296,2296,36.61,-2.71,-25.29,0
2297,2297,36.63,-20.05,-14.95,0
2298,2298,36.64,-7.89,-37.53,0
2299,2299,36.65,9.85,-1.81,0
2300,2300,36.67,16.0,-11.63,0
2301,2301,36.68,21.12,-48.63,0
2302,2302,36.69,5.05,-8.31,0
2303,2303,36.71,-15.64,1.01,0
2304,2304,36.72,-3.04,-20.34,0
2305,2305,36.73,10.75,20.22,0
2306,2306,36.75,2.12,13.6,0
2307,2307,36.76,-4.53,-27.0,0
2308,2308,36.77,-5.71,14.32,0
2309,2309,36.79,2.52,28.65,0
2310,2310,36.8,15.6,-4.94,0
2311,2311,36.81,0.15,18.48,0
2312,2312,36.83,-21.95,21.65,0
2313,2313,36.84,-14.77,-1.82,0
2314,2314,36.85,-8.6,31.53,0
2315,2315,36.87,-6.92,32.55,0
2316,2316,36.88,12.41,4.61,0
2317,2317,36.89,17.69,41.36,0
2318,2318,36.9,7.59,47.85,0
2319,2319,36.92,11.42,15.78,0
2320,2320,36.93,5.6,43.81,0
2321,2321,36.95,-7.8,45.72,0
2322,2322,36.96,-3.96,6.84,0
2323,2323,36.97,-13.51,22.71,0
2324,2324,36.99,-29.49,24.14,0
2325,2325,37.0,-11.06,7.2,0
2326,2326,37.01,5.57,49.11,0
2327,2327,37.03,-2.63,52.87,0
2328,2328,37.04,-1.0,13.08,0
2329,2329,37.05,-0.06,34.74,0
2330,2330,37.06,-9.82,35.73,0
2331,2331,37.08,-3.68,1.91,0
2332,2332,37.09,3.22,33.47,0
2333,2333,37.11,-1.35,41.54,0
2334,2334,37.12,5.38,2.53,0
2335,2335,37.13,9.42,29.72,0
2336,2336,37.15,0.51,48.21,0
2337,2337,37.16,1.6,12.95,0
2338,2338,37.17,1.49,19.75,0
2339,2339,37.19,-6.37,18.63,0
2340,2340,37.2,-0.17,-9.34,0
2341,2341,37.21,1.82,23.75,0
2342,2342,37.22,-7.35,40.35,0
2343,2343,37.24,4.02,4.39,0
2344,2344,37.25,16.16,18.29,0
2345,2345,37.27,6.27,26.88,0
2346,2346,37.28,4.9,-5.12,0
2347,2347,37.29,7.71,19.09,0
2348,2348,37.31,-4.91,36.31,0
2349,2349,37.32,-9.02,-0.72,0
2350,2350,37.33,-5.42,12.69,0
2351,2351,37.35,-6.52,28.93,0
2352,2352,37.36,6.77,-6.26,0
2353,2353,37.37,18.08,3.07,0
2354,2354,37.38,7.73,21.78,0
2355,2355,37.4,3.87,-0.16,0
2356,2356,37.41,3.69,18.16,0
2357,2357,37.43,-6.84,33.33,0
2358,2358,37.44,-8.44,-0.8,0
2359,2359,37.45,-15.29,3.21,0
2360,2360,37.47,-28.44,11.87,0
2361,2361,37.48,-10.53,-12.63,0
2362,2362,37.49,8.96,10.73,0
2363,2363,37.51,2.16,25.49,0
2364,2364,37.52,9.53,-15.19,0
2365,2365,37.53,20.03,-3.47,0
2366,2366,37.54,2.18,18.96,0
2367,2367,37.56,-10.26,-17.11,0
2368,2368,37.57,-8.64,-9.27,0
2369,2369,37.59,-13.49,15.54,0
2370,2370,37.6,-8.3,-16.5,0
2371,2371,37.61,3.63,-8.97,0
2372,2372,37.63,5.65,14.22,0
2373,2373,37.64,10.97,-24.08,0
2374,2374,37.65,8.05,-21.41,0
2375,2375,37.67,-6.95,12.38,0
2376,2376,37.68,1.55,-8.3,0
2377,2377,37.69,16.29,-1.46,0
2378,2378,37.71,11.05,19.55,0
2379,2379,37.72,16.48,-20.81,0
2380,2380,37.73,17.94,-23.54,0
2381,2381,37.75,-6.97,6.63,0
2382,2382,37.76,-11.78,-16.99,0
2383,2383,37.77,2.51,-7.44,0
2384,2384,37.79,-0.33,25.52,0
2385,2385,37.8,-0.17,-7.46,0
2386,2386,37.81,0.13,-14.09,0
2387,2387,37.83,-13.26,6.09,0
2388,2388,37.84,-7.4,-29.17,0
2389,2389,37.85,2.98,-23.14,0
2390,2390,37.87,-9.94,14.19,0
2391,2391,37.88,-4.07,-21.25,0
2392,2392,37.89,17.63,-30.91,0
2393,2393,37.9,11.92,0.59,0
2394,2394,37.92,4.55,-22.81,0
2395,2395,37.93,4.83,-19.3,0
2396,2396,37.95,-7.16,11.7,0
2397,2397,37.96,-1.26,-20.27,0
2398,2398,37.97,11.02,-17.0,0
2399,2399,37.99,-10.03,17.91,0
2400,2400,38.0,-21.49,-23.62,0
2401,2401,38.01,-6.36,-32.03,0
2402,2402,38.03,-3.13,11.28,0
2403,2403,38.04,2.85,-16.59,0
2404,2404,38.05,8.71,-27.31,0
2405,2405,38.06,-10.78,8.86,0
2406,2406,38.08,-11.79,-17.32,0
2407,2407,38.09,9.54,-24.35,0
2408,2408,38.11,6.52,4.28,0
2409,2409,38.12,4.51,-36.45,0
2410,2410,38.13,12.36,-40.01,0
2411,2411,38.15,-3.29,14.85,0
2412,2412,38.16,-11.02,-12.28,0
2413,2413,38.17,3.59,-42.18,0
2414,2414,38.19,9.82,-14.74,0
2415,2415,38.2,24.34,0.25,0
2416,2416,38.21,40.93,49.03,0
2417,2417,38.22,26.41,88.11,0
2418,2418,38.24,5.17,-2.16,0
2419,2419,38.25,-12.4,-94.54,0
2420,2420,38.27,-11.35,60.92,0
2421,2421,38.28,36.16,379.64,0
2422,2422,38.29,42.96,461.36,0
2423,2423,38.31,-14.52,300.36,0
2424,2424,38.32,-14.59,253.17,0
2425,2425,38.33,2.77,302.78,0
2426,2426,38.35,-44.22,208.92,0
2427,2427,38.36,-49.4,35.59,0
2428,2428,38.37,1.53,23.5,0
2429,2429,38.38,5.4,142.5,0
2430,2430,38.4,-7.01,134.99,0
2431,2431,38.41,5.75,1.15,0
2432,2432,38.43,9.38,-79.04,0
2433,2433,38.44,22.33,-92.9,0
2434,2434,38.45,43.69,-68.31,0
2435,2435,38.47,20.28,-37.75,0
2436,2436,38.48,-20.94,-85.1,0
2437,2437,38.49,-40.14,-203.23,0
2438,2438,38.51,-54.85,-286.71,0
2439,2439,38.52,-44.06,-234.86,0
2440,2440,38.53,-16.19,-85.62,0
2441,2441,38.54,-30.99,-55.63,0
2442,2442,38.56,-50.87,-238.27,0
2443,2443,38.57,-31.84,-351.92,0
2444,2444,38.59,-11.24,-200.56,0
2445,2445,38.6,2.5,-47.22,0
2446,2446,38.61,1.31,-59.19,0
2447,2447,38.63,-23.59,-91.96,0
2448,2448,38.64,-20.29,-99.14,0
2449,2449,38.65,2.11,-92.23,0
2450,2450,38.67,-16.56,-94.77,0
2451,2451,38.68,-31.03,-158.36,0
2452,2452,38.69,-5.38,-160.32,0
2453,2453,38.71,4.03,-97.21,0
2454,2454,38.72,6.26,-143.84,0
2455,2455,38.73,26.48,-185.88,0
2456,2456,38.75,16.28,-130.54,0
2457,2457,38.76,-1.83,-117.08,0
2458,2458,38.77,21.66,-85.35,0
2459,2459,38.79,26.2,-42.09,0
2460,2460,38.8,-6.66,-133.89,0
2461,2461,38.81,-8.91,-162.94,0
2462,2462,38.83,8.64,-82.58,0
2463,2463,38.84,6.9,-160.24,0
2464,2464,38.85,6.44,-190.01,0
2465,2465,38.87,16.76,15.21,0
2466,2466,38.88,25.74,79.05,0
2467,2467,38.89,16.84,-64.67,0
2468,2468,38.9,-13.75,-161.88,0
2469,2469,38.92,-15.2,-199.98,0
2470,2470,38.93,26.61,-131.74,0
2471,2471,38.95,43.69,-7.34,0
2472,2472,38.96,26.7,-17.68,0
2473,2473,38.97,15.37,-25.23,0
2474,2474,38.99,4.33,33.3,0
2475,2475,39.0,1.4,5.89,0
2476,2476,39.01,7.93,29.37,0
2477,2477,39.03,-1.62,111.67,0
2478,2478,39.04,-3.79,44.57,0
2479,2479,39.05,0.71,-14.05,0
2480,2480,39.06,-19.86,17.49,0
2481,2481,39.08,-12.96,-47.4,0
2482,2482,39.09,32.19,-46.28,0
2483,2483,39.11,28.43,118.44,0
2484,2484,39.12,-7.32,152.47,0
2485,2485,39.13,-1.94,100.88,0
2486,2486,39.15,12.91,143.51,0
2487,2487,39.16,7.34,102.05,0
2488,2488,39.17,4.43,3.62,0
2489,2489,39.19,12.32,14.42,0
2490,2490,39.2,33.51,25.67,0
2491,2491,39.21,33.81,68.7,0
2492,2492,39.22,-8.84,181.56,0
2493,2493,39.24,-23.1,163.62,0
2494,2494,39.25,-1.17,86.03,0
2495,2495,39.27,-11.88,76.24,0
2496,2496,39.28,-19.42,16.54,0
2497,2497,39.29,6.49,3.53,0
2498,2498,39.31,12.81,102.44,0
2499,2499,39.32,14.38,87.92,0
2500,2500,39.33,24.54,24.41,0
2501,2501,39.35,-2.84,91.28,0
2502,2502,39.36,-22.45,114.46,0
2503,2503,39.37,9.4,34.01,0
2504,2504,39.38,26.17,14.01,0
2505,2505,39.4,17.81,45.12,0
2506,2506,39.41,9.02,70.52,0
2507,2507,39.43,-19.43,82.82,0
2508,2508,39.44,-22.96,64.32,0
2509,2509,39.45,8.78,102.52,0
2510,2510,39.47,5.52,190.13,0
2511,2511,39.48,-6.29,156.54,0
2512,2512,39.49,-2.18,70.51,0
2513,2513,39.51,-26.43,65.71,0
2514,2514,39.52,-31.05,38.5,0
2515,2515,39.53,5.53,20.91,0
2516,2516,39.54,12.41,98.58,0
2517,2517,39.56,12.81,111.0,0
2518,2518,39.57,28.23,68.0,0
2519,2519,39.59,6.17,107.2,0
2520,2520,39.6,-14.6,115.23,0
2521,2521,39.61,-2.65,86.63,0
2522,2522,39.63,-9.69,108.75,0
2523,2523,39.64,-12.55,74.56,0
2524,2524,39.65,1.38,69.46,0
2525,2525,39.67,-15.4,186.29,0
2526,2526,39.68,-20.33,150.62,0
2527,2527,39.69,4.97,-26.69,0
2528,2528,39.71,-4.71,-47.89,0
2529,2529,39.72,-19.12,-1.82,0
2530,2530,39.73,-4.73,3.65,0
2531,2531,39.75,-7.47,43.07,0
2532,2532,39.76,-2.11,18.18,0
2533,2533,39.77,20.71,-15.93,0
2534,2534,39.79,3.55,68.39,0
2535,2535,39.8,-11.22,66.84,0
2536,2536,39.81,2.42,-32.64,0
2537,2537,39.83,-14.17,-19.25,0
2538,2538,39.84,-23.98,22.21,0
2539,2539,39.85,-0.07,16.68,0
2540,2540,39.87,-1.02,28.47,0
2541,2541,39.88,-5.12,9.54,0
2542,2542,39.89,7.28,-6.02,0
2543,2543,39.9,-5.9,27.37,0
2544,2544,39.92,-13.47,4.48,0
2545,2545,39.93,-4.67,-38.05,0
2546,2546,39.95,-18.59,-16.85,0
2547,2547,39.96,-8.18,-15.8,0
2548,2548,39.97,21.08,-19.19,0
2549,2549,39.99,-5.72,33.06,0
2550,2550,40.0,-23.84,49.96,0
2551,2551,40.01,5.7,49.01,0
2552,2552,40.03,-5.93,75.9,0
2553,2553,40.04,-31.69,9.06,0
2554,2554,40.05,-14.3,-69.25,0
2555,2555,40.07,-6.91,-4.07,0
2556,2556,40.08,-5.64,22.69,0
2557,2557,40.09,3.97,-51.73,0
2558,2558,40.11,-14.97,-44.16,0
2559,2559,40.12,-15.58,-23.02,0
2560,2560,40.13,13.23,-68.2,0
2561,2561,40.15,0.01,-64.79,0
2562,2562,40.16,-11.0,-51.59,0
2563,2563,40.17,16.26,-62.26,0
2564,2564,40.19,3.53,-23.03,0
2565,2565,40.2,-23.45,-3.43,0
2566,2566,40.21,0.95,-13.65,0
2567,2567,40.22,23.66,20.5,0
2568,2568,40.24,23.28,11.98,0
2569,2569,40.25,18.94,-38.65,0
2570,2570,40.27,-2.11,-18.87,0
2571,2571,40.28,-6.89,-14.7,0
2572,2572,40.29,0.03,-80.04,0
2573,2573,40.31,-25.65,-120.89,0
2574,2574,40.32,-21.12,-181.19,0
2575,2575,40.33,17.0,-276.76,0
2576,2576,40.35,-5.39,-303.53,0
2577,2577,40.36,-29.72,-306.4,0
2578,2578,40.37,6.63,-309.45,0
2579,2579,40.38,18.11,-230.53,0
2580,2580,40.4,8.45,-156.15,0
2581,2581,40.41,28.26,-145.47,0
2582,2582,40.43,26.1,-93.27,0
2583,2583,40.44,8.11,-33.7,0
2584,2584,40.45,12.79,-19.92,0
2585,2585,40.47,5.43,22.9,0
2586,2586,40.48,-1.71,48.53,0
2587,2587,40.49,5.99,22.35,0
2588,2588,40.51,-8.12,44.47,0
2589,2589,40.52,-5.4,66.14,0
2590,2590,40.53,27.11,30.16,0
2591,2591,40.54,21.27,41.11,0
2592,2592,40.56,6.01,69.2,0
2593,2593,40.57,13.95,45.84,0
2594,2594,40.59,-4.18,59.11,0
2595,2595,40.6,-13.97,83.52,0
2596,2596,40.61,9.13,52.13,0
2597,2597,40.63,-0.81,50.99,0
2598,2598,40.64,-14.2,65.56,0
2599,2599,40.65,8.42,41.76,0
2600,2600,40.67,6.51,60.29,0
2601,2601,40.68,-4.76,80.11,0
2602,2602,40.69,12.49,36.84,0
2603,2603,40.71,10.49,40.58,0
2604,2604,40.72,2.04,68.49,0
2605,2605,40.73,13.1,33.9,0
2606,2606,40.75,1.98,31.08,0
2607,2607,40.76,-4.4,50.54,0
2608,2608,40.77,14.12,18.05,0
2609,2609,40.79,1.04,27.99,0
2610,2610,40.8,-11.42,59.06,0
2611,2611,40.81,10.74,22.53,0
2612,2612,40.83,7.2,23.17,0
2613,2613,40.84,-0.93,56.74,0
2614,2614,40.85,19.1,22.6,0
2615,2615,40.87,7.8,11.47,0
2616,2616,40.88,-10.99,33.43,0
2617,2617,40.89,4.41,4.57,0
2618,2618,40.9,-0.82,8.69,0
2619,2619,40.92,-11.39,36.7,0
2620,2620,40.93,4.63,-3.69,0
2621,2621,40.95,-3.91,-9.88,0
2622,2622,40.96,-12.43,30.08,0
2623,2623,40.97,10.02,6.59,0
2624,2624,40.99,-0.39,-4.3,0
2625,2625,41.0,-21.95,16.75,0
2626,2626,41.01,-5.69,-12.3,0
2627,2627,41.03,-6.41,-6.68,0
2628,2628,41.04,-15.58,24.57,0
2629,2629,41.05,2.51,-18.49,0
2630,2630,41.06,-3.59,-20.45,0
2631,2631,41.08,-17.87,25.97,0
2632,2632,41.09,-2.84,-14.62,0
2633,2633,41.11,-5.67,-36.45,0
2634,2634,41.12,-10.09,8.15,0
2635,2635,41.13,11.58,-8.21,0
2636,2636,41.15,5.97,-15.98,0
2637,2637,41.16,-7.35,18.57,0
2638,2638,41.17,5.97,-13.36,0
2639,2639,41.19,-0.88,-30.0,0
2640,2640,41.2,-11.24,-1.62,0
2641,2641,41.21,-0.61,-34.03,0
2642,2642,41.22,-15.89,-36.43,0
2643,2643,41.24,-24.86,8.31,0
2644,2644,41.25,5.82,-26.27,0
2645,2645,41.27,11.65,-40.36,0
2646,2646,41.28,-1.15,6.79,0
2647,2647,41.29,9.31,-20.75,0
2648,2648,41.31,7.5,-42.57,0
2649,2649,41.32,-1.08,-3.12,0
2650,2650,41.33,3.1,-22.99,0
2651,2651,41.35,-13.0,-33.64,0
2652,2652,41.36,-14.28,5.18,0
2653,2653,41.37,21.07,-24.15,0
2654,2654,41.38,17.96,-35.49,0
2655,2655,41.4,-7.13,10.06,0
2656,2656,41.41,5.45,-21.52,0
2657,2657,41.43,11.85,-41.68,0
2658,2658,41.44,5.12,2.07,0
2659,2659,41.45,8.22,-19.81,0
2660,2660,41.47,-11.42,-25.4,0
2661,2661,41.48,-21.21,21.09,0
2662,2662,41.49,5.55,-17.78,0
2663,2663,41.51,3.73,-38.46,0
2664,2664,41.52,-11.36,14.0,0
2665,2665,41.53,-1.33,-18.01,0
2666,2666,41.54,-13.77,-48.93,0
2667,2667,41.56,-24.87,-0.14,0
2668,2668,41.57,3.24,-9.83,0
2669,2669,41.59,8.35,-15.51,0
2670,2670,41.6,-5.15,31.8,0
2671,2671,41.61,5.46,-3.99,0
2672,2672,41.63,1.98,-32.94,0
2673,2673,41.64,-3.01,13.72,0
2674,2674,41.65,15.84,-9.51,0
2675,2675,41.67,4.64,-31.97,0
2676,2676,41.68,-17.34,11.25,0
2677,2677,41.69,-3.77,-17.11,0
2678,2678,41.71,-2.8,-36.99,0
2679,2679,41.72,-11.05,15.53,0
2680,2680,41.73,9.17,-8.3,0
2681,2681,41.75,13.09,-28.8,0
2682,2682,41.76,-1.69,25.4,0
2683,2683,41.77,0.29,-0.62,0
2684,2684,41.79,-4.47,-30.79,0
2685,2685,41.8,-5.95,21.39,0
2686,2686,41.81,9.06,4.82,0
2687,2687,41.83,0.25,-20.92,0
2688,2688,41.84,-7.07,25.16,0
2689,2689,41.85,8.4,1.47,0
2690,2690,41.87,-5.08,-26.39,0
2691,2691,41.88,-17.35,21.19,0
2692,2692,41.89,8.25,0.37,0
2693,2693,41.9,10.3,-23.75,0
2694,2694,41.92,-1.08,26.7,0
2695,2695,41.93,16.58,3.92,0
2696,2696,41.95,18.3,-27.24,0
2697,2697,41.96,7.28,17.94,0
2698,2698,41.97,13.83,-0.72,0
2699,2699,41.99,1.47,-19.09,0
2700,2700,42.0,-10.14,35.13,0
2701,2701,42.01,10.47,6.94,0
2702,2702,42.03,10.52,-30.05,0
2703,2703,42.04,-1.32,26.42,0
2704,2704,42.05,13.07,17.93,0
2705,2705,42.06,4.32,-18.51,0
2706,2706,42.08,-20.33,18.05,0
2707,2707,42.09,-14.13,4.91,0
2708,2708,42.11,-12.53,-12.22,0
2709,2709,42.12,-10.86,37.36,0
2710,2710,42.13,16.15,13.77,0
2711,2711,42.15,13.56,-18.15,0
2712,2712,42.16,-10.23,30.52,0
2713,2713,42.17,-1.93,11.71,0
2714,2714,42.19,2.74,-19.46,0
2715,2715,42.2,-5.67,31.46,0
2716,2716,42.21,3.69,8.74,0
2717,2717,42.22,-1.06,-56.18,0
2718,2718,42.24,-19.16,-56.57,0
2719,2719,42.25,-11.46,-98.33,0
2720,2720,42.27,10.03,-129.29,0
2721,2721,42.28,39.44,-76.0,0
2722,2722,42.29,62.94,-88.92,0
2723,2723,42.31,38.73,-123.31,0
2724,2724,42.32,5.07,-78.11,0
2725,2725,42.33,5.28,-83.67,0
2726,2726,42.35,-6.96,-96.43,0
2727,2727,42.36,-27.41,-22.58,0
2728,2728,42.37,-17.21,-3.19,0
2729,2729,42.38,-16.55,-9.47,0
2730,2730,42.4,-28.1,46.96,0
2731,2731,42.41,-9.0,43.58,0
2732,2732,42.43,5.26,35.82,0
2733,2733,42.44,-6.94,111.0,0
2734,2734,42.45,-17.9,112.48,0
2735,2735,42.47,-35.75,76.81,0
2736,2736,42.48,-34.33,121.02,0
2737,2737,42.49,5.61,120.18,0
2738,2738,42.51,15.53,98.0,0
2739,2739,42.52,-5.28,147.95,0
2740,2740,42.53,-4.36,140.98,0
2741,2741,42.54,-10.46,102.12,0
2742,2742,42.56,-23.5,130.11,0
2743,2743,42.57,-6.14,111.61,0
2744,2744,42.59,7.26,79.75,0
2745,2745,42.6,5.87,119.01,0
2746,2746,42.61,17.57,94.69,0
2747,2747,42.63,12.69,44.76,0
2748,2748,42.64,-6.18,83.35,0
2749,2749,42.65,3.0,78.54,0
2750,2750,42.66,13.24,36.89,0
2751,2751,42.68,9.71,62.57,0
2752,2752,42.69,11.2,45.27,0
2753,2753,42.71,-2.0,2.29,0
2754,2754,42.72,-12.81,34.92,0
2755,2755,42.73,4.97,34.5,0
2756,2756,42.75,7.42,7.13,0
2757,2757,42.76,-2.47,33.42,0
2758,2758,42.77,13.05,11.95,0
2759,2759,42.79,17.81,-22.22,0
2760,2760,42.8,4.21,17.16,0
2761,2761,42.81,4.77,-0.42,0
2762,2762,42.83,-2.6,-52.66,0
2763,2763,42.84,-11.18,-17.3,0
2764,2764,42.85,7.12,-5.09,0
2765,2765,42.87,11.25,-34.97,0
2766,2766,42.88,-1.08,-14.4,0
2767,2767,42.89,6.78,-21.46,0
2768,2768,42.9,1.58,-45.35,0
2769,2769,42.92,-15.78,-11.53,0
2770,2770,42.93,-6.57,-21.87,0
2771,2771,42.95,-3.58,-52.55,0
2772,2772,42.96,-8.86,-9.99,0
2773,2773,42.97,10.92,-14.24,0
2774,2774,42.99,13.75,-62.75,0
2775,2775,43.0,-4.46,-40.69,0
2776,2776,43.01,4.77,-39.08,0
2777,2777,43.03,11.02,-63.82,0
2778,2778,43.04,-1.07,-24.96,0
2779,2779,43.05,4.47,-26.59,0
2780,2780,43.06,2.14,-70.79,0
2781,2781,43.08,-11.31,-42.15,0
2782,2782,43.09,-2.17,-27.95,0
2783,2783,43.11,-6.12,-55.81,0
2784,2784,43.12,-20.16,-31.75,0
2785,2785,43.13,-2.35,-26.84,0
2786,2786,43.15,-0.31,-54.74,0
2787,2787,43.16,-21.55,-27.59,0
2788,2788,43.17,-10.0,-25.24,0
2789,2789,43.19,3.3,-58.03,0
2790,2790,43.2,-1.37,-28.48,0
2791,2791,43.21,12.57,-21.49,0
2792,2792,43.22,19.19,-57.61,0
2793,2793,43.24,7.1,-32.06,0
2794,2794,43.25,9.74,-19.01,0
2795,2795,43.27,3.26,-50.88,0
2796,2796,43.28,-13.28,-33.48,0
2797,2797,43.29,1.83,-27.43,0
2798,2798,43.3,15.85,-55.12,0
2799,2799,43.32,5.2,-29.97,0
2800,2800,43.33,4.61,-22.86,0
2801,2801,43.35,1.32,-53.27,0
2802,2802,43.36,-9.63,-20.86,0
2803,2803,43.37,-0.04,-2.16,0
2804,2804,43.38,0.7,-39.12,0
2805,2805,43.4,-12.37,-22.93,0
2806,2806,43.41,-1.7,-2.97,0
2807,2807,43.43,0.83,-23.77,0
2808,2808,43.44,-13.28,2.32,0
2809,2809,43.45,4.84,14.33,0
2810,2810,43.47,26.43,-28.72,0
2811,2811,43.48,17.44,-14.56,0
2812,2812,43.49,11.89,11.15,0
2813,2813,43.51,6.63,-18.22,0
2814,2814,43.52,-8.22,-11.21,0
2815,2815,43.53,-1.1,5.08,0
2816,2816,43.54,14.92,-22.22,0
2817,2817,43.56,12.4,-11.04,0
2818,2818,43.57,5.03,9.03,0
2819,2819,43.59,-8.66,-12.39,0
2820,2820,43.6,-20.41,1.99,0
2821,2821,43.61,-6.43,17.97,0
2822,2822,43.63,0.39,-9.5,0
2823,2823,43.64,-11.06,6.31,0
2824,2824,43.65,-5.14,24.2,0
2825,2825,43.67,-7.68,-12.69,0
2826,2826,43.68,-27.81,-4.44,0
2827,2827,43.69,-15.15,22.71,0
2828,2828,43.71,7.18,-2.92,0
2829,2829,43.72,1.78,4.04,0
2830,2830,43.73,-0.65,28.49,0
2831,2831,43.75,-4.72,6.33,0
2832,2832,43.76,-17.25,11.47,0
2833,2833,43.77,-3.49,23.14,0
2834,2834,43.79,7.27,-5.84,0
2835,2835,43.8,-9.26,8.39,0
2836,2836,43.81,-6.55,24.29,0
2837,2837,43.83,2.84,-14.24,0
2838,2838,43.84,-8.78,4.9,0
2839,2839,43.85,-3.59,38.84,0
2840,2840,43.87,5.35,-7.94,0
2841,2841,43.88,-10.37,-9.1,0
2842,2842,43.89,-8.65,38.85,0
2843,2843,43.9,5.1,21.5,0
2844,2844,43.92,-5.06,18.63,0
2845,2845,43.93,-7.95,39.46,0
2846,2846,43.94,-0.56,3.09,0
2847,2847,43.96,-4.58,4.22,0
2848,2848,43.97,6.63,39.86,0
2849,2849,43.99,20.51,4.56,0
2850,2850,44.0,8.34,-6.77,0
2851,2851,44.01,5.08,31.1,0
2852,2852,44.03,11.77,19.18,0
2853,2853,44.04,3.13,21.47,0
2854,2854,44.05,2.57,43.45,0
2855,2855,44.06,-0.02,8.26,0
2856,2856,44.08,-19.08,7.45,0
2857,2857,44.09,-10.03,37.8,0
2858,2858,44.11,11.73,3.38,0
2859,2859,44.12,5.36,4.27,0
2860,2860,44.13,4.71,44.25,0
2861,2861,44.15,7.08,8.71,0
2862,2862,44.16,-8.74,-5.86,0
2863,2863,44.17,-1.9,30.0,0
2864,2864,44.19,13.3,14.08,0
2865,2865,44.2,-1.33,36.01,0
2866,2866,44.21,-4.14,128.07,0
2867,2867,44.22,12.24,180.97,0
2868,2868,44.24,13.09,241.94,0
2869,2869,44.25,11.65,289.92,0
2870,2870,44.27,2.57,214.59,0
2871,2871,44.28,-19.77,144.97,0
2872,2872,44.29,-14.51,132.94,0
2873,2873,44.31,0.09,52.41,0
2874,2874,44.32,-10.05,-10.13,0
2875,2875,44.33,-8.86,-11.24,0
2876,2876,44.35,-1.47,-77.67,0
2877,2877,44.36,-11.24,-130.42,0
2878,2878,44.37,2.4,-122.27,0
2879,2879,44.38,20.75,-167.03,0
2880,2880,44.4,-0.95,-182.81,0
2881,2881,44.41,-12.57,-135.89,0
2882,2882,44.43,-2.99,-154.16,0
2883,2883,44.44,-11.93,-152.82,0
2884,2884,44.45,-6.04,-94.7,0
2885,2885,44.47,13.71,-114.1,0
2886,2886,44.48,4.27,-126.05,0
2887,2887,44.49,-0.86,-78.38,0
2888,2888,44.51,5.71,-94.63,0
2889,2889,44.52,-3.69,-95.25,0
2890,2890,44.53,8.27,-46.37,0
2891,2891,44.54,31.28,-78.65,0
2892,2892,44.56,16.44,-90.22,0
2893,2893,44.57,-0.59,-29.87,0
2894,2894,44.58,-6.52,-49.91,0
2895,2895,44.6,-21.93,-66.59,0
2896,2896,44.61,-8.77,-14.89,0
2897,2897,44.63,17.0,-36.63,0
2898,2898,44.64,6.98,-52.64,0
2899,2899,44.65,5.41,1.69,0
2900,2900,44.67,14.88,-17.35,0
2901,2901,44.68,-13.71,-35.86,0
2902,2902,44.69,-29.34,13.82,0
2903,2903,44.71,-9.72,-9.32,0
2904,2904,44.72,-16.22,-30.24,0
2905,2905,44.73,-22.27,24.75,0
2906,2906,44.75,3.96,13.88,0
2907,2907,44.76,14.51,0.52,0
2908,2908,44.77,11.12,48.0,0
2909,2909,44.79,11.9,17.53,0
2910,2910,44.8,5.86,-11.94,0
2911,2911,44.81,15.87,35.39,0
2912,2912,44.83,27.92,17.56,0
2913,2913,44.84,9.73,1.89,0
2914,2914,44.85,4.25,55.17,0
2915,2915,44.87,17.42,32.47,0
2916,2916,44.88,5.7,9.13,0
2917,2917,44.89,-1.71,62.24,0
2918,2918,44.9,6.7,42.48,0
2919,2919,44.92,-1.03,17.01,0
2920,2920,44.93,7.92,59.54,0
2921,2921,44.95,27.61,23.94,0
2922,2922,44.96,6.37,-8.11,0
2923,2923,44.97,-5.61,48.65,0
2924,2924,44.99,16.63,32.81,0
2925,2925,45.0,7.6,2.36,0
2926,2926,45.01,-13.01,50.37,0
2927,2927,45.03,-8.75,35.26,0
2928,2928,45.04,-15.98,12.21,0
2929,2929,45.05,-18.39,60.56,0
2930,2930,45.06,0.89,37.54,0
2931,2931,45.08,-2.83,6.23,0
2932,2932,45.09,-14.92,51.83,0
2933,2933,45.11,-11.75,27.57,0
2934,2934,45.12,-16.37,-5.87,0
2935,2935,45.13,-6.32,47.07,0
2936,2936,45.15,16.34,39.87,0
2937,2937,45.16,7.65,12.09,0
2938,2938,45.17,-1.56,50.12,0
2939,2939,45.19,5.63,28.65,0
2940,2940,45.2,-0.75,2.06,0
2941,2941,45.21,4.38,42.22,0
2942,2942,45.22,11.65,15.27,0
2943,2943,45.24,-16.63,-7.54,0
2944,2944,45.25,-23.82,51.3,0
2945,2945,45.26,0.74,31.43,0
2946,2946,45.28,-5.63,-9.98,0
2947,2947,45.29,-10.8,29.03,0
2948,2948,45.31,4.52,11.16,0
2949,2949,45.32,-10.7,-12.3,0
2950,2950,45.33,-19.75,45.54,0
2951,2951,45.35,4.95,31.53,0
2952,2952,45.36,4.1,-7.92,0
2953,2953,45.37,-7.72,31.29,0
2954,2954,45.38,-1.3,11.81,0
2955,2955,45.4,-12.82,-24.29,0
2956,2956,45.41,-13.97,23.33,0
2957,2957,45.43,14.7,16.13,0
2958,2958,45.44,14.43,-11.65,0
2959,2959,45.45,1.83,39.66,0
2960,2960,45.47,7.89,31.26,0
2961,2961,45.48,-4.0,-11.78,0
2962,2962,45.49,-10.54,19.8,0
2963,2963,45.51,4.35,9.13,0
2964,2964,45.52,-7.81,-22.26,0
2965,2965,45.53,-15.44,15.5,0
2966,2966,45.54,7.14,6.59,0
2967,2967,45.56,0.29,-20.79,0
2968,2968,45.57,-19.63,14.05,0
2969,2969,45.59,-12.5,-6.41,0
2970,2970,45.6,-9.41,-34.87,0
2971,2971,45.61,-0.9,16.43,0
2972,2972,45.63,17.04,5.84,0
2973,2973,45.64,5.53,-34.53,0
2974,2974,45.65,1.33,2.08,0
2975,2975,45.67,19.5,-6.8,0
2976,2976,45.68,7.4,-34.03,0
2977,2977,45.69,-5.97,14.54,0
2978,2978,45.71,-0.14,1.57,0
2979,2979,45.72,-15.37,-49.44,0
2980,2980,45.73,-14.78,-12.27,0
2981,2981,45.75,9.49,0.12,0
2982,2982,45.76,-2.55,-21.9,0
2983,2983,45.77,-9.91,10.48,0
2984,2984,45.79,16.26,-2.8,0
2985,2985,45.8,14.56,-41.11,0
2986,2986,45.81,3.58,-9.42,0
2987,2987,45.83,12.11,-18.82,0
2988,2988,45.84,0.52,-54.67,0
2989,2989,45.85,-6.97,-11.46,0
2990,2990,45.86,3.88,3.92,0
2991,2991,45.88,-12.58,-19.55,0
2992,2992,45.89,-18.26,6.17,0
2993,2993,45.9,11.08,-2.7,0
2994,2994,45.92,14.93,-31.94,0
2995,2995,45.93,3.74,-0.58,0
2996,2996,45.95,-0.69,-11.79,0
2997,2997,45.96,-21.88,-50.12,0
2998,2998,45.97,-16.25,-13.99,0
2999,2999,45.99,19.97,-6.45,0
3000,3000,46.0,14.99,-37.88,0
3001,3001,46.01,1.51,-10.53,0
3002,3002,46.03,17.13,-4.05,0
3003,3003,46.04,8.15,-23.5,0
3004,3004,46.05,-5.76,11.64,0
3005,3005,46.06,7.64,10.46,0
3006,3006,46.08,0.62,-25.65,0
3007,3007,46.09,-11.22,-5.1,0
3008,3008,46.11,1.48,-12.79,0
3009,3009,46.12,3.23,-42.38,0
3010,3010,46.13,10.13,0.47,0
3011,3011,46.15,22.06,18.14,0
3012,3012,46.16,-8.08,-28.08,0
3013,3013,46.17,-27.59,-42.65,0
3014,3014,46.19,-0.42,8.15,0
3015,3015,46.2,8.6,116.78,0
3016,3016,46.21,11.87,139.51,0
3017,3017,46.22,36.45,-51.68,0
3018,3018,46.24,28.21,-257.35,0
3019,3019,46.25,8.42,-230.36,0
3020,3020,46.27,13.86,64.96,0
3021,3021,46.28,0.78,391.89,0
3022,3022,46.29,-1.45,359.2,0
3023,3023,46.31,26.76,109.14,0
3024,3024,46.32,13.19,98.15,0
3025,3025,46.33,-15.93,185.7,0
3026,3026,46.35,-21.13,75.96,0
3027,3027,46.36,-41.07,-61.9,0
3028,3028,46.37,-35.29,-33.44,0
3029,3029,46.38,8.8,45.88,0
3030,3030,46.4,16.16,28.88,0
3031,3031,46.41,11.01,-55.36,0
3032,3032,46.43,17.06,-131.52,0
3033,3033,46.44,-14.91,-124.93,0
3034,3034,46.45,-37.26,-53.61,0
3035,3035,46.47,-7.04,-75.31,0
3036,3036,46.48,5.51,-112.97,0
3037,3037,46.49,-8.2,-28.74,0
3038,3038,46.5,-10.61,-45.52,0
3039,3039,46.52,-19.86,-196.64,0
3040,3040,46.53,-14.98,-175.94,0
3041,3041,46.54,12.53,-32.97,0
3042,3042,46.56,2.98,-18.45,0
3043,3043,46.57,-17.46,-83.16,0
3044,3044,46.59,-2.94,-99.21,0
3045,3045,46.6,-0.01,-60.75,0
3046,3046,46.61,-6.24,-23.45,0
3047,3047,46.63,0.86,-58.67,0
3048,3048,46.64,-10.88,-85.61,0
3049,3049,46.65,-10.02,-16.51,0
3050,3050,46.67,18.45,-20.19,0
3051,3051,46.68,13.64,-108.5,0
3052,3052,46.69,0.02,-60.66,0
3053,3053,46.71,12.19,18.5,0
3054,3054,46.72,6.43,-13.83,0
3055,3055,46.73,-0.79,0.11,0
3056,3056,46.75,15.13,37.02,0
3057,3057,46.76,8.65,-5.79,0
3058,3058,46.77,-5.8,-10.22,0
3059,3059,46.79,5.8,2.04,0
3060,3060,46.8,8.47,-40.95,0
3061,3061,46.81,0.23,-15.25,0
3062,3062,46.83,-7.94,48.98,0
3063,3063,46.84,-31.76,30.02,0
3064,3064,46.85,-29.98,12.82,0
3065,3065,46.87,2.3,29.15,0
3066,3066,46.88,-2.28,26.86,0
3067,3067,46.89,-12.98,37.98,0
3068,3068,46.9,7.93,2.87,0
3069,3069,46.92,4.68,-91.85,0
3070,3070,46.93,-5.92,-77.45,0
3071,3071,46.95,7.89,6.18,0
3072,3072,46.96,-1.97,8.43,0
3073,3073,46.97,-13.67,18.74,0
3074,3074,46.99,3.98,61.52,0
3075,3075,47.0,3.02,48.22,0
3076,3076,47.01,-3.48,44.81,0
3077,3077,47.03,4.06,50.65,0
3078,3078,47.04,-12.53,19.18,0
3079,3079,47.05,-18.6,52.28,0
3080,3080,47.06,6.34,104.92,0
3081,3081,47.08,0.37,51.42,0
3082,3082,47.09,-11.1,-9.06,0
3083,3083,47.11,11.55,-18.26,0
3084,3084,47.12,9.58,-35.4,0
3085,3085,47.13,-7.04,-17.61,0
3086,3086,47.14,7.99,15.17,0
3087,3087,47.16,14.36,-6.62,0
3088,3088,47.17,16.1,10.87,0
3089,3089,47.18,28.42,60.83,0
3090,3090,47.2,2.59,18.1,0
3091,3091,47.21,-22.33,-11.67,0
3092,3092,47.22,-1.41,34.15,0
3093,3093,47.24,5.9,17.22,0
3094,3094,47.25,2.95,-19.06,0
3095,3095,47.27,14.39,-14.45,0
3096,3096,47.28,-4.36,-44.48,0
3097,3097,47.29,-21.27,-21.86,0
3098,3098,47.31,7.34,70.61,0
3099,3099,47.32,23.84,62.71,0
3100,3100,47.33,19.05,11.82,0
3101,3101,47.35,20.08,26.65,0
3102,3102,47.36,3.52,49.43,0
3103,3103,47.37,-3.38,94.85,0
3104,3104,47.38,11.03,105.97,0
3105,3105,47.4,-11.62,12.59,0
3106,3106,47.41,-31.49,12.21,0
3107,3107,47.43,-7.94,104.16,0
3108,3108,47.44,-9.58,71.55,0
3109,3109,47.45,-17.2,46.01,0
3110,3110,47.47,10.65,98.29,0
3111,3111,47.48,7.48,42.01,0
3112,3112,47.49,-11.14,-9.33,0
3113,3113,47.51,10.45,37.38,0
3114,3114,47.52,17.05,5.67,0
3115,3115,47.53,0.51,-48.21,0
3116,3116,47.54,5.67,-28.42,0
3117,3117,47.56,8.03,-29.87,0
3118,3118,47.57,8.09,-8.51,0
3119,3119,47.59,16.73,25.06,0
3120,3120,47.6,-2.96,-47.76,0
3121,3121,47.61,-18.48,-81.32,0
3122,3122,47.63,3.14,-7.84,0
3123,3123,47.64,8.74,-4.94,0
3124,3124,47.65,0.66,-33.25,0
3125,3125,47.67,-1.21,-12.0,0
3126,3126,47.68,-23.39,-2.05,0
3127,3127,47.69,-15.92,59.49,0
3128,3128,47.71,35.92,130.87,0
3129,3129,47.72,34.72,60.84,0
3130,3130,47.73,2.38,-26.62,0
3131,3131,47.75,11.22,-41.76,0
3132,3132,47.76,7.58,-67.37,0
3133,3133,47.77,-10.5,-16.16,0
3134,3134,47.78,3.81,80.88,0
3135,3135,47.8,4.27,32.93,0
3136,3136,47.81,-10.92,-35.39,0
3137,3137,47.82,-8.13,-23.21,0
3138,3138,47.84,-26.09,-60.36,0
3139,3139,47.85,-39.05,-65.02,0
3140,3140,47.86,-2.08,6.92,0
3141,3141,47.88,18.83,11.59,0
3142,3142,47.89,10.68,3.49,0
3143,3143,47.9,14.02,-7.05,0
3144,3144,47.92,-3.92,-81.04,0
3145,3145,47.93,-25.9,-20.86,0
3146,3146,47.95,-8.42,118.91,0
3147,3147,47.96,0.05,55.25,0
3148,3148,47.97,-10.24,-16.93,0
3149,3149,47.99,-2.67,23.57,0
3150,3150,48.0,-1.2,-75.52,0
3151,3151,48.01,-4.4,-151.48,0
3152,3152,48.03,7.41,-30.87,0
3153,3153,48.04,5.75,-3.41,0
3154,3154,48.05,6.01,-41.31,0
3155,3155,48.06,23.57,39.64,0
3156,3156,48.08,11.23,62.3,0
3157,3157,48.09,-11.41,13.86,0
3158,3158,48.11,-5.83,7.77,0
3159,3159,48.12,-11.54,-30.22,0
3160,3160,48.13,-17.83,-37.92,0
3161,3161,48.15,4.38,21.24,0
3162,3162,48.16,7.65,4.27,0
3163,3163,48.17,2.88,-1.38,0
3164,3164,48.19,21.4,74.34,0
3165,3165,48.2,11.28,38.17,0
3166,3166,48.21,-16.99,-46.25,0
3167,3167,48.22,-14.48,-19.33,0
3168,3168,48.24,-11.3,-5.18,0
3169,3169,48.25,-7.14,1.05,0
3170,3170,48.27,15.06,65.09,0
3171,3171,48.28,9.49,49.86,0
3172,3172,48.29,-13.4,-4.68,0
3173,3173,48.31,-14.74,-9.07,0
3174,3174,48.32,-25.24,-84.96,0
3175,3175,48.33,-31.28,-179.97,0
3176,3176,48.35,-9.61,-192.41,0
3177,3177,48.36,-11.02,-237.07,0
3178,3178,48.37,-14.94,-264.76,0
3179,3179,48.38,14.64,-194.95,0
3180,3180,48.4,13.16,-172.19,0
3181,3181,48.41,-7.68,-156.36,0
3182,3182,48.42,16.39,-60.11,0
3183,3183,48.44,31.69,-22.53,0
3184,3184,48.45,9.97,0.01,0
3185,3185,48.46,6.49,88.69,0
3186,3186,48.48,10.94,91.7,0
3187,3187,48.49,6.0,61.69,0
3188,3188,48.5,14.31,114.88,0
3189,3189,48.52,12.98,107.67,0
3190,3190,48.53,-0.12,65.06,0
3191,3191,48.54,-0.07,100.26,0
3192,3192,48.56,-8.49,91.27,0
3193,3193,48.57,-12.98,58.53,0
3194,3194,48.59,2.82,95.15,0
3195,3195,48.6,-5.81,78.97,0
3196,3196,48.61,-18.98,38.29,0
3197,3197,48.63,4.14,72.78,0
3198,3198,48.64,16.66,69.98,0
3199,3199,48.65,10.77,54.06,0
3200,3200,48.67,17.76,101.57,0
3201,3201,48.68,12.44,84.37,0
3202,3202,48.69,1.57,43.18,0
3203,3203,48.71,8.1,84.46,0
3204,3204,48.72,-2.05,83.37,0
3205,3205,48.73,-14.71,57.5,0
3206,3206,48.75,0.24,92.57,0
3207,3207,48.76,-4.17,66.48,0
3208,3208,48.77,-18.66,23.25,0
3209,3209,48.79,0.98,67.57,0
3210,3210,48.8,5.92,61.03,0
3211,3211,48.81,-9.14,20.5,0
3212,3212,48.83,0.08,55.65,0
3213,3213,48.84,-0.91,49.99,0
3214,3214,48.85,-10.65,17.87,0
3215,3215,48.87,7.64,54.82,0
3216,3216,48.88,9.99,42.42,0
3217,3217,48.89,-4.16,-1.13,0
3218,3218,48.9,7.57,29.3,0
3219,3219,48.92,3.58,20.87,0
3220,3220,48.93,-20.08,-18.69,0
3221,3221,48.95,-13.69,13.26,0
3222,3222,48.96,-9.07,12.77,0
3223,3223,48.97,-18.19,-20.66,0
3224,3224,48.99,-0.98,6.65,0
3225,3225,49.0,12.02,4.76,0
3226,3226,49.01,2.69,-18.77,0
3227,3227,49.03,5.28,11.07,0
3228,3228,49.04,4.99,-8.4,0
3229,3229,49.05,-2.8,-48.89,0
3230,3230,49.06,2.47,-9.18,0
3231,3231,49.08,-3.28,-8.3,0
3232,3232,49.09,-12.74,-49.23,0
3233,3233,49.1,-2.43,-14.82,0
3234,3234,49.12,-2.05,2.46,0
3235,3235,49.13,-3.34,-26.19,0
3236,3236,49.14,9.98,-14.3,0
3237,3237,49.16,-2.78,-29.92,0
3238,3238,49.17,-17.58,-60.96,0
3239,3239,49.19,8.1,-18.85,0
3240,3240,49.2,17.92,-6.27,0
3241,3241,49.21,1.47,-41.53,0
3242,3242,49.22,3.96,-22.26,0
3243,3243,49.24,-2.23,-20.63,0
3244,3244,49.25,-13.48,-55.0,0
3245,3245,49.27,4.02,-35.32,0
3246,3246,49.28,3.63,-29.51,0
3247,3247,49.29,-10.1,-53.54,0
3248,3248,49.31,12.33,-30.69,0
3249,3249,49.32,18.87,-31.16,0
3250,3250,49.33,-4.68,-50.83,0
3251,3251,49.35,3.45,-10.64,0
3252,3252,49.36,15.5,-11.18,0
3253,3253,49.37,2.94,-58.15,0
3254,3254,49.38,3.89,-31.84,0
3255,3255,49.4,3.92,-10.86,0
3256,3256,49.41,-5.83,-40.58,0
3257,3257,49.43,2.94,-23.32,0
3258,3258,49.44,4.07,-11.32,0
3259,3259,49.45,-5.41,-39.22,0
3260,3260,49.47,0.72,-21.8,0
3261,3261,49.48,-10.28,-8.66,0
3262,3262,49.49,-26.29,-29.36,0
3263,3263,49.51,-1.52,-12.79,0
3264,3264,49.52,14.37,-17.45,0
3265,3265,49.53,-2.4,-50.4,0
3266,3266,49.54,-2.44,-16.04,0
3267,3267,49.56,1.52,3.4,0
3268,3268,49.57,-4.82,-38.38,0
3269,3269,49.59,4.63,-28.4,0
3270,3270,49.6,6.31,-14.38,0
3271,3271,49.61,-4.69,-48.8,0
3272,3272,49.63,4.65,-27.37,0
3273,3273,49.64,7.76,4.96,0
3274,3274,49.65,-3.68,-24.54,0
3275,3275,49.67,4.49,-21.59,0
3276,3276,49.68,5.34,-1.2,0
3277,3277,49.69,-7.53,-21.87,0
3278,3278,49.7,5.81,-14.15,0
3279,3279,49.72,13.74,-3.53,0
3280,3280,49.73,-3.69,-26.91,0
3281,3281,49.74,-7.02,-3.99,0
3282,3282,49.76,-9.17,17.9,0
3283,3283,49.77,-16.87,-16.54,0
3284,3284,49.78,1.61,-10.81,0
3285,3285,49.8,13.89,8.68,0
3286,3286,49.81,1.46,-17.43,0
3287,3287,49.83,4.75,-6.24,0
3288,3288,49.84,6.65,9.59,0
3289,3289,49.85,-10.65,-20.89,0
3290,3290,49.87,-5.05,1.27,0
3291,3291,49.88,10.67,30.99,0
3292,3292,49.89,3.66,-12.2,0
3293,3293,49.9,1.81,-14.45,0
3294,3294,49.92,5.16,18.37,0
3295,3295,49.93,-3.57,-1.62,0
3296,3296,49.95,-3.58,5.39,0
3297,3297,49.96,-3.47,29.29,0
3298,3298,49.97,-9.04,-1.81,0
3299,3299,49.99,4.36,2.15,0
3300,3300,50.0,7.75,27.09,0
3301,3301,50.01,-11.99,-8.27,0
3302,3302,50.03,-8.34,-4.18,0
3303,3303,50.04,2.08,32.35,0
3304,3304,50.05,-6.6,-2.16,0
3305,3305,50.06,1.12,-17.02,0
3306,3306,50.08,7.73,7.17,0
3307,3307,50.09,-10.07,-15.1,0
3308,3308,50.11,-6.68,-7.41,0
3309,3309,50.12,6.37,26.6,0
3310,3310,50.13,-9.43,-5.6,0
3311,3311,50.15,-17.6,-11.37,0
3312,3312,50.16,-7.74,20.44,0
3313,3313,50.17,-3.61,-5.67,0
3314,3314,50.19,7.96,-1.27,0
3315,3315,50.2,12.89,36.39,0
3316,3316,50.21,2.29,0.8,0
3317,3317,50.22,15.46,-8.4,0
3318,3318,50.24,27.57,20.82,0
3319,3319,50.25,6.07,-33.15,0
3320,3320,50.27,4.44,-69.77,0
3321,3321,50.28,20.23,-52.64,0
3322,3322,50.29,5.21,-98.27,0
3323,3323,50.31,-0.57,-114.98,0
3324,3324,50.32,18.89,-69.49,0
3325,3325,50.33,16.22,-93.06,0
3326,3326,50.34,2.63,-110.39,0
3327,3327,50.36,-3.48,-70.8,0
3328,3328,50.37,-13.77,-75.18,0
3329,3329,50.38,-11.5,-56.54,0
3330,3330,50.4,-2.26,0.66,0
3331,3331,50.41,-3.44,-9.19,0
3332,3332,50.42,-1.53,10.65,0
3333,3333,50.44,-11.01,81.11,0
3334,3334,50.45,-32.65,66.64,0
3335,3335,50.46,-27.85,60.14,0
3336,3336,50.48,-15.28,115.17,0
3337,3337,50.49,-21.13,103.63,0
3338,3338,50.51,-15.26,94.51,0
3339,3339,50.52,-4.98,133.49,0
3340,3340,50.53,-9.63,110.55,0
3341,3341,50.54,-1.69,108.55,0
3342,3342,50.56,0.89,160.86,0
3343,3343,50.57,-18.74,135.81,0
3344,3344,50.59,-6.33,114.29,0
3345,3345,50.6,20.62,143.46,0
3346,3346,50.61,11.77,105.49,0
3347,3347,50.63,11.43,89.35,0
3348,3348,50.64,21.6,129.53,0
3349,3349,50.65,-1.3,86.23,0
3350,3350,50.67,-14.15,54.86,0
3351,3351,50.68,2.68,88.9,0
3352,3352,50.69,11.16,43.41,0
3353,3353,50.71,16.37,7.57,0
3354,3354,50.72,10.36,48.7,0
3355,3355,50.73,-8.98,24.69,0
3356,3356,50.75,6.47,3.85,0
3357,3357,50.76,25.28,44.25,0
3358,3358,50.77,0.59,18.07,0
3359,3359,50.79,-3.59,-1.14,0
3360,3360,50.8,20.02,31.95,0
3361,3361,50.81,7.16,-9.84,0
3362,3362,50.83,-9.45,-29.73,0
3363,3363,50.84,-2.57,22.92,0
3364,3364,50.85,-5.61,-8.11,0
3365,3365,50.87,2.95,-38.13,0
3366,3366,50.88,15.75,8.66,0
3367,3367,50.89,-9.75,-12.54,0
3368,3368,50.9,-26.95,-34.74,0
3369,3369,50.92,-14.46,8.41,0
3370,3370,50.93,-11.32,-23.56,0
3371,3371,50.95,0.41,-54.52,0
3372,3372,50.96,14.61,-7.68,0
3373,3373,50.97,-0.4,-30.6,0
3374,3374,50.98,-1.26,-62.0,0
3375,3375,51.0,13.54,-17.59,0
3376,3376,51.01,1.64,-33.08,0
3377,3377,51.02,0.56,-55.02,0
3378,3378,51.04,14.84,-12.39,0
3379,3379,51.05,2.02,-36.92,0
3380,3380,51.06,0.91,-60.42,0
3381,3381,51.08,21.42,-16.33,0
3382,3382,51.09,15.77,-48.46,0
3383,3383,51.1,6.76,-74.97,0
3384,3384,51.12,6.24,-15.21,0
3385,3385,51.13,-12.15,-34.82,0
3386,3386,51.15,-15.59,-73.44,0
3387,3387,51.16,-5.01,-28.49,0
3388,3388,51.17,-15.29,-41.66,0
3389,3389,51.19,-3.47,-69.9,0
3390,3390,51.2,24.02,-29.03,0
3391,3391,51.21,5.76,-47.05,0
3392,3392,51.22,-9.15,-66.28,0
3393,3393,51.24,8.55,-11.45,0
3394,3394,51.25,1.9,-25.59,0
3395,3395,51.27,-8.42,-49.96,0
3396,3396,51.28,-1.84,-2.32,0
3397,3397,51.29,-12.21,-27.04,0
3398,3398,51.31,-6.66,-60.36,0
3399,3399,51.32,18.37,-9.4,0
3400,3400,51.33,10.44,-23.98,0
3401,3401,51.35,0.61,-51.72,0
3402,3402,51.36,3.05,2.18,0
3403,3403,51.37,-15.47,-13.06,0
3404,3404,51.38,-14.8,-52.86,0
3405,3405,51.4,6.57,-11.42,0
3406,3406,51.41,-1.79,-23.31,0
3407,3407,51.43,-2.27,-51.85,0
3408,3408,51.44,14.92,-0.29,0
3409,3409,51.45,1.72,-1.22,0
3410,3410,51.47,-8.33,-27.57,0
3411,3411,51.48,-0.28,9.35,0
3412,3412,51.49,-13.34,-7.83,0
3413,3413,51.51,-12.58,-36.32,0
3414,3414,51.52,6.56,8.68,0
3415,3415,51.53,-6.94,0.16,0
3416,3416,51.54,-9.6,-25.02,0
3417,3417,51.56,16.03,15.22,0
3418,3418,51.57,4.15,0.26,0
3419,3419,51.59,-15.99,-20.22,0
3420,3420,51.6,-3.06,33.99,0
3421,3421,51.61,2.18,22.13,0
3422,3422,51.62,3.12,-15.9,0
3423,3423,51.64,4.41,17.56,0
3424,3424,51.65,-12.73,2.19,0
3425,3425,51.66,-4.0,-20.63,0
3426,3426,51.68,18.59,31.06,0
3427,3427,51.69,-3.05,15.58,0
3428,3428,51.7,-14.17,-25.08,0
3429,3429,51.72,7.13,19.02,0
3430,3430,51.73,-0.11,13.58,0
3431,3431,51.74,-2.15,-23.21,0
3432,3432,51.76,18.84,10.96,0
3433,3433,51.77,4.09,0.65,0
3434,3434,51.79,-10.47,-24.89,0
3435,3435,51.8,6.66,29.67,0
3436,3436,51.81,3.07,33.56,0
3437,3437,51.83,-0.61,-0.95,0
3438,3438,51.84,12.08,27.42,0
3439,3439,51.85,-3.02,18.76,0
3440,3440,51.87,-12.37,-8.48,0
3441,3441,51.88,1.9,25.44,0
3442,3442,51.89,-9.15,13.75,0
3443,3443,51.9,-16.21,-14.39,0
3444,3444,51.92,-0.5,25.57,0
3445,3445,51.93,-6.52,15.79,0
3446,3446,51.95,-9.16,-17.31,0
3447,3447,51.96,4.05,26.0,0
3448,3448,51.97,-4.71,25.96,0
3449,3449,51.99,-0.01,-10.45,0
3450,3450,52.0,19.73,20.53,0
3451,3451,52.01,3.15,18.16,0
3452,3452,52.03,-0.93,-12.95,0
3453,3453,52.04,20.62,16.02,0
3454,3454,52.05,0.93,6.71,0
3455,3455,52.06,-16.74,-23.7,0
3456,3456,52.08,-1.65,17.75,0
3457,3457,52.09,-10.5,22.43,0
3458,3458,52.11,-9.58,-4.64,0
3459,3459,52.12,15.85,32.05,0
3460,3460,52.13,-0.83,30.34,0
3461,3461,52.15,-15.22,-7.52,0
3462,3462,52.16,11.13,23.87,0
3463,3463,52.17,8.32,33.29,0
3464,3464,52.19,-8.73,8.24,0
3465,3465,52.2,-1.37,51.57,0
3466,3466,52.21,-4.02,97.27,0
3467,3467,52.22,2.92,131.45,0
3468,3468,52.24,21.52,211.51,0
3469,3469,52.25,7.26,228.56,0
3470,3470,52.26,10.06,178.19,0
3471,3471,52.28,37.43,169.08,0
3472,3472,52.29,14.28,127.01,0
3473,3473,52.3,-12.19,46.21,0
3474,3474,52.32,2.23,28.64,0
3475,3475,52.33,-2.44,-4.03,0
3476,3476,52.34,-5.91,-68.32,0
3477,3477,52.36,14.81,-71.33,0
3478,3478,52.37,3.64,-97.49,0
3479,3479,52.38,-10.57,-157.41,0
3480,3480,52.4,3.12,-135.27,0
3481,3481,52.41,-9.87,-112.8,0
3482,3482,52.425,-26.6,-137.19,0
3483,3483,52.44,-13.96,-115.56,0
3484,3484,52.45,-17.18,-104.59,0
3485,3485,52.47,-17.58,-127.01,0
3486,3486,52.48,-1.66,-94.03,0
3487,3487,52.49,-17.95,-73.52,0
3488,3488,52.51,-21.95,-91.38,0
3489,3489,52.52,9.27,-57.17,0
3490,3490,52.53,4.92,-40.99,0
3491,3491,52.54,-5.05,-71.05,0
3492,3492,52.56,13.1,-40.35,0
3493,3493,52.57,1.18,-9.15,0
3494,3494,52.59,-13.04,-34.94,0
3495,3495,52.6,4.42,-29.73,0
3496,3496,52.61,0.46,-23.47,0
3497,3497,52.63,-4.19,-44.4,0
3498,3498,52.64,15.46,-15.57,0
3499,3499,52.65,6.24,2.34,0
3500,3500,52.67,-8.65,-30.52,0
3501,3501,52.68,-0.22,-17.83,0
3502,3502,52.69,-12.37,-0.36,0
3503,3503,52.71,-16.93,-23.78,0
3504,3504,52.72,7.21,-8.43,0
3505,3505,52.73,3.0,2.43,0
3506,3506,52.75,-7.96,-27.08,0
3507,3507,52.76,4.8,-3.64,0
3508,3508,52.77,1.67,24.12,0
3509,3509,52.79,5.13,-4.11,0
3510,3510,52.8,24.41,7.88,0
3511,3511,52.81,6.55,32.08,0
3512,3512,52.83,-10.11,5.52,0
3513,3513,52.84,6.07,13.2,0
3514,3514,52.85,2.37,33.93,0
3515,3515,52.87,0.66,14.81,0
3516,3516,52.88,19.05,32.5,0
3517,3517,52.89,-0.96,48.25,0
3518,3518,52.9,-22.11,10.58,0
3519,3519,52.92,1.87,19.56,0
3520,3520,52.93,9.01,42.32,0
3521,3521,52.94,0.3,7.55,0
3522,3522,52.96,10.13,13.31,0
3523,3523,52.97,3.71,38.8,0
3524,3524,52.98,-0.99,7.95,0
3525,3525,53.0,14.51,16.28,0
3526,3526,53.01,1.67,49.57,0
3527,3527,53.02,-12.43,24.7,0
3528,3528,53.04,3.36,26.98,0
3529,3529,53.05,0.16,45.2,0
3530,3530,53.06,-6.51,7.36,0
3531,3531,53.08,5.16,14.28,0
3532,3532,53.09,-3.0,53.03,0
3533,3533,53.11,1.0,20.03,0
3534,3534,53.12,26.82,9.13,0
3535,3535,53.13,12.29,44.05,0
3536,3536,53.15,-3.28,31.45,0
3537,3537,53.16,14.6,26.68,0
3538,3538,53.17,0.94,32.26,0
3539,3539,53.19,-19.83,-9.89,0
3540,3540,53.2,-4.25,-0.79,0
3541,3541,53.21,-6.63,43.59,0
3542,3542,53.22,-12.4,11.1,0
3543,3543,53.24,13.9,0.4,0
3544,3544,53.25,16.97,37.87,0
3545,3545,53.27,1.22,16.4,0
3546,3546,53.28,0.8,8.38,0
3547,3547,53.29,-12.67,35.43,0
3548,3548,53.31,-17.05,6.44,0
3549,3549,53.32,3.14,0.82,0
3550,3550,53.33,-1.01,30.0,0
3551,3551,53.35,-7.66,-3.55,0
3552,3552,53.36,3.16,-7.53,0
3553,3553,53.37,-9.77,33.81,0
3554,3554,53.38,-6.5,8.82,0
3555,3555,53.4,31.56,4.27,0
3556,3556,53.41,24.64,38.82,0
3557,3557,53.43,-5.98,-0.63,0
3558,3558,53.44,-2.87,-16.99,0
3559,3559,53.45,-9.29,21.83,0
3560,3560,53.47,-17.75,-7.58,0
3561,3561,53.48,4.06,-22.41,0
3562,3562,53.49,8.43,15.53,0
3563,3563,53.51,1.66,-8.06,0
3564,3564,53.52,12.03,-13.36,0
3565,3565,53.53,1.13,32.13,0
3566,3566,53.54,-10.82,9.38,0
3567,3567,53.56,3.65,-1.18,0
3568,3568,53.57,-1.65,33.89,0
3569,3569,53.58,-6.68,-9.73,0
3570,3570,53.6,14.95,-40.69,0
3571,3571,53.61,11.04,0.69,0
3572,3572,53.62,-1.88,-10.45,0
3573,3573,53.64,2.93,-16.71,0
3574,3574,53.65,-15.5,18.39,0
3575,3575,53.66,-19.27,-16.32,0
3576,3576,53.68,13.35,-34.68,0
3577,3577,53.69,3.79,5.12,0
3578,3578,53.7,-21.01,-22.56,0
3579,3579,53.72,-1.07,-33.99,0
3580,3580,53.73,5.63,16.19,0
3581,3581,53.75,-8.33,-7.32,0
3582,3582,53.76,-2.71,-26.01,0
3583,3583,53.77,-4.45,15.17,0
3584,3584,53.79,-6.76,-14.13,0
3585,3585,53.8,7.27,-35.56,0
3586,3586,53.81,-2.77,9.06,0
3587,3587,53.83,-17.56,-13.69,0
3588,3588,53.84,-5.77,-30.98,0
3589,3589,53.85,-6.46,15.07,0
3590,3590,53.87,-5.37,-11.51,0
3591,3591,53.88,14.76,-35.81,0
3592,3592,53.89,1.28,8.38,0
3593,3593,53.9,-17.22,-16.36,0
3594,3594,53.92,1.53,-43.94,0
3595,3595,53.93,-0.21,-5.22,0
3596,3596,53.95,-14.52,-24.15,0
3597,3597,53.96,5.2,-30.89,0
3598,3598,53.97,14.21,27.12,0
3599,3599,53.99,3.92,8.38,0
3600,3600,54.0,2.13,-10.53,0
3601,3601,54.01,-10.8,39.42,0
3602,3602,54.03,-9.62,10.73,0
3603,3603,54.04,17.94,-22.44,0
3604,3604,54.05,12.74,29.66,0
3605,3605,54.06,-5.37,14.49,0
3606,3606,54.08,1.26,-24.77,0
3607,3607,54.09,-8.15,3.06,0
3608,3608,54.11,-14.64,-20.79,0
3609,3609,54.12,11.26,-39.58,0
3610,3610,54.13,11.34,9.11,0
3611,3611,54.15,-7.29,-24.26,0
3612,3612,54.16,3.42,-66.48,0
3613,3613,54.17,5.44,-7.85,0
3614,3614,54.18,-7.85,13.16,0
3615,3615,54.2,-3.66,38.31,0
3616,3616,54.21,-2.28,150.06,0
3617,3617,54.22,2.97,208.02,0
3618,3618,54.24,24.05,208.72,0
3619,3619,54.25,25.94,171.85,0
3620,3620,54.26,25.83,55.49,0
3621,3621,54.28,33.48,2.92,0
3622,3622,54.29,8.16,19.05,0
3623,3623,54.3,-11.5,-29.47,0
3624,3624,54.32,-3.6,-47.08,0
3625,3625,54.33,-29.09,-10.23,0
3626,3626,54.34,-47.43,-6.45,0
3627,3627,54.36,-10.23,108.07,0
3628,3628,54.37,5.02,296.54,0
3629,3629,54.38,-8.03,225.93,0
3630,3630,54.4,17.9,8.25,0
3631,3631,54.41,48.09,-30.37,0
3632,3632,54.43,26.37,-39.3,0
3633,3633,54.44,-9.82,-114.78,0
3634,3634,54.45,-15.27,-105.95,0
3635,3635,54.47,-4.01,-104.03,0
3636,3636,54.48,-1.51,-106.2,0
3637,3637,54.49,-10.04,-45.27,0
3638,3638,54.51,-10.74,-105.63,0
3639,3639,54.52,-6.58,-196.37,0
3640,3640,54.53,-23.04,-189.97,0
3641,3641,54.54,-29.26,-247.54,0
3642,3642,54.56,-2.9,-204.94,0
3643,3643,54.57,-3.59,-15.51,0
3644,3644,54.59,-30.73,-73.86,0
3645,3645,54.6,-24.29,-221.45,0
3646,3646,54.61,-7.97,-69.37,0
3647,3647,54.63,-9.64,81.16,0
3648,3648,54.64,-6.53,-22.63,0
3649,3649,54.65,-7.31,-128.13,0
3650,3650,54.67,-10.49,-103.45,0
3651,3651,54.68,3.41,-3.26,0
3652,3652,54.69,13.45,73.15,0
3653,3653,54.71,15.43,23.71,0
3654,3654,54.72,21.98,-29.98,0
3655,3655,54.73,13.7,-5.33,0
3656,3656,54.75,12.4,-17.22,0
3657,3657,54.76,39.18,-32.34,0
3658,3658,54.77,27.85,-14.87,0
3659,3659,54.79,-19.46,-52.64,0
3660,3660,54.8,-18.47,-81.96,0
3661,3661,54.81,8.55,-65.71,0
3662,3662,54.82,13.28,-84.57,0
3663,3663,54.84,11.89,-61.54,0
3664,3664,54.85,-10.12,7.3,0
3665,3665,54.86,-42.24,-34.24,0
3666,3666,54.88,-29.4,-117.29,0
3667,3667,54.89,5.76,-105.84,0
3668,3668,54.9,19.3,-75.11,0
3669,3669,54.92,20.07,-70.76,0
3670,3670,54.93,12.51,-39.23,0
3671,3671,54.94,6.97,25.37,0
3672,3672,54.96,8.05,115.97,0
3673,3673,54.97,-7.97,152.13,0
3674,3674,54.98,-16.74,58.53,0
3675,3675,55.0,6.51,-0.01,0
3676,3676,55.01,13.59,38.55,0
3677,3677,55.025000000000006,-1.5,8.33,0
3678,3678,55.04,0.22,-2.98,0
3679,3679,55.05,2.07,71.1,0
3680,3680,55.06,1.02,8.91,0
3681,3681,55.08,15.81,-99.8,0
3682,3682,55.09,16.11,-5.59,0
3683,3683,55.11,2.07,104.33,0
3684,3684,55.12,1.93,38.54,0
3685,3685,55.13,-10.66,-47.33,0
3686,3686,55.15,-26.83,-71.55,0
3687,3687,55.16,-11.09,-44.08,0
3688,3688,55.17,-9.66,47.17,0
3689,3689,55.19,-28.16,64.59,0
3690,3690,55.2,-11.04,23.04,0
3691,3691,55.21,12.75,90.85,0
3692,3692,55.22,24.08,161.23,0
3693,3693,55.24,45.68,147.87,0
3694,3694,55.25,37.72,145.03,0
3695,3695,55.27,7.12,129.12,0
3696,3696,55.28,7.7,86.81,0
3697,3697,55.29,7.94,42.15,0
3698,3698,55.31,-7.0,-41.38,0
3699,3699,55.32,-2.69,-85.76,0
3700,3700,55.33,-0.47,-56.89,0
3701,3701,55.35,-5.54,-40.21,0
3702,3702,55.36,7.74,26.28,0
3703,3703,55.37,9.07,115.0,0
3704,3704,55.38,-10.87,73.27,0
3705,3705,55.4,-11.97,49.15,0
3706,3706,55.41,-2.39,162.84,0
3707,3707,55.43,2.63,160.49,0
3708,3708,55.44,15.64,3.27,0
3709,3709,55.45,11.6,-12.01,0
3710,3710,55.46,-13.84,86.57,0
3711,3711,55.48,-19.5,58.2,0
3712,3712,55.49,-14.52,-44.34,0
3713,3713,55.5,-11.64,-80.91,0
3714,3714,55.52,11.68,-41.12,0
3715,3715,55.53,23.51,45.14,0
3716,3716,55.54,-1.16,97.46,0
3717,3717,55.56,-13.34,80.47,0
3718,3718,55.57,-0.39,43.9,0
3719,3719,55.58,7.92,-0.5,0
3720,3720,55.6,5.72,-5.07,0
3721,3721,55.61,-8.31,48.95,0
3722,3722,55.62,-13.14,29.69,0
3723,3723,55.64,9.83,-67.72,0
3724,3724,55.65,19.39,-116.34,0
3725,3725,55.66,3.21,-84.1,0
3726,3726,55.68,-4.85,39.26,0
3727,3727,55.69,-16.37,144.96,0
3728,3728,55.71,-26.27,74.32,0
3729,3729,55.72,2.47,-14.97,0
3730,3730,55.73,25.08,36.32,0
3731,3731,55.75,7.79,65.25,0
3732,3732,55.76,3.64,17.71,0
3733,3733,55.77,11.8,11.63,0
3734,3734,55.79,5.94,29.09,0
3735,3735,55.8,9.31,47.65,0
3736,3736,55.81,11.53,79.75,0
3737,3737,55.83,6.91,56.82,0
3738,3738,55.84,16.11,4.33,0
3739,3739,55.85,5.25,5.36,0
3740,3740,55.87,-29.45,-23.82,0
3741,3741,55.88,-31.96,-100.3,0
3742,3742,55.89,-17.91,-72.11,0
3743,3743,55.9,-24.85,11.46,0
3744,3744,55.92,-23.09,25.49,0
3745,3745,55.93,-7.79,39.88,0
3746,3746,55.95,-5.53,30.26,0
3747,3747,55.96,-4.49,-43.8,0
3748,3748,55.97,-3.29,-29.86,0
3749,3749,55.99,-7.43,37.24,0
3750,3750,56.0,3.5,6.93,0
3751,3751,56.01,14.38,-21.65,0
3752,3752,56.03,3.46,-8.4,0
3753,3753,56.04,-5.01,-34.46,0
3754,3754,56.05,-6.93,-37.25,0
3755,3755,56.06,-13.55,-47.01,0
3756,3756,56.08,-12.55,-102.93,0
3757,3757,56.09,-16.24,-48.85,0
3758,3758,56.1,-24.1,36.9,0
3759,3759,56.12,-0.02,3.18,0
3760,3760,56.13,28.79,12.55,0
3761,3761,56.14,26.85,56.1,0
3762,3762,56.16,21.92,-33.3,0
3763,3763,56.17,9.89,-103.97,0
3764,3764,56.18,-7.97,-48.79,0
3765,3765,56.2,9.91,-4.75,0
3766,3766,56.21,27.29,12.48,0
3767,3767,56.22,4.77,16.19,0
3768,3768,56.24,-6.0,-17.33,0
3769,3769,56.25,2.89,-11.55,0
3770,3770,56.26,-0.76,-12.36,0
3771,3771,56.28,2.28,-81.37,0
3772,3772,56.29,2.9,-76.35,0
3773,3773,56.3,-15.35,-12.31,0
3774,3774,56.32,-12.01,-21.88,0
3775,3775,56.33,2.03,-19.01,0
3776,3776,56.35,-8.8,21.23,0
3777,3777,56.36,-8.91,5.3,0
3778,3778,56.37,5.07,2.97,0
3779,3779,56.38,-0.49,23.15,0
3780,3780,56.4,-4.88,-18.12,0
3781,3781,56.41,-0.5,-36.74,0
3782,3782,56.43,-4.87,-40.67,0
3783,3783,56.44,-5.73,-137.59,0
3784,3784,56.45,-13.56,-213.55,0
3785,3785,56.47,-31.27,-219.96,0
3786,3786,56.48,-17.2,-255.92,0
3787,3787,56.49,8.21,-246.73,0
3788,3788,56.51,1.46,-183.68,0
3789,3789,56.52,-4.4,-181.33,0
3790,3790,56.53,2.12,-143.62,0
3791,3791,56.54,-3.19,-40.81,0
3792,3792,56.56,-0.43,-11.23,0
3793,3793,56.57,3.75,14.23,0
3794,3794,56.59,-6.99,81.52,0
3795,3795,56.6,5.24,81.79,0
3796,3796,56.61,21.43,89.41,0
3797,3797,56.63,-0.35,137.04,0
3798,3798,56.64,-12.13,110.32,0
3799,3799,56.65,0.39,93.47,0
3800,3800,56.67,-5.44,128.42,0
3801,3801,56.68,-10.53,96.97,0
3802,3802,56.69,1.28,74.17,0
3803,3803,56.71,7.98,104.9,0
3804,3804,56.72,15.11,80.77,0
3805,3805,56.73,13.43,76.35,0
3806,3806,56.74,0.0,122.03,0
3807,3807,56.76,5.7,101.66,0
3808,3808,56.77,5.97,91.87,0
3809,3809,56.78,-12.19,107.91,0
3810,3810,56.8,0.88,39.43,0
3811,3811,56.81,17.12,26.49,0
3812,3812,56.82,-6.77,102.25,0
3813,3813,56.84,-13.5,71.24,0
3814,3814,56.85,1.53,27.87,0
3815,3815,56.86,-11.47,80.34,0
3816,3816,56.88,-9.93,82.91,0
3817,3817,56.89,20.4,67.13,0
3818,3818,56.9,18.76,86.33,0
3819,3819,56.92,2.07,33.43,0
3820,3820,56.93,0.18,6.08,0
3821,3821,56.94,-5.66,59.78,0
3822,3822,56.96,3.94,40.19,0
3823,3823,56.97,21.12,21.46,0
3824,3824,56.99,9.6,69.33,0
3825,3825,57.0,4.15,39.34,0
3826,3826,57.01,11.35,9.42,0
3827,3827,57.03,-1.82,51.5,0
3828,3828,57.04,-3.51,22.69,0
3829,3829,57.05,9.63,0.39,0
3830,3830,57.06,2.55,56.08,0
3831,3831,57.08,5.39,34.26,0
3832,3832,57.09,18.01,-0.18,0
3833,3833,57.11,2.16,36.62,0
3834,3834,57.12,-5.1,8.3,0
3835,3835,57.13,7.57,-23.85,0
3836,3836,57.15,2.56,11.78,0
3837,3837,57.16,3.44,-17.23,0
3838,3838,57.17,9.11,-39.03,0
3839,3839,57.19,-6.98,11.18,0
3840,3840,57.2,-0.66,-18.06,0
3841,3841,57.21,19.41,-52.83,0
3842,3842,57.22,-1.24,-3.97,0
3843,3843,57.24,-19.56,-17.81,0
3844,3844,57.25,-11.56,-43.78,0
3845,3845,57.27,-15.17,-3.49,0
3846,3846,57.28,-11.33,-27.58,0
3847,3847,57.29,0.39,-51.81,0
3848,3848,57.31,-8.85,-5.91,0
3849,3849,57.32,-5.7,-35.95,0
3850,3850,57.33,4.37,-66.76,0
3851,3851,57.35,-12.29,-3.98,0
3852,3852,57.36,-8.23,-12.82,0
3853,3853,57.37,15.76,-54.88,0
3854,3854,57.38,3.51,-21.5,0
3855,3855,57.4,-9.77,-42.63,0
3856,3856,57.41,-5.44,-81.32,0
3857,3857,57.42,-18.68,-40.16,0
3858,3858,57.44,-14.13,-41.92,0
3859,3859,57.45,9.62,-55.25,0
3860,3860,57.46,1.03,-8.47,0
3861,3861,57.48,-2.05,-27.25,0
3862,3862,57.49,16.43,-50.47,0
3863,3863,57.5,6.01,3.13,0
3864,3864,57.52,-4.51,-16.83,0
3865,3865,57.53,6.43,-55.0,0
3866,3866,57.54,-1.89,-10.6,0
3867,3867,57.56,-8.23,-28.05,0
3868,3868,57.57,1.83,-58.11,0
3869,3869,57.58,-3.08,-0.71,0
3870,3870,57.6,1.26,-11.17,0
3871,3871,57.61,12.46,-59.22,0
3872,3872,57.625,-11.82,-28.46,0
3873,3873,57.64,-25.94,-35.68,0
3874,3874,57.65,-4.79,-54.82,0
3875,3875,57.67,-0.13,-6.17,0
3876,3876,57.68,-1.11,-17.16,0
3877,3877,57.69,7.0,-45.14,0
3878,3878,57.71,-3.43,-3.47,0
3879,3879,57.72,-1.07,-24.09,0
3880,3880,57.73,18.76,-57.7,0
3881,3881,57.75,11.41,-7.31,0
3882,3882,57.76,7.3,-16.02,0
3883,3883,57.77,13.02,-50.61,0
3884,3884,57.79,-11.48,-5.44,0
3885,3885,57.8,-15.28,-9.77,0
3886,3886,57.81,13.85,-41.1,0
3887,3887,57.83,6.87,-4.93,0
3888,3888,57.84,-4.16,-17.14,0
3889,3889,57.85,12.56,-39.28,0
3890,3890,57.87,8.07,16.96,0
3891,3891,57.88,4.88,10.87,0
3892,3892,57.89,18.28,-30.31,0
3893,3893,57.9,3.87,6.76,0
3894,3894,57.92,-4.14,2.75,0
3895,3895,57.93,5.35,-28.4,0
3896,3896,57.95,-17.05,8.29,0
3897,3897,57.96,-26.05,-7.62,0
3898,3898,57.97,-0.35,-50.31,0
3899,3899,57.99,-3.09,-2.89,0
3900,3900,58.0,-11.53,16.29,0
3901,3901,58.01,1.56,-7.54,0
3902,3902,58.02,-2.85,15.54,0
3903,3903,58.04,-3.95,-1.48,0
3904,3904,58.05,4.48,-33.11,0
3905,3905,58.06,-13.67,7.72,0
3906,3906,58.08,-13.96,10.06,0
3907,3907,58.09,12.88,-13.35,0
3908,3908,58.1,6.63,22.44,0
3909,3909,58.12,-1.38,11.83,0
3910,3910,58.13,12.98,-19.98,0
3911,3911,58.14,0.63,21.65,0
3912,3912,58.16,-10.07,19.15,0
3913,3913,58.17,8.71,-19.0,0
3914,3914,58.18,9.68,16.95,0
3915,3915,58.2,5.79,22.61,0
3916,3916,58.21,15.54,-16.61,0
3917,3917,58.22,0.59,2.55,0
3918,3918,58.24,-12.94,3.66,0
3919,3919,58.25,0.0,-24.7,0
3920,3920,58.26,2.08,-17.41,0
3921,3921,58.28,13.03,-70.19,0
3922,3922,58.29,35.9,-147.7,0
3923,3923,58.31,12.13,-122.68,0
3924,3924,58.32,-20.15,-101.11,0
3925,3925,58.33,-9.62,-118.12,0
3926,3926,58.35,0.78,-85.83,0
3927,3927,58.36,4.18,-84.62,0
3928,3928,58.37,10.72,-106.92,0
3929,3929,58.38,-2.74,-50.67,0
3930,3930,58.4,-4.31,-17.1,0
3931,3931,58.41,14.98,-26.34,0
3932,3932,58.43,6.81,25.13,0
3933,3933,58.44,-6.56,57.09,0
3934,3934,58.45,-9.07,51.42,0
3935,3935,58.47,-27.3,101.33,0
3936,3936,58.48,-23.39,124.68,0
3937,3937,58.49,1.19,102.42,0
3938,3938,58.51,-5.54,129.91,0
3939,3939,58.52,-5.13,135.0,0
3940,3940,58.53,11.97,104.93,0
3941,3941,58.54,-10.66,134.43,0
3942,3942,58.56,-32.52,144.23,0
3943,3943,58.57,-13.06,112.26,0
3944,3944,58.59,-0.67,139.89,0
3945,3945,58.6,1.65,155.19,0
3946,3946,58.61,4.96,116.12,0
3947,3947,58.63,-8.9,117.3,0
3948,3948,58.64,-3.32,116.08,0
3949,3949,58.65,19.09,81.75,0
3950,3950,58.66,1.29,90.82,0
3951,3951,58.68,-14.45,92.69,0
3952,3952,58.69,3.42,60.83,0
3953,3953,58.7,0.49,68.29,0
3954,3954,58.72,-4.45,61.73,0
3955,3955,58.73,12.08,25.5,0
3956,3956,58.74,3.37,42.64,0
3957,3957,58.76,-7.34,45.88,0
3958,3958,58.77,6.93,4.06,0
3959,3959,58.78,3.49,18.06,0
3960,3960,58.8,2.22,34.49,0
3961,3961,58.81,21.23,1.84,0
3962,3962,58.82,12.34,11.3,0
3963,3963,58.84,-2.55,21.81,0
3964,3964,58.85,3.64,-16.74,0
3965,3965,58.86,-6.67,-13.83,0
3966,3966,58.88,-9.03,-2.84,0
3967,3967,58.89,11.39,-30.78,0
3968,3968,58.9,3.91,-15.56,0
3969,3969,58.92,-6.23,-6.96,0
3970,3970,58.93,2.21,-48.24,0
3971,3971,58.95,-18.48,-31.23,0
3972,3972,58.96,-31.48,-6.44,0
3973,3973,58.97,-2.75,-46.08,0
3974,3974,58.99,8.39,-39.53,0
3975,3975,59.0,7.67,-9.53,0
3976,3976,59.01,19.18,-35.17,0
3977,3977,59.03,8.59,-30.34,0
3978,3978,59.04,3.09,-13.65,0
3979,3979,59.05,14.87,-49.18,0
3980,3980,59.06,-9.51,-47.96,0
3981,3981,59.08,-26.01,-28.92,0
3982,3982,59.09,4.61,-56.2,0
3983,3983,59.11,11.28,-44.36,0
3984,3984,59.12,-3.67,-21.85,0
3985,3985,59.13,0.18,-55.09,0
3986,3986,59.15,-2.97,-45.1,0
3987,3987,59.16,10.06,-19.8,0
3988,3988,59.17,40.1,-57.59,0
3989,3989,59.19,16.4,-47.75,0
3990,3990,59.2,-19.98,-8.08,0
3991,3991,59.21,-6.45,-40.21,0
3992,3992,59.22,-1.77,-47.0,0
3993,3993,59.24,-14.57,-21.71,0
3994,3994,59.25,-3.24,-46.09,0
3995,3995,59.27,-0.15,-37.04,0
3996,3996,59.28,-5.72,-9.79,0
3997,3997,59.29,4.27,-49.86,0
3998,3998,59.3,0.79,-52.26,0
3999,3999,59.32,-3.62,-14.88,0
4000,4000,59.33,6.17,-36.96,0
4001,4001,59.34,-2.91,-29.35,0
4002,4002,59.36,-2.58,6.85,0
4003,4003,59.37,17.87,-31.33,0
4004,4004,59.38,5.19,-46.4,0
4005,4005,59.4,-6.7,-18.2,0
4006,4006,59.41,8.75,-42.02,0
4007,4007,59.42,-4.85,-33.92,0
4008,4008,59.44,-15.52,7.58,0
4009,4009,59.45,9.94,-21.22,0
4010,4010,59.46,7.67,-28.68,0
4011,4011,59.48,-8.48,-2.5,0
4012,4012,59.49,-1.1,-39.78,0
4013,4013,59.5,-9.06,-38.72,0
4014,4014,59.52,-12.7,5.71,0
4015,4015,59.53,8.36,-26.27,0
4016,4016,59.54,6.97,-26.94,0
4017,4017,59.56,4.49,26.35,0
4018,4018,59.57,16.99,0.63,0
4019,4019,59.59,-1.59,-13.17,0
4020,4020,59.6,-9.69,19.83,0
4021,4021,59.61,17.05,-13.34,0
4022,4022,59.63,4.49,-17.3,0
4023,4023,59.64,-20.0,27.31,0
4024,4024,59.65,-0.08,-12.82,0
4025,4025,59.67,7.7,-32.34,0
4026,4026,59.68,-5.71,17.29,0
4027,4027,59.69,-4.05,-6.47,0
4028,4028,59.71,-6.05,-25.8,0
4029,4029,59.72,-1.7,16.83,0
4030,4030,59.73,10.77,-1.23,0
4031,4031,59.75,-4.66,-10.19,0
4032,4032,59.76,-10.95,34.2,0
4033,4033,59.77,7.18,11.38,0
4034,4034,59.79,-4.93,-2.65,0
4035,4035,59.8,-13.61,33.84,0
4036,4036,59.81,12.25,-1.47,0
4037,4037,59.83,8.55,-20.07,0
4038,4038,59.84,-11.39,25.5,0
4039,4039,59.85,-1.27,-0.02,0
4040,4040,59.87,-2.42,-15.75,0
4041,4041,59.88,-10.82,29.34,0
4042,4042,59.89,3.97,3.64,0
4043,4043,59.9,2.54,-10.08,0
4044,4044,59.92,-5.97,37.11,0
4045,4045,59.93,4.45,10.34,0
4046,4046,59.94,-2.3,-6.99,0
4047,4047,59.96,-3.53,37.49,0
4048,4048,59.97,19.44,9.43,0
4049,4049,59.98,6.08,-6.55,0
4050,4050,60.0,-19.16,43.36,0
4051,4051,60.01,-5.28,17.33,0
4052,4052,60.02,1.33,-3.63,0
4053,4053,60.04,-0.88,42.74,0
4054,4054,60.05,10.22,15.51,0
4055,4055,60.06,-5.75,-8.48,0
4056,4056,60.08,-21.16,37.81,0
4057,4057,60.09,-0.24,13.7,0
4058,4058,60.1,0.16,-12.93,0
4059,4059,60.12,-10.99,25.45,0
4060,4060,60.13,3.91,4.04,0
4061,4061,60.14,3.35,0.97,0
4062,4062,60.16,0.55,62.33,0
4063,4063,60.17,19.61,34.76,0
4064,4064,60.18,10.81,21.62,0
4065,4065,60.2,-5.37,117.59,0
4066,4066,60.21,7.59,150.39,0
4067,4067,60.22,-0.15,160.23,0
4068,4068,60.24,-15.5,222.6,0
4069,4069,60.25,3.97,191.93,0
4070,4070,60.27,10.89,135.08,0
