,Unnamed: 0,Timestamp,Data1,Data2,Label
0,0,6.0,0.26,-4.24,0
1,1,6.01,2.86,4.59,0
2,2,6.03,3.46,8.39,0
3,3,6.04,0.85,-3.97,0
4,4,6.05,4.01,-11.28,0
5,5,6.07,12.38,-2.42,0
6,6,6.08,16.47,4.12,0
7,7,6.09,8.74,-1.49,0
8,8,6.11,-1.76,-9.34,0
9,9,6.12,0.16,-10.55,0
10,10,6.13,6.71,-5.01,0
11,11,6.15,2.42,3.11,0
12,12,6.16,-7.43,9.32,0
13,13,6.17,-8.53,14.08,0
14,14,6.19,4.45,36.53,0
15,15,6.2,17.44,93.83,0
16,16,6.21,1.74,154.56,0
17,17,6.23,-40.7,172.4,0
18,18,6.24,-60.42,150.52,0
19,19,6.25,-28.49,84.83,0
20,20,6.265,9.19,-117.13,0
21,21,6.28,14.27,-358.93,0
22,22,6.29,28.54,-268.69,0
23,23,6.31,53.26,120.72,0
24,24,6.32,29.6,303.22,0
25,25,6.33,2.8,140.92,0
26,26,6.35,37.69,22.78,0
27,27,6.36,61.35,184.32,0
28,28,6.37,16.96,370.33,0
29,29,6.39,-34.03,310.8,0
30,30,6.4,-36.53,119.31,0
31,31,6.41,4.74,70.67,0
32,32,6.43,46.23,181.05,0
33,33,6.44,41.0,187.36,0
34,34,6.45,-1.08,72.08,0
35,35,6.47,-29.37,57.84,0
36,36,6.48,-24.28,79.97,0
37,37,6.49,-25.04,23.71,0
38,38,6.51,-58.18,-1.64,0
39,39,6.52,-64.23,-9.9,0
40,40,6.53,-0.95,-89.36,0
41,41,6.55,53.14,-152.07,0
42,42,6.56,40.07,-118.22,0
43,43,6.57,20.02,-74.51,0
44,44,6.59,27.99,-113.13,0
45,45,6.6,18.89,-167.0,0
46,46,6.61,-5.94,-146.96,0
47,47,6.63,10.75,-90.09,0
48,48,6.64,49.54,-64.83,0
49,49,6.65,23.73,-88.89,0
50,50,6.67,-56.07,-157.38,0
51,51,6.68,-93.73,-218.01,0
52,52,6.69,-68.23,-170.1,0
53,53,6.71,-23.68,-71.35,0
54,54,6.72,2.49,-106.52,0
55,55,6.73,-15.24,-231.04,0
56,56,6.75,-43.03,-275.65,0
57,57,6.76,-23.89,-257.26,0
58,58,6.77,10.65,-245.6,0
59,59,6.79,13.91,-226.75,0
60,60,6.8,14.65,-174.8,0
61,61,6.81,14.46,-101.43,0
62,62,6.82,-13.62,-115.52,0
63,63,6.84,-34.13,-256.61,0
64,64,6.85,-22.32,-302.12,0
65,65,6.86,-13.62,-157.26,0
66,66,6.88,-21.82,-56.57,0
67,67,6.89,-11.54,-81.8,0
68,68,6.91,20.5,-97.88,0
69,69,6.92,17.88,-89.38,0
70,70,6.93,-23.17,-95.88,0
71,71,6.95,-25.92,-95.12,0
72,72,6.96,22.11,-77.75,0
73,73,6.97,42.26,-47.4,0
74,74,6.99,16.0,-5.24,0
75,75,7.0,-3.85,15.39,0
76,76,7.01,-14.82,-12.86,0
77,77,7.03,-29.13,-57.72,0
78,78,7.04,-9.87,-60.39,0
79,79,7.05,36.32,-6.68,0
80,80,7.07,39.22,44.7,0
81,81,7.08,-8.06,28.52,0
82,82,7.09,-25.76,-9.27,0
83,83,7.11,11.62,16.49,0
84,84,7.12,31.1,60.78,0
85,85,7.13,1.67,35.81,0
86,86,7.15,-19.4,-16.73,0
87,87,7.16,-7.09,-7.97,0
88,88,7.17,-0.4,34.38,0
89,89,7.19,-16.76,51.08,0
90,90,7.2,-21.68,48.81,0
91,91,7.21,5.09,24.9,0
92,92,7.23,22.97,24.52,0
93,93,7.24,7.16,104.21,0
94,94,7.25,-12.05,169.18,0
95,95,7.27,-9.46,142.16,0
96,96,7.28,1.38,86.14,0
97,97,7.29,-18.78,48.81,0
98,98,7.31,-55.62,34.5,0
99,99,7.32,-41.43,66.52,0
100,100,7.33,11.59,145.81,0
101,101,7.35,30.12,191.13,0
102,102,7.36,6.18,146.17,0
103,103,7.37,-15.4,105.02,0
104,104,7.39,-15.02,148.54,0
105,105,7.4,-7.91,187.21,0
106,106,7.41,-6.99,148.7,0
107,107,7.43,-12.82,112.27,0
108,108,7.44,-12.94,135.53,0
109,109,7.45,4.18,179.27,0
110,110,7.47,29.02,206.52,0
111,111,7.48,49.02,190.57,0
112,112,7.49,47.22,138.31,0
113,113,7.51,15.59,100.18,0
114,114,7.52,-8.04,89.99,0
115,115,7.53,-3.71,120.77,0
116,116,7.55,2.02,163.18,0
117,117,7.56,0.45,107.46,0
118,118,7.57,0.42,3.65,0
119,119,7.59,10.24,5.58,0
120,120,7.6,36.27,77.3,0
121,121,7.61,58.94,104.04,0
122,122,7.63,52.41,106.06,0
123,123,7.64,28.61,136.55,0
124,124,7.65,15.67,131.62,0
125,125,7.67,9.48,53.74,0
126,126,7.68,-4.35,-0.36,0
127,127,7.69,-10.21,-1.35,0
128,128,7.71,5.28,-0.6,0
129,129,7.72,21.28,41.83,0
130,130,7.73,9.66,118.34,0
131,131,7.75,-19.83,115.84,0
132,132,7.76,-27.92,53.7,0
133,133,7.77,-5.09,50.33,0
134,134,7.79,24.33,86.03,0
135,135,7.8,36.22,54.48,0
136,136,7.81,17.74,-28.61,0
137,137,7.83,-13.58,-78.56,0
138,138,7.84,-18.1,-72.87,0
139,139,7.85,4.95,-16.08,0
140,140,7.87,6.0,11.53,0
141,141,7.88,-17.42,-76.13,0
142,142,7.89,-1.75,-126.91,0
143,143,7.91,37.82,-7.38,0
144,144,7.92,18.91,80.78,0
145,145,7.93,-28.56,0.69,0
146,146,7.95,-22.48,-73.51,0
147,147,7.96,4.28,-34.93,0
148,148,7.97,-11.23,22.41,0
149,149,7.99,-36.12,22.1,0
150,150,8.0,-21.5,-11.45,0
151,151,8.01,4.59,-24.21,0
152,152,8.03,3.55,-34.91,0
153,153,8.04,-9.21,-84.97,0
154,154,8.05,-8.74,-106.66,0
155,155,8.07,3.38,-36.52,0
156,156,8.08,22.65,22.3,0
157,157,8.09,46.32,-13.62,0
158,158,8.1,43.5,-54.6,0
159,159,8.12,4.07,-47.58,0
160,160,8.13,-21.04,-21.28,0
161,161,8.15,-18.44,19.93,0
162,162,8.16,-23.63,13.76,0
163,163,8.17,-28.31,-53.66,0
164,164,8.19,-15.95,-68.92,0
165,165,8.2,-9.07,-35.52,0
166,166,8.21,-7.01,-31.81,0
167,167,8.23,11.28,-32.69,0
168,168,8.24,19.49,-36.48,0
169,169,8.25,-13.4,-66.4,0
170,170,8.27,-44.88,-76.32,0
171,171,8.28,-25.03,-47.71,0
172,172,8.29,10.9,-25.12,0
173,173,8.31,11.65,-32.33,0
174,174,8.32,-6.2,-46.17,0
175,175,8.33,-7.93,-42.0,0
176,176,8.35,-0.1,-26.79,0
177,177,8.36,-3.26,-20.91,0
178,178,8.37,-12.56,-42.11,0
179,179,8.39,-14.99,-112.0,0
180,180,8.4,-8.92,-222.97,0
181,181,8.41,0.73,-318.26,0
182,182,8.43,5.65,-353.06,0
183,183,8.44,7.31,-337.09,0
184,184,8.45,11.32,-298.9,0
185,185,8.47,5.62,-243.6,0
186,186,8.48,-15.23,-166.2,0
187,187,8.49,-28.88,-82.66,0
188,188,8.51,-17.59,-13.67,0
189,189,8.52,4.69,40.73,0
190,190,8.53,12.51,83.68,0
191,191,8.55,3.96,105.13,0
192,192,8.56,-2.23,100.49,0
193,193,8.57,1.58,86.91,0
194,194,8.59,4.49,87.56,0
195,195,8.6,-1.44,103.23,0
196,196,8.61,-3.48,109.55,0
197,197,8.63,9.19,97.17,0
198,198,8.64,20.63,84.87,0
199,199,8.65,12.97,78.97,0
200,200,8.67,-8.51,73.2,0
201,201,8.68,-21.73,76.71,0
202,202,8.69,-9.96,85.92,0
203,203,8.71,11.55,77.66,0
204,204,8.72,15.69,61.41,0
205,205,8.73,4.96,64.06,0
206,206,8.75,-3.2,71.93,0
207,207,8.76,-3.6,63.14,0
208,208,8.77,-1.95,54.8,0
209,209,8.78,-5.73,58.74,0
210,210,8.8,-10.44,55.49,0
211,211,8.81,-6.52,42.18,0
212,212,8.82,-0.3,36.29,0
213,213,8.84,-1.53,37.44,0
214,214,8.85,-5.3,37.84,0
215,215,8.87,-3.14,37.55,0
216,216,8.88,5.3,34.26,0
217,217,8.89,8.73,27.62,0
218,218,8.91,0.35,22.48,0
219,219,8.92,-2.28,21.23,0
220,220,8.93,11.02,20.16,0
221,221,8.95,18.02,14.7,0
222,222,8.96,8.56,12.83,0
223,223,8.97,1.53,20.52,0
224,224,8.99,3.27,19.9,0
225,225,9.0,2.14,2.89,0
226,226,9.01,1.32,-11.21,0
227,227,9.03,10.53,-14.15,0
228,228,9.04,14.59,-12.37,0
229,229,9.05,1.06,-5.82,0
230,230,9.07,-10.61,0.91,0
231,231,9.08,-6.38,-0.2,0
232,232,9.09,2.8,-6.63,0
233,233,9.11,3.94,-10.55,0
234,234,9.12,-4.09,-7.79,0
235,235,9.13,-7.83,-3.81,0
236,236,9.15,0.58,-8.02,0
237,237,9.16,6.9,-17.47,0
238,238,9.17,-0.31,-20.21,0
239,239,9.19,-9.54,-14.67,0
240,240,9.2,-3.85,-7.88,0
241,241,9.21,13.83,-3.12,0
242,242,9.23,21.57,-5.1,0
243,243,9.24,12.23,-14.28,0
244,244,9.25,4.02,-19.58,0
245,245,9.27,6.27,-19.14,0
246,246,9.28,5.79,-21.2,0
247,247,9.29,-3.62,-23.13,0
248,248,9.31,-9.74,-18.57,0
249,249,9.32,-4.9,-10.25,0
250,250,9.33,3.26,-6.63,0
251,251,9.35,4.55,-13.54,0
252,252,9.36,0.66,-23.33,0
253,253,9.37,0.61,-25.25,0
254,254,9.39,4.43,-24.38,0
255,255,9.4,2.63,-29.06,0
256,256,9.41,-6.43,-34.68,0
257,257,9.43,-10.08,-30.55,0
258,258,9.44,-0.42,-16.27,0
259,259,9.45,9.05,-6.89,0
260,260,9.47,5.52,-10.42,0
261,261,9.48,-2.9,-19.08,0
262,262,9.49,-6.95,-25.4,0
263,263,9.51,-6.19,-25.08,0
264,264,9.52,0.73,-16.51,0
265,265,9.53,11.76,-10.22,0
266,266,9.55,13.93,-17.5,0
267,267,9.56,4.82,-25.97,0
268,268,9.57,0.35,-18.06,0
269,269,9.59,0.27,-6.05,0
270,270,9.6,-5.99,-9.67,0
271,271,9.61,-10.55,-19.87,0
272,272,9.63,-10.61,-18.66,0
273,273,9.64,-12.18,-11.46,0
274,274,9.65,-7.31,-11.99,0
275,275,9.67,6.12,-13.53,0
276,276,9.68,9.96,-6.0,0
277,277,9.69,-3.17,1.39,0
278,278,9.71,-16.58,-1.78,0
279,279,9.72,-12.65,-8.59,0
280,280,9.73,3.31,-10.48,0
281,281,9.75,9.62,-10.45,0
282,282,9.76,-0.72,-10.9,0
283,283,9.77,-13.02,-10.98,0
284,284,9.79,-14.26,-11.52,0
285,285,9.8,-6.04,-8.7,0
286,286,9.81,-0.81,-4.32,0
287,287,9.83,-4.61,-7.83,0
288,288,9.84,-9.0,-13.04,0
289,289,9.85,-4.16,-6.27,0
290,290,9.87,5.8,6.22,0
291,291,9.88,7.82,9.53,0
292,292,9.89,2.2,4.08,0
293,293,9.91,0.34,0.25,0
294,294,9.92,1.35,2.27,0
295,295,9.93,-3.39,8.59,0
296,296,9.95,-13.86,12.85,0
297,297,9.96,-17.04,7.15,0
298,298,9.97,-3.16,-3.08,0
299,299,9.99,10.39,-6.11,0
300,300,10.0,6.8,-3.06,0
301,301,10.01,3.48,0.36,0
302,302,10.02,9.24,3.34,0
303,303,10.04,2.55,4.0,0
304,304,10.05,-13.16,5.54,0
305,305,10.06,-10.8,10.98,0
306,306,10.08,2.16,10.81,0
307,307,10.09,2.04,0.83,0
308,308,10.1,-3.59,-6.68,0
309,309,10.12,1.37,-1.91,0
310,310,10.13,8.73,10.71,0
311,311,10.15,5.33,19.57,0
312,312,10.16,-1.79,18.22,0
313,313,10.17,1.65,11.04,0
314,314,10.19,9.67,7.94,0
315,315,10.2,5.8,6.43,0
316,316,10.21,-5.27,-21.72,0
317,317,10.23,-11.68,-82.19,0
318,318,10.24,-12.65,-126.8,0
319,319,10.25,-3.73,-134.13,0
320,320,10.27,7.61,-138.15,0
321,321,10.28,5.16,-157.77,0
322,322,10.29,5.21,-177.42,0
323,323,10.31,16.87,-172.48,0
324,324,10.32,14.64,-137.33,0
325,325,10.33,1.21,-94.01,0
326,326,10.35,8.38,-59.44,0
327,327,10.36,28.93,-29.44,0
328,328,10.37,17.93,5.15,0
329,329,10.39,-17.58,46.71,0
330,330,10.4,-18.78,86.79,0
331,331,10.41,6.22,110.53,0
332,332,10.43,2.12,116.78,0
333,333,10.44,-17.94,128.25,0
334,334,10.45,-17.58,160.71,0
335,335,10.47,-9.83,197.16,0
336,336,10.48,-8.23,212.86,0
337,337,10.49,-4.51,207.31,0
338,338,10.51,-2.8,195.65,0
339,339,10.52,-8.71,182.64,0
340,340,10.53,-11.16,167.34,0
341,341,10.55,-4.02,154.46,0
342,342,10.56,3.59,144.1,0
343,343,10.57,4.4,129.75,0
344,344,10.59,-1.38,110.92,0
345,345,10.6,-6.36,96.88,0
346,346,10.61,-5.58,89.39,0
347,347,10.63,-6.44,76.7,0
348,348,10.64,-8.27,60.79,0
349,349,10.65,-2.83,53.94,0
350,350,10.67,5.53,46.27,0
351,351,10.68,9.07,29.37,0
352,352,10.69,2.86,21.87,0
353,353,10.71,-11.04,26.03,0
354,354,10.72,-10.56,16.67,0
355,355,10.73,12.99,-4.63,0
356,356,10.75,27.26,-8.02,0
357,357,10.76,15.86,4.15,0
358,358,10.77,-0.43,2.99,0
359,359,10.78,-10.61,-12.53,0
360,360,10.8,-15.04,-23.41,0
361,361,10.81,-10.56,-22.3,0
362,362,10.83,-2.52,-20.83,0
363,363,10.84,-0.21,-31.86,0
364,364,10.85,-0.86,-43.86,0
365,365,10.87,2.59,-41.12,0
366,366,10.88,8.36,-29.13,0
367,367,10.89,7.37,-21.28,0
368,368,10.91,-3.47,-22.61,0
369,369,10.92,-7.66,-26.89,0
370,370,10.93,4.16,-30.3,0
371,371,10.95,12.06,-39.56,0
372,372,10.96,7.09,-53.41,0
373,373,10.97,6.89,-58.57,0
374,374,10.99,12.32,-53.88,0
375,375,11.0,6.61,-51.35,0
376,376,11.01,-6.24,-52.22,0
377,377,11.03,-9.19,-49.54,0
378,378,11.04,-2.29,-44.45,0
379,379,11.05,2.95,-43.22,0
380,380,11.07,5.29,-47.94,0
381,381,11.08,11.62,-51.5,0
382,382,11.09,16.17,-46.07,0
383,383,11.11,4.9,-37.43,0
384,384,11.12,-11.66,-35.18,0
385,385,11.13,-12.45,-36.85,0
386,386,11.15,-4.62,-37.21,0
387,387,11.16,-1.37,-38.16,0
388,388,11.17,1.91,-41.69,0
389,389,11.19,7.64,-44.91,0
390,390,11.2,8.13,-44.52,0
391,391,11.21,1.77,-41.22,0
392,392,11.23,0.39,-39.46,0
393,393,11.24,8.3,-39.74,0
394,394,11.25,8.98,-37.76,0
395,395,11.27,-2.66,-34.94,0
396,396,11.28,-5.84,-32.84,0
397,397,11.29,5.93,-28.24,0
398,398,11.31,13.68,-25.58,0
399,399,11.32,7.72,-27.25,0
400,400,11.33,-0.19,-26.73,0
401,401,11.35,1.36,-26.71,0
402,402,11.36,8.05,-33.34,0
403,403,11.37,7.74,-42.12,0
404,404,11.39,-3.71,-44.16,0
405,405,11.4,-15.07,-33.92,0
406,406,11.41,-12.94,-18.0,0
407,407,11.43,-3.63,-14.16,0
408,408,11.44,-2.22,-25.15,0
409,409,11.45,-6.54,-33.07,0
410,410,11.47,-8.56,-26.28,0
411,411,11.48,-6.94,-13.27,0
412,412,11.49,2.83,-10.03,0
413,413,11.51,16.26,-16.97,0
414,414,11.52,16.6,-18.11,0
415,415,11.53,3.71,-10.64,0
416,416,11.55,-5.17,-8.14,0
417,417,11.56,-4.95,-12.32,0
418,418,11.57,-3.58,-13.67,0
419,419,11.59,-2.89,-13.27,0
420,420,11.6,-3.19,-11.62,0
421,421,11.61,-10.2,1.39,0
422,422,11.63,-17.81,20.56,0
423,423,11.64,-12.26,25.51,0
424,424,11.65,1.68,11.81,0
425,425,11.67,9.31,-5.0,0
426,426,11.68,5.82,-10.92,0
427,427,11.69,-2.77,-2.29,0
428,428,11.71,-2.15,13.58,0
429,429,11.72,11.55,21.18,0
430,430,11.73,18.16,14.83,0
431,431,11.75,3.4,5.58,0
432,432,11.76,-8.16,2.65,0
433,433,11.77,6.37,5.83,0
434,434,11.79,20.6,13.09,0
435,435,11.8,11.16,19.3,0
436,436,11.81,-0.44,19.05,0
437,437,11.83,-0.33,20.53,0
438,438,11.84,1.2,29.37,0
439,439,11.85,3.44,29.38,0
440,440,11.87,6.04,13.9,0
441,441,11.88,-1.77,1.69,0
442,442,11.89,-11.36,4.22,0
443,443,11.91,-8.58,14.69,0
444,444,11.92,-4.42,23.78,0
445,445,11.93,-4.33,25.08,0
446,446,11.94,0.74,20.19,0
447,447,11.96,7.49,17.72,0
448,448,11.97,8.53,20.19,0
449,449,11.98,1.98,20.73,0
450,450,12.0,-8.74,13.83,0
451,451,12.01,-11.27,6.13,0
452,452,12.02,-5.71,9.62,0
453,453,12.04,-8.8,20.56,0
454,454,12.05,-15.42,23.97,0
455,455,12.06,-7.74,16.8,0
456,456,12.08,3.88,12.47,0
457,457,12.09,1.16,18.69,0
458,458,12.105,-8.79,24.29,0
459,459,12.12,-11.23,24.96,0
460,460,12.13,-7.04,31.48,0
461,461,12.15,-0.59,40.93,0
462,462,12.16,7.28,45.8,0
463,463,12.17,11.08,52.34,0
464,464,12.19,7.69,55.83,0
465,465,12.2,5.14,54.94,0
466,466,12.21,7.44,93.42,0
467,467,12.23,0.84,196.83,0
468,468,12.24,-14.99,297.22,0
469,469,12.25,-14.81,319.06,0
470,470,12.27,2.2,276.69,0
471,471,12.28,11.18,217.65,0
472,472,12.29,4.56,153.04,0
473,473,12.31,-8.8,82.58,0
474,474,12.32,-18.06,16.65,0
475,475,12.33,-17.18,-42.14,0
476,476,12.35,-15.02,-100.96,0
477,477,12.36,-20.46,-157.8,0
478,478,12.37,-21.98,-195.16,0
479,479,12.39,-10.29,-202.75,0
480,480,12.4,1.02,-193.25,0
481,481,12.41,3.18,-178.42,0
482,482,12.43,5.7,-160.89,0
483,483,12.44,9.73,-145.37,0
484,484,12.45,3.37,-133.95,0
485,485,12.47,-9.93,-123.39,0
486,486,12.48,-9.05,-108.72,0
487,487,12.49,6.06,-95.19,0
488,488,12.51,12.2,-94.34,0
489,489,12.52,6.51,-100.36,0
490,490,12.53,6.55,-98.58,0
491,491,12.55,10.91,-89.8,0
492,492,12.56,5.65,-78.58,0
493,493,12.57,-4.55,-59.9,0
494,494,12.59,-10.55,-36.73,0
495,495,12.6,-8.6,-28.82,0
496,496,12.61,5.39,-37.49,0
497,497,12.63,17.92,-39.6,0
498,498,12.64,12.1,-31.8,0
499,499,12.65,-1.7,-26.68,0
500,500,12.67,-2.19,-20.67,0
501,501,12.68,9.31,-11.31,0
502,502,12.69,12.72,-9.44,0
503,503,12.71,3.0,-12.67,0
504,504,12.72,-3.55,-6.93,0
505,505,12.73,2.13,3.95,0
506,506,12.75,10.36,8.68,0
507,507,12.76,9.54,11.44,0
508,508,12.77,2.72,16.31,0
509,509,12.79,-0.92,16.13,0
510,510,12.8,-2.66,14.24,0
511,511,12.81,-4.63,18.76,0
512,512,12.83,-2.16,20.98,0
513,513,12.84,3.55,18.94,0
514,514,12.85,6.62,29.96,0
515,515,12.87,6.82,47.99,0
516,516,12.88,7.36,43.71,0
517,517,12.89,6.64,23.97,0
518,518,12.91,1.09,21.46,0
519,519,12.92,-3.6,32.71,0
520,520,12.93,1.95,36.99,0
521,521,12.95,9.24,36.13,0
522,522,12.96,5.19,32.4,0
523,523,12.97,0.63,24.16,0
524,524,12.99,5.8,21.17,0
525,525,13.0,9.15,27.26,0
526,526,13.01,6.94,37.55,0
527,527,13.03,7.98,49.96,0
528,528,13.04,10.63,54.87,0
529,529,13.05,6.52,42.92,0
530,530,13.07,-1.42,25.44,0
531,531,13.08,-3.35,18.92,0
532,532,13.09,-4.16,23.25,0
533,533,13.11,-10.66,31.48,0
534,534,13.12,-8.87,40.61,0
535,535,13.13,5.93,43.05,0
536,536,13.15,12.31,30.6,0
537,537,13.16,3.81,12.46,0
538,538,13.17,-0.22,5.87,0
539,539,13.19,1.94,12.87,0
540,540,13.2,-6.62,23.45,0
541,541,13.21,-17.76,30.69,0
542,542,13.23,-12.93,32.94,0
543,543,13.24,0.09,28.59,0
544,544,13.25,5.58,18.96,0
545,545,13.27,1.21,12.08,0
546,546,13.28,-5.68,9.91,0
547,547,13.29,-7.42,8.38,0
548,548,13.31,-3.78,11.56,0
549,549,13.32,-0.18,20.92,0
550,550,13.33,-0.22,26.45,0
551,551,13.35,-2.08,19.23,0
552,552,13.36,-4.62,5.72,0
553,553,13.37,-7.76,5.54,0
554,554,13.39,-4.67,20.18,0
555,555,13.4,6.05,24.13,0
556,556,13.41,11.31,11.31,0
557,557,13.43,4.13,5.41,0
558,558,13.44,-5.89,10.05,0
559,559,13.45,-8.06,5.85,0
560,560,13.47,-4.0,-3.82,0
561,561,13.48,-0.18,-0.48,0
562,562,13.49,1.0,9.25,0
563,563,13.51,-3.28,5.52,0
564,564,13.52,-9.16,-8.1,0
565,565,13.53,-5.25,-9.93,0
566,566,13.55,6.17,2.83,0
567,567,13.56,7.63,11.74,0
568,568,13.57,-5.46,8.13,0
569,569,13.59,-14.74,-0.78,0
570,570,13.6,-6.86,-5.4,0
571,571,13.61,6.16,-2.33,0
572,572,13.63,7.31,1.76,0
573,573,13.64,-1.59,-0.16,0
574,574,13.65,-8.38,-7.61,0
575,575,13.67,-7.69,-15.18,0
576,576,13.68,-4.88,-13.39,0
577,577,13.69,-4.25,-4.35,0
578,578,13.71,-2.59,-4.63,0
579,579,13.72,1.33,-13.87,0
580,580,13.73,6.0,-17.59,0
581,581,13.75,12.43,-15.27,0
582,582,13.76,14.98,-15.47,0
583,583,13.77,4.24,-20.52,0
584,584,13.79,-11.31,-23.19,0
585,585,13.8,-15.79,-20.48,0
586,586,13.81,-10.64,-19.33,0
587,587,13.83,-5.7,-19.57,0
588,588,13.84,-2.33,-18.69,0
589,589,13.85,5.28,-18.62,0
590,590,13.86,11.87,-13.47,0
591,591,13.88,1.67,-6.3,0
592,592,13.89,-13.65,-9.03,0
593,593,13.9,-5.27,-14.92,0
594,594,13.92,16.06,-13.62,0
595,595,13.93,15.02,-11.2,0
596,596,13.94,-4.45,-15.22,0
597,597,13.96,-10.01,-20.33,0
598,598,13.97,-2.04,-15.99,0
599,599,13.98,-4.49,-6.23,0
600,600,14.0,-14.8,-8.01,0
601,601,14.01,-9.7,-18.89,0
602,602,14.02,7.26,-17.45,0
603,603,14.04,9.37,-3.41,0
604,604,14.05,-1.54,3.93,0
605,605,14.07,-1.17,2.47,0
606,606,14.08,9.0,1.47,0
607,607,14.09,10.19,-2.1,0
608,608,14.11,7.04,-11.9,0
609,609,14.12,12.85,-19.03,0
610,610,14.13,16.21,-16.12,0
611,611,14.15,6.0,-16.75,0
612,612,14.16,0.66,-29.07,0
613,613,14.17,17.29,1.55,0
614,614,14.19,42.88,108.19,0
615,615,14.2,52.9,175.29,0
616,616,14.21,28.98,148.57,0
617,617,14.23,-20.69,164.33,0
618,618,14.24,-49.68,203.34,0
619,619,14.25,-31.13,106.91,0
620,620,14.27,5.22,-43.72,0
621,621,14.28,10.38,-37.09,0
622,622,14.29,-20.82,116.0,0
623,623,14.31,-28.97,196.83,0
624,624,14.32,10.16,144.94,0
625,625,14.33,37.25,95.4,0
626,626,14.35,15.29,43.52,0
627,627,14.36,-33.8,-51.1,0
628,628,14.37,-63.93,-75.16,0
629,629,14.39,-31.26,-8.2,0
630,630,14.4,28.01,47.32,0
631,631,14.41,26.36,62.21,0
632,632,14.43,-14.69,6.4,0
633,633,14.44,-10.65,-150.57,0
634,634,14.45,13.76,-271.72,0
635,635,14.47,7.49,-242.78,0
636,636,14.48,4.49,-204.89,0
637,637,14.49,21.7,-258.4,0
638,638,14.51,33.57,-288.19,0
639,639,14.52,24.13,-221.66,0
640,640,14.53,-20.05,-119.25,0
641,641,14.55,-53.13,-58.9,0
642,642,14.56,-11.73,-9.2,0
643,643,14.57,38.37,48.49,0
644,644,14.59,16.79,-22.27,0
645,645,14.6,-15.74,-178.13,0
646,646,14.61,-9.28,-145.62,0
647,647,14.63,-12.5,33.24,0
648,648,14.64,-35.82,29.96,0
649,649,14.65,-42.74,-121.48,0
650,650,14.67,-32.9,-86.01,0
651,651,14.68,-25.18,85.71,0
652,652,14.69,-35.47,63.27,0
653,653,14.71,-60.44,-95.37,0
654,654,14.72,-55.7,-101.8,0
655,655,14.73,-2.44,2.08,0
656,656,14.75,36.37,11.59,0
657,657,14.76,10.37,-62.62,0
658,658,14.77,-25.28,-91.63,0
659,659,14.79,-5.05,-29.78,0
660,660,14.8,29.16,51.1,0
661,661,14.81,11.49,52.75,0
662,662,14.83,-15.97,-5.86,0
663,663,14.84,17.37,-39.01,0
664,664,14.85,73.42,-41.32,0
665,665,14.87,74.71,-39.24,0
666,666,14.88,31.2,-31.88,0
667,667,14.89,5.48,-42.84,0
668,668,14.91,11.22,-58.46,0
669,669,14.92,11.89,-8.77,0
670,670,14.93,-0.35,58.78,0
671,671,14.95,6.91,52.44,0
672,672,14.96,35.3,39.92,0
673,673,14.97,41.27,52.53,0
674,674,14.99,10.48,6.94,0
675,675,15.0,-8.7,-45.35,0
676,676,15.01,13.6,-30.41,0
677,677,15.03,30.82,-16.55,0
678,678,15.04,10.52,-18.9,0
679,679,15.05,-3.8,11.6,0
680,680,15.07,5.63,26.52,0
681,681,15.08,0.71,-9.12,0
682,682,15.09,-14.88,-8.88,0
683,683,15.11,-3.56,46.19,0
684,684,15.12,31.05,41.67,0
685,685,15.13,50.73,-24.28,0
686,686,15.15,33.53,-38.13,0
687,687,15.16,-8.43,10.88,0
688,688,15.17,-42.73,60.96,0
689,689,15.19,-40.54,85.31,0
690,690,15.2,-12.12,91.7,0
691,691,15.21,2.32,91.86,0
692,692,15.23,-6.52,90.45,0
693,693,15.24,-14.18,104.73,0
694,694,15.25,-17.24,110.71,0
695,695,15.27,-26.61,46.47,0
696,696,15.28,-36.8,-38.85,0
697,697,15.29,-46.9,-47.65,0
698,698,15.31,-42.85,-5.97,0
699,699,15.32,-3.48,20.63,0
700,700,15.33,24.66,25.07,0
701,701,15.35,-8.48,37.8,0
702,702,15.36,-43.85,77.32,0
703,703,15.37,-19.86,103.84,0
704,704,15.39,2.86,97.42,0
705,705,15.4,-20.55,98.25,0
706,706,15.41,-23.84,104.42,0
707,707,15.43,14.64,84.15,0
708,708,15.44,36.23,55.76,0
709,709,15.45,24.72,27.34,0
710,710,15.47,2.08,-7.08,0
711,711,15.48,-13.93,4.63,0
712,712,15.49,-16.81,62.48,0
713,713,15.51,-17.69,73.6,0
714,714,15.52,-9.51,20.78,0
715,715,15.53,23.38,-22.64,0
716,716,15.55,46.08,-25.41,0
717,717,15.56,28.45,-4.89,0
718,718,15.57,7.37,27.6,0
719,719,15.59,3.4,50.88,0
720,720,15.6,-11.28,45.56,0
721,721,15.61,-18.51,26.47,0
722,722,15.63,14.32,-3.11,0
723,723,15.64,33.56,-36.84,0
724,724,15.65,5.62,-26.97,0
725,725,15.67,-7.32,4.58,0
726,726,15.68,10.31,-6.03,0
727,727,15.69,15.97,-17.9,0
728,728,15.71,7.37,1.25,0
729,729,15.72,5.55,-3.69,0
730,730,15.73,19.56,-19.22,0
731,731,15.75,22.23,16.98,0
732,732,15.76,-7.88,59.41,0
733,733,15.77,-26.14,51.19,0
734,734,15.78,-9.58,37.31,0
735,735,15.8,-2.04,50.68,0
736,736,15.81,-14.3,60.45,0
737,737,15.82,-14.46,51.57,0
738,738,15.84,-4.97,32.83,0
739,739,15.85,0.65,5.49,0
740,740,15.86,11.52,-22.92,0
741,741,15.88,10.68,-29.77,0
742,742,15.89,-6.48,-6.46,0
743,743,15.9,3.56,19.13,0
744,744,15.92,16.22,27.46,0
745,745,15.93,-22.75,46.07,0
746,746,15.94,-50.27,57.92,0
747,747,15.96,-10.23,-13.27,0
748,748,15.97,29.53,-97.22,0
749,749,15.98,24.71,-49.92,0
750,750,16.0,8.88,25.07,0
751,751,16.01,-3.15,-30.55,0
752,752,16.03,-19.67,-91.55,0
753,753,16.04,-38.57,-6.36,0
754,754,16.05,-36.93,98.04,0
755,755,16.07,-1.85,52.54,0
756,756,16.08,24.35,-62.0,0
757,757,16.09,13.7,-72.26,0
758,758,16.11,8.1,13.63,0
759,759,16.12,25.01,51.93,0
760,760,16.13,17.91,1.15,0
761,761,16.15,-19.81,-30.94,0
762,762,16.16,-35.21,7.84,0
763,763,16.17,-15.39,33.49,0
764,764,16.19,5.84,5.69,0
765,765,16.2,8.79,-2.79,0
766,766,16.21,-3.42,23.96,0
767,767,16.23,-17.29,27.31,0
768,768,16.24,-26.46,18.21,0
769,769,16.25,-28.79,23.66,0
770,770,16.27,-15.19,-6.03,0
771,771,16.28,12.08,-108.08,0
772,772,16.29,28.93,-239.88,0
773,773,16.31,16.96,-330.87,0
774,774,16.32,-4.36,-354.78,0
775,775,16.33,-3.57,-334.27,0
776,776,16.35,10.6,-289.81,0
777,777,16.36,13.81,-216.39,0
778,778,16.37,9.47,-118.19,0
779,779,16.39,9.74,-30.6,0
780,780,16.4,11.15,22.19,0
781,781,16.41,9.12,55.71,0
782,782,16.42,10.35,89.41,0
783,783,16.44,17.56,115.33,0
784,784,16.45,17.7,120.15,0
785,785,16.46,1.06,109.4,0
786,786,16.48,-18.23,100.42,0
787,787,16.49,-18.18,101.1,0
788,788,16.5,-3.28,102.89,0
789,789,16.52,5.85,96.41,0
790,790,16.53,6.44,85.97,0
791,791,16.54,7.44,85.13,0
792,792,16.56,9.83,92.08,0
793,793,16.57,10.48,89.64,0
794,794,16.58,6.46,80.22,0
795,795,16.6,0.34,78.13,0
796,796,16.61,0.28,77.83,0
797,797,16.62,7.53,70.94,0
798,798,16.64,13.55,65.78,0
799,799,16.65,11.48,66.71,0
800,800,16.67,2.77,61.76,0
801,801,16.68,-6.77,47.72,0
802,802,16.69,-11.7,39.26,0
803,803,16.71,-8.01,42.92,0
804,804,16.72,0.76,47.48,0
805,805,16.73,5.08,41.16,0
806,806,16.75,2.81,27.05,0
807,807,16.76,0.96,15.97,0
808,808,16.77,1.03,13.73,0
809,809,16.79,-0.02,19.99,0
810,810,16.8,1.36,27.81,0
811,811,16.81,4.95,30.27,0
812,812,16.83,1.51,25.36,0
813,813,16.84,-8.26,11.72,0
814,814,16.85,-11.37,-3.88,0
815,815,16.87,-3.71,-8.68,0
816,816,16.88,2.69,-5.75,0
817,817,16.89,-0.74,-7.63,0
818,818,16.91,-5.03,-9.29,0
819,819,16.92,-2.77,-4.43,0
820,820,16.93,-0.14,-7.86,0
821,821,16.95,1.6,-20.41,0
822,822,16.96,5.19,-17.48,0
823,823,16.97,5.91,-6.02,0
824,824,16.99,3.47,-17.59,0
825,825,17.0,4.53,-36.24,0
826,826,17.01,8.16,-28.81,0
827,827,17.03,7.84,-15.68,0
828,828,17.04,1.08,-24.14,0
829,829,17.05,-9.16,-36.35,0
830,830,17.06,-11.04,-34.3,0
831,831,17.08,-2.66,-29.2,0
832,832,17.09,0.51,-27.42,0
833,833,17.1,-0.86,-24.58,0
834,834,17.12,1.93,-24.8,0
835,835,17.13,1.05,-28.84,0
836,836,17.14,-4.19,-28.97,0
837,837,17.16,-4.97,-24.52,0
838,838,17.17,-3.73,-21.8,0
839,839,17.18,-3.39,-24.73,0
840,840,17.2,-0.9,-30.1,0
841,841,17.21,1.77,-32.3,0
842,842,17.22,0.73,-31.26,0
843,843,17.24,-0.5,-27.12,0
844,844,17.25,0.74,-23.72,0
845,845,17.26,4.26,-32.38,0
846,846,17.28,9.1,-45.19,0
847,847,17.29,7.68,-40.98,0
848,848,17.3,-2.08,-25.12,0
849,849,17.32,-7.14,-19.3,0
850,850,17.33,-2.34,-26.66,0
851,851,17.35,1.76,-31.46,0
852,852,17.36,0.6,-24.96,0
853,853,17.37,-0.05,-19.42,0
854,854,17.39,2.06,-25.33,0
855,855,17.4,2.8,-29.98,0
856,856,17.41,-1.81,-25.3,0
857,857,17.43,-9.3,-24.02,0
858,858,17.44,-14.86,-27.37,0
859,859,17.45,-12.57,-23.87,0
860,860,17.47,-2.45,-17.9,0
861,861,17.48,-0.51,-18.41,0
862,862,17.49,-9.5,-19.18,0
863,863,17.51,-6.61,-17.1,0
864,864,17.52,7.52,-20.25,0
865,865,17.53,7.76,-27.6,0
866,866,17.55,-3.08,-28.95,0
867,867,17.56,-5.52,-21.59,0
868,868,17.57,-1.5,-11.36,0
869,869,17.59,1.15,-4.83,0
870,870,17.6,1.12,-4.39,0
871,871,17.61,-3.97,-6.7,0
872,872,17.63,-8.02,-7.48,0
873,873,17.64,-3.25,-7.75,0
874,874,17.65,1.16,-11.82,0
875,875,17.67,-1.78,-16.65,0
876,876,17.68,-2.19,-15.7,0
877,877,17.69,2.22,-10.66,0
878,878,17.7,0.66,-5.92,0
879,879,17.72,-2.8,0.43,0
880,880,17.73,3.17,5.33,0
881,881,17.75,7.41,0.88,0
882,882,17.76,-2.33,-4.63,0
883,883,17.77,-10.95,1.21,0
884,884,17.78,-5.79,10.18,0
885,885,17.8,-0.63,10.96,0
886,886,17.81,-4.68,7.83,0
887,887,17.82,-7.04,4.77,0
888,888,17.84,-3.56,0.68,0
889,889,17.85,-2.56,1.73,0
890,890,17.86,-2.09,9.45,0
891,891,17.88,4.85,12.77,0
892,892,17.89,11.06,7.28,0
893,893,17.9,6.31,-0.06,0
894,894,17.92,-2.84,-0.74,0
895,895,17.93,-4.2,5.05,0
896,896,17.94,0.49,4.94,0
897,897,17.96,2.1,-4.89,0
898,898,17.97,-1.5,-5.99,0
899,899,17.99,-7.9,10.36,0
900,900,18.0,-12.11,23.19,0
901,901,18.01,-10.8,18.08,0
902,902,18.03,-7.83,12.54,0
903,903,18.04,-5.49,20.94,0
904,904,18.05,2.87,31.14,0
905,905,18.07,13.73,29.68,0
906,906,18.08,8.54,20.71,0
907,907,18.09,-7.32,14.77,0
908,908,18.11,-4.36,14.67,0
909,909,18.12,14.23,15.9,0
910,910,18.13,19.66,18.15,0
911,911,18.15,13.74,25.73,0
912,912,18.16,11.19,29.92,0
913,913,18.17,4.48,20.49,0
914,914,18.19,-9.41,-0.24,0
915,915,18.2,-9.07,-45.84,0
916,916,18.21,11.87,-114.93,0
917,917,18.23,27.96,-152.7,0
918,918,18.24,26.81,-142.01,0
919,919,18.25,21.66,-136.72,0
920,920,18.27,16.56,-150.57,0
921,921,18.28,6.91,-147.03,0
922,922,18.29,-0.97,-129.47,0
923,923,18.31,1.9,-120.8,0
924,924,18.32,9.75,-104.74,0
925,925,18.33,9.96,-66.3,0
926,926,18.34,0.52,-23.33,0
927,927,18.36,-13.2,12.91,0
928,928,18.37,-23.75,48.22,0
929,929,18.38,-20.12,81.54,0
930,930,18.4,-6.32,111.43,0
931,931,18.41,-3.25,139.67,0
932,932,18.42,-13.98,161.21,0
933,933,18.44,-20.58,171.35,0
934,934,18.45,-15.87,175.98,0
935,935,18.46,-11.22,186.53,0
936,936,18.48,-12.23,202.52,0
937,937,18.49,-8.06,208.06,0
938,938,18.5,4.53,196.91,0
939,939,18.52,10.42,177.26,0
940,940,18.53,-1.68,154.95,0
941,941,18.54,-20.0,133.7,0
942,942,18.56,-21.25,116.59,0
943,943,18.57,-7.33,103.9,0
944,944,18.58,0.18,95.69,0
945,945,18.6,-0.24,89.34,0
946,946,18.61,-2.83,79.96,0
947,947,18.63,-7.8,65.73,0
948,948,18.64,-7.95,49.62,0
949,949,18.65,-3.39,40.51,0
950,950,18.67,-1.28,38.67,0
951,951,18.68,5.14,30.41,0
952,952,18.69,24.76,14.07,0
953,953,18.71,41.49,4.59,0
954,954,18.72,24.57,7.45,0
955,955,18.73,-14.97,10.69,0
956,956,18.75,-29.14,3.5,0
957,957,18.76,-15.58,-6.32,0
958,958,18.77,-9.85,-11.54,0
959,959,18.79,-8.55,-23.62,0
960,960,18.8,10.4,-39.77,0
961,961,18.81,31.01,-41.6,0
962,962,18.83,25.93,-35.38,0
963,963,18.84,4.18,-37.39,0
964,964,18.85,-7.28,-41.36,0
965,965,18.87,-3.82,-41.39,0
966,966,18.88,4.98,-45.65,0
967,967,18.89,9.63,-49.8,0
968,968,18.91,2.93,-44.01,0
969,969,18.92,-9.13,-38.56,0
970,970,18.93,-12.18,-43.06,0
971,971,18.95,-1.06,-49.71,0
972,972,18.96,11.73,-54.66,0
973,973,18.97,10.57,-58.83,0
974,974,18.98,-0.5,-54.42,0
975,975,19.0,-8.96,-41.01,0
976,976,19.01,-8.11,-33.54,0
977,977,19.02,0.2,-40.02,0
978,978,19.04,3.0,-50.97,0
979,979,19.05,0.9,-56.79,0
980,980,19.06,8.36,-58.92,0
981,981,19.08,12.86,-57.2,0
982,982,19.09,-0.55,-52.55,0
983,983,19.1,-12.36,-52.84,0
984,984,19.12,-11.63,-53.48,0
985,985,19.13,-8.0,-45.57,0
986,986,19.14,-0.87,-39.81,0
987,987,19.16,7.6,-44.81,0
988,988,19.17,8.3,-46.66,0
989,989,19.18,3.34,-40.07,0
990,990,19.2,-1.88,-41.49,0
991,991,19.21,-2.74,-52.87,0
992,992,19.22,5.17,-53.06,0
993,993,19.24,11.95,-38.68,0
994,994,19.25,9.39,-31.37,0
995,995,19.27,10.51,-35.92,0
996,996,19.28,12.54,-38.29,0
997,997,19.29,-1.45,-37.74,0
998,998,19.31,-14.03,-40.69,0
999,999,19.32,-1.89,-41.3,0
1000,1000,19.33,15.78,-34.14,0
1001,1001,19.35,10.45,-26.78,0
1002,1002,19.36,-11.52,-24.21,0
1003,1003,19.37,-23.48,-21.91,0
1004,1004,19.39,-17.04,-21.79,0
1005,1005,19.4,-5.26,-26.33,0
1006,1006,19.41,1.6,-22.65,0
1007,1007,19.43,7.13,-8.86,0
1008,1008,19.44,13.41,-6.61,0
1009,1009,19.45,6.47,-19.22,0
1010,1010,19.47,-12.95,-23.61,0
1011,1011,19.48,-16.38,-13.06,0
1012,1012,19.49,-1.55,-6.45,0
1013,1013,19.51,6.33,-12.16,0
1014,1014,19.52,8.77,-14.8,0
1015,1015,19.53,18.05,-3.36,0
1016,1016,19.55,18.65,8.29,0
1017,1017,19.56,-1.5,6.66,0
1018,1018,19.57,-16.65,2.33,0
1019,1019,19.59,-5.36,3.0,0
1020,1020,19.6,10.11,0.97,0
1021,1021,19.61,4.97,-1.91,0
1022,1022,19.62,-7.27,2.2,0
1023,1023,19.64,-6.81,7.15,0
1024,1024,19.65,-0.7,7.68,0
1025,1025,19.67,1.1,10.23,0
1026,1026,19.68,4.82,13.8,0
1027,1027,19.69,12.66,15.23,0
1028,1028,19.7,15.71,20.12,0
1029,1029,19.72,5.57,23.2,0
1030,1030,19.73,-13.33,15.51,0
1031,1031,19.75,-21.15,5.23,0
1032,1032,19.76,-13.42,2.8,0
1033,1033,19.77,-6.84,6.28,0
1034,1034,19.78,-2.35,10.45,0
1035,1035,19.8,8.4,11.78,0
1036,1036,19.81,13.35,8.78,0
1037,1037,19.82,-0.44,6.19,0
1038,1038,19.84,-15.5,7.74,0
1039,1039,19.85,-10.57,7.97,0
1040,1040,19.86,2.89,6.48,0
1041,1041,19.88,9.93,12.87,0
1042,1042,19.89,11.17,24.71,0
1043,1043,19.9,1.82,28.2,0
1044,1044,19.92,-10.68,26.74,0
1045,1045,19.93,-3.47,31.03,0
1046,1046,19.95,16.41,34.82,0
1047,1047,19.96,19.18,30.83,0
1048,1048,19.97,7.32,21.95,0
1049,1049,19.99,3.17,12.68,0
1050,1050,20.0,2.94,8.9,0
1051,1051,20.01,-7.78,11.18,0
1052,1052,20.03,-21.22,13.08,0
1053,1053,20.04,-21.08,15.86,0
1054,1054,20.05,-8.39,21.03,0
1055,1055,20.07,-0.5,21.28,0
1056,1056,20.08,-8.42,16.16,0
1057,1057,20.09,-19.93,15.74,0
1058,1058,20.11,-16.64,24.78,0
1059,1059,20.12,-1.58,33.95,0
1060,1060,20.13,7.68,33.24,0
1061,1061,20.15,8.39,27.06,0
1062,1062,20.16,11.44,26.81,0
1063,1063,20.17,13.16,54.23,0
1064,1064,20.19,0.64,126.62,0
1065,1065,20.2,-17.05,219.23,0
1066,1066,20.21,-23.8,291.9,0
1067,1067,20.23,-24.51,323.84,0
1068,1068,20.24,-25.29,298.76,0
1069,1069,20.25,-24.13,222.97,0
1070,1070,20.26,-21.95,137.86,0
1071,1071,20.28,-20.0,77.6,0
1072,1072,20.29,-15.82,39.02,0
1073,1073,20.3,-4.43,-9.1,0
1074,1074,20.32,4.0,-79.58,0
1075,1075,20.33,-5.68,-150.59,0
1076,1076,20.34,-11.81,-202.36,0
1077,1077,20.36,4.15,-223.74,0
1078,1078,20.37,18.24,-210.96,0
1079,1079,20.38,20.45,-188.76,0
1080,1080,20.4,27.19,-178.63,0
1081,1081,20.41,35.33,-162.62,0
1082,1082,20.42,30.09,-133.51,0
1083,1083,20.44,17.12,-119.21,0
1084,1084,20.45,10.8,-122.99,0
1085,1085,20.46,11.03,-117.69,0
1086,1086,20.48,16.33,-102.53,0
1087,1087,20.49,28.68,-93.66,0
1088,1088,20.5,36.42,-89.46,0
1089,1089,20.52,32.52,-81.11,0
1090,1090,20.53,31.52,-69.33,0
1091,1091,20.54,39.18,-62.83,0
1092,1092,20.56,39.63,-61.9,0
1093,1093,20.57,24.51,-61.22,0
1094,1094,20.59,6.42,-60.3,0
1095,1095,20.6,-3.71,-53.96,0
1096,1096,20.61,-7.71,-38.72,0
1097,1097,20.63,-6.64,-23.29,0
1098,1098,20.64,-3.47,-14.04,0
1099,1099,20.65,-7.04,-11.01,0
1100,1100,20.67,-14.93,-12.0,0
1101,1101,20.68,-17.11,-12.78,0
1102,1102,20.69,-9.95,-10.17,0
1103,1103,20.71,4.48,-1.47,0
1104,1104,20.72,11.58,10.47,0
1105,1105,20.73,0.07,19.18,0
1106,1106,20.75,-14.27,26.75,0
1107,1107,20.76,-17.87,33.19,0
1108,1108,20.77,-19.2,27.91,0
1109,1109,20.79,-20.86,14.81,0
1110,1110,20.8,-15.34,13.86,0
1111,1111,20.81,-7.34,25.48,0
1112,1112,20.83,-5.07,31.2,0
1113,1113,20.84,-6.02,28.53,0
1114,1114,20.85,-9.02,31.27,0
1115,1115,20.87,-13.51,38.65,0
1116,1116,20.88,-9.78,39.4,0
1117,1117,20.89,1.36,38.58,0
1118,1118,20.9,3.78,43.95,0
1119,1119,20.92,-4.29,45.32,0
1120,1120,20.93,-7.23,38.91,0
1121,1121,20.94,-1.25,41.22,0
1122,1122,20.96,2.36,52.61,0
1123,1123,20.97,-2.84,52.19,0
1124,1124,20.98,-12.08,39.81,0
1125,1125,21.0,-14.84,33.96,0
1126,1126,21.01,-7.58,35.82,0
1127,1127,21.02,-1.37,38.88,0
1128,1128,21.04,-5.01,46.68,0
1129,1129,21.05,-10.43,54.41,0
1130,1130,21.06,-9.64,49.44,0
1131,1131,21.08,-7.64,38.12,0
1132,1132,21.09,-9.05,35.8,0
1133,1133,21.1,-6.07,38.81,0
1134,1134,21.12,5.43,36.34,0
1135,1135,21.13,8.81,30.91,0
1136,1136,21.14,-5.99,27.57,0
1137,1137,21.16,-17.38,24.59,0
1138,1138,21.17,-7.8,22.54,0
1139,1139,21.18,7.84,22.45,0
1140,1140,21.2,10.89,23.91,0
1141,1141,21.21,4.59,28.57,0
1142,1142,21.23,-0.6,31.16,0
1143,1143,21.24,-0.47,23.56,0
1144,1144,21.25,3.32,17.21,0
1145,1145,21.27,1.04,23.62,0
1146,1146,21.28,-8.76,28.85,0
1147,1147,21.29,-14.24,21.0,0
1148,1148,21.31,-14.41,8.69,0
1149,1149,21.32,-12.58,3.4,0
1150,1150,21.33,-3.44,4.46,0
1151,1151,21.35,6.37,4.6,0
1152,1152,21.36,4.49,2.33,0
1153,1153,21.37,-1.53,3.02,0
1154,1154,21.39,0.04,8.5,0
1155,1155,21.4,5.01,10.49,0
1156,1156,21.41,8.18,4.74,0
1157,1157,21.43,12.12,-0.34,0
1158,1158,21.44,10.2,-0.39,0
1159,1159,21.45,-1.18,4.37,0
1160,1160,21.47,-5.49,10.7,0
1161,1161,21.48,3.44,6.32,0
1162,1162,21.49,10.62,-5.07,0
1163,1163,21.51,8.18,-4.94,0
1164,1164,21.52,0.21,-1.09,0
1165,1165,21.53,-4.79,-8.6,0
1166,1166,21.54,-2.48,-12.71,0
1167,1167,21.56,0.76,-5.02,0
1168,1168,21.57,-0.53,-3.93,0
1169,1169,21.58,-1.69,-11.36,0
1170,1170,21.6,1.19,-11.9,0
1171,1171,21.61,0.6,-10.39,0
1172,1172,21.62,-6.96,-16.38,0
1173,1173,21.64,-7.91,-20.16,0
1174,1174,21.65,4.74,-15.45,0
1175,1175,21.67,14.75,-11.1,0
1176,1176,21.68,9.8,-14.18,0
1177,1177,21.69,0.49,-18.73,0
1178,1178,21.7,-3.35,-14.33,0
1179,1179,21.72,-6.82,-7.23,0
1180,1180,21.73,-7.3,-9.77,0
1181,1181,21.75,6.44,-11.65,0
1182,1182,21.76,22.94,-2.39,0
1183,1183,21.77,19.61,1.0,0
1184,1184,21.78,4.09,-9.32,0
1185,1185,21.8,-2.95,-14.83,0
1186,1186,21.81,-2.65,-12.77,0
1187,1187,21.82,-1.98,-16.2,0
1188,1188,21.84,-1.61,-19.27,0
1189,1189,21.85,-5.06,-14.08,0
1190,1190,21.87,-8.86,-10.56,0
1191,1191,21.88,-5.87,-15.73,0
1192,1192,21.89,-2.56,-22.15,0
1193,1193,21.91,-5.72,-20.64,0
1194,1194,21.92,-7.56,-12.18,0
1195,1195,21.93,-3.23,-5.86,0
1196,1196,21.95,0.91,-6.85,0
1197,1197,21.96,1.32,-10.07,0
1198,1198,21.97,-0.15,-9.0,0
1199,1199,21.99,1.79,-7.41,0
1200,1200,22.0,14.05,-9.23,0
1201,1201,22.01,26.51,-11.07,0
1202,1202,22.03,20.4,-14.9,0
1203,1203,22.04,1.73,-21.33,0
1204,1204,22.05,-10.93,-20.03,0
1205,1205,22.07,-11.21,-14.62,0
1206,1206,22.08,-1.47,-20.74,0
1207,1207,22.09,5.35,-32.46,0
1208,1208,22.11,-2.58,-33.76,0
1209,1209,22.12,-11.51,-23.34,0
1210,1210,22.13,-2.96,-9.13,0
1211,1211,22.15,12.27,-6.59,0
1212,1212,22.16,14.61,-34.74,0
1213,1213,22.17,6.57,-72.69,0
1214,1214,22.18,4.2,-52.82,0
1215,1215,22.2,16.52,41.79,0
1216,1216,22.21,29.56,154.11,0
1217,1217,22.22,22.21,199.37,0
1218,1218,22.24,-0.14,156.68,0
1219,1219,22.25,-17.68,166.3,0
1220,1220,22.26,-15.71,280.47,0
1221,1221,22.28,-0.78,304.83,0
1222,1222,22.29,9.42,105.75,0
1223,1223,22.3,29.1,-134.43,0
1224,1224,22.32,41.81,-76.96,0
1225,1225,22.33,1.18,184.17,0
1226,1226,22.34,-45.04,180.97,0
1227,1227,22.36,-42.02,19.68,0
1228,1228,22.37,-15.74,136.14,0
1229,1229,22.38,21.26,321.02,0
1230,1230,22.4,34.6,187.38,0
1231,1231,22.41,-28.85,-100.93,0
1232,1232,22.42,-87.84,-149.68,0
1233,1233,22.44,-32.24,54.35,0
1234,1234,22.45,41.75,136.81,0
1235,1235,22.46,-7.36,26.94,0
1236,1236,22.48,-80.2,7.52,0
1237,1237,22.49,-25.5,56.24,0
1238,1238,22.5,70.34,-21.12,0
1239,1239,22.52,64.8,-108.9,0
1240,1240,22.53,3.08,-75.79,0
1241,1241,22.55,-8.11,-83.06,0
1242,1242,22.56,11.1,-178.5,0
1243,1243,22.57,-7.43,-182.02,0
1244,1244,22.59,-30.63,-118.01,0
1245,1245,22.6,-3.31,-108.32,0
1246,1246,22.61,23.58,-83.36,0
1247,1247,22.63,9.23,-26.0,0
1248,1248,22.64,19.5,-45.96,0
1249,1249,22.65,41.28,-130.06,0
1250,1250,22.67,-17.86,-167.81,0
1251,1251,22.68,-68.21,-146.89,0
1252,1252,22.69,6.41,-151.87,0
1253,1253,22.71,62.29,-208.67,0
1254,1254,22.72,-1.43,-231.77,0
1255,1255,22.73,-16.26,-176.29,0
1256,1256,22.75,80.83,-165.32,0
1257,1257,22.76,122.56,-267.44,0
1258,1258,22.77,72.69,-280.59,0
1259,1259,22.79,35.39,-143.5,0
1260,1260,22.8,-10.58,-140.51,0
1261,1261,22.81,-88.91,-297.44,0
1262,1262,22.82,-99.08,-371.66,0
1263,1263,22.84,-30.49,-334.32,0
1264,1264,22.85,-13.76,-197.89,0
1265,1265,22.86,-76.61,13.13,0
1266,1266,22.88,-104.0,88.22,0
1267,1267,22.89,-65.68,-62.76,0
1268,1268,22.9,-18.51,-240.04,0
1269,1269,22.92,7.5,-231.21,0
1270,1270,22.93,-9.4,-107.85,0
1271,1271,22.94,-29.74,-89.04,0
1272,1272,22.96,2.14,-177.48,0
1273,1273,22.97,31.93,-215.23,0
1274,1274,22.98,14.57,-146.58,0
1275,1275,23.0,3.32,-61.36,0
1276,1276,23.01,14.37,-30.75,0
1277,1277,23.02,1.33,-37.24,0
1278,1278,23.04,0.07,-68.34,0
1279,1279,23.05,53.13,-58.97,0
1280,1280,23.06,60.78,26.47,0
1281,1281,23.08,-14.59,76.22,0
1282,1282,23.09,-56.94,47.21,0
1283,1283,23.1,-38.59,36.45,0
1284,1284,23.12,-18.69,104.89,0
1285,1285,23.13,-10.13,160.49,0
1286,1286,23.14,-15.62,116.54,0
1287,1287,23.16,-9.75,85.42,0
1288,1288,23.17,33.51,136.45,0
1289,1289,23.19,45.38,199.21,0
1290,1290,23.2,-7.65,236.5,0
1291,1291,23.21,-41.3,187.03,0
1292,1292,23.23,-5.94,69.8,0
1293,1293,23.24,50.13,66.24,0
1294,1294,23.25,59.02,195.64,0
1295,1295,23.27,9.1,268.79,0
1296,1296,23.28,-40.5,224.1,0
1297,1297,23.29,-29.44,179.52,0
1298,1298,23.31,22.52,196.71,0
1299,1299,23.32,28.34,213.03,0
1300,1300,23.33,-30.47,176.0,0
1301,1301,23.35,-56.36,115.07,0
1302,1302,23.36,-4.86,78.51,0
1303,1303,23.37,40.07,87.22,0
1304,1304,23.39,20.78,137.13,0
1305,1305,23.4,-17.0,163.64,0
1306,1306,23.41,-26.3,114.6,0
1307,1307,23.43,-11.28,56.89,0
1308,1308,23.44,21.47,61.66,0
1309,1309,23.45,55.29,88.33,0
1310,1310,23.46,41.95,78.37,0
1311,1311,23.48,-5.8,76.33,0
1312,1312,23.49,-13.8,114.23,0
1313,1313,23.5,10.94,133.75,0
1314,1314,23.52,5.62,137.11,0
1315,1315,23.53,-24.8,95.52,0
1316,1316,23.54,-25.42,-33.36,0
1317,1317,23.56,16.83,-51.41,0
1318,1318,23.57,47.09,116.29,0
1319,1319,23.58,20.48,174.69,0
1320,1320,23.6,-21.77,77.71,0
1321,1321,23.61,-25.62,79.82,0
1322,1322,23.62,-19.86,127.62,0
1323,1323,23.64,-28.81,82.69,0
1324,1324,23.65,-15.6,60.38,0
1325,1325,23.67,29.71,103.53,0
1326,1326,23.68,66.67,124.96,0
1327,1327,23.69,56.01,99.2,0
1328,1328,23.7,20.54,71.56,0
1329,1329,23.72,18.0,76.58,0
1330,1330,23.73,43.6,60.05,0
1331,1331,23.75,50.96,22.57,0
1332,1332,23.76,24.45,24.84,0
1333,1333,23.77,-7.17,-2.72,0
1334,1334,23.78,-6.84,-66.71,0
1335,1335,23.8,7.47,-70.19,0
1336,1336,23.81,4.95,-43.96,0
1337,1337,23.83,-0.6,2.32,0
1338,1338,23.84,-17.64,80.55,0
1339,1339,23.85,-56.27,85.02,0
1340,1340,23.87,-64.56,31.46,0
1341,1341,23.88,-22.08,26.11,0
1342,1342,23.89,16.2,42.09,0
1343,1343,23.91,9.09,57.01,0
1344,1344,23.92,-21.38,74.66,0
1345,1345,23.93,-34.47,35.29,0
1346,1346,23.95,-17.1,-26.43,0
1347,1347,23.96,29.95,-18.09,0
1348,1348,23.97,66.86,-1.1,0
1349,1349,23.99,38.61,-36.38,0
1350,1350,24.0,-22.53,-57.07,0
1351,1351,24.01,-42.16,-66.57,0
1352,1352,24.03,-13.59,-118.37,0
1353,1353,24.04,13.6,-155.63,0
1354,1354,24.05,13.4,-104.5,0
1355,1355,24.07,5.38,11.24,0
1356,1356,24.08,-3.91,102.6,0
1357,1357,24.09,-21.82,78.38,0
1358,1358,24.1,-21.11,-62.14,0
1359,1359,24.12,10.09,-190.83,0
1360,1360,24.13,32.81,-184.74,0
1361,1361,24.14,17.28,-67.05,0
1362,1362,24.16,-17.18,18.59,0
1363,1363,24.17,-18.36,6.25,0
1364,1364,24.18,22.33,-14.34,0
1365,1365,24.2,38.93,-9.4,0
1366,1366,24.21,9.82,-42.22,0
1367,1367,24.22,-0.29,-78.56,0
1368,1368,24.24,16.86,-49.29,0
1369,1369,24.25,3.69,-12.84,0
1370,1370,24.26,-22.82,-28.71,0
1371,1371,24.28,-13.49,-46.44,0
1372,1372,24.29,-1.51,-32.08,0
1373,1373,24.3,-23.64,-27.35,0
1374,1374,24.32,-42.87,-60.57,0
1375,1375,24.33,-30.52,-113.66,0
1376,1376,24.34,-10.0,-184.02,0
1377,1377,24.36,1.96,-294.34,0
1378,1378,24.37,11.13,-418.26,0
1379,1379,24.38,17.02,-481.12,0
1380,1380,24.4,15.73,-453.55,0
1381,1381,24.41,8.21,-374.04,0
1382,1382,24.42,1.46,-278.94,0
1383,1383,24.44,-0.71,-173.89,0
1384,1384,24.45,-8.3,-69.91,0
1385,1385,24.465,-20.37,8.09,0
1386,1386,24.48,-19.1,56.15,0
1387,1387,24.49,-7.08,89.83,0
1388,1388,24.51,-4.73,115.04,0
1389,1389,24.52,-13.92,126.37,0
1390,1390,24.53,-16.92,124.95,0
1391,1391,24.55,-7.49,123.84,0
1392,1392,24.56,-5.27,132.18,0
1393,1393,24.57,-18.86,138.23,0
1394,1394,24.59,-24.44,129.53,0
1395,1395,24.6,-11.87,116.67,0
1396,1396,24.61,-1.94,113.8,0
1397,1397,24.63,-5.94,116.96,0
1398,1398,24.64,-12.87,112.69,0
1399,1399,24.65,-13.79,94.82,0
1400,1400,24.67,-9.62,75.79,0
1401,1401,24.68,-1.93,73.28,0
1402,1402,24.69,4.9,82.18,0
1403,1403,24.71,3.79,83.73,0
1404,1404,24.72,-1.73,74.77,0
1405,1405,24.73,0.48,64.91,0
1406,1406,24.75,10.69,60.83,0
1407,1407,24.76,14.41,61.81,0
1408,1408,24.77,7.34,60.57,0
1409,1409,24.78,1.65,55.84,0
1410,1410,24.8,-0.92,57.57,0
1411,1411,24.81,-9.54,61.23,0
1412,1412,24.82,-12.97,49.17,0
1413,1413,24.84,-0.46,29.4,0
1414,1414,24.85,9.6,23.13,0
1415,1415,24.86,9.31,25.95,0
1416,1416,24.88,10.98,23.95,0
1417,1417,24.89,4.14,17.16,0
1418,1418,24.9,-32.5,9.08,0
1419,1419,24.92,-73.58,4.52,0
1420,1420,24.93,-64.34,5.92,0
1421,1421,24.94,-10.7,2.22,0
1422,1422,24.96,26.0,-9.01,0
1423,1423,24.97,25.58,-13.28,0
1424,1424,24.98,23.11,-4.28,0
1425,1425,25.0,31.61,8.58,0
1426,1426,25.01,17.04,7.49,0
1427,1427,25.02,-11.23,-12.26,0
1428,1428,25.04,12.5,-27.72,0
1429,1429,25.05,70.55,-19.95,0
1430,1430,25.06,75.39,-5.56,0
1431,1431,25.08,29.75,-7.8,0
1432,1432,25.09,2.78,-19.32,0
1433,1433,25.1,8.19,-22.77,0
1434,1434,25.12,14.42,-21.32,0
1435,1435,25.13,9.49,-26.58,0
1436,1436,25.15,6.08,-33.82,0
1437,1437,25.16,7.89,-32.2,0
1438,1438,25.17,4.06,-23.1,0
1439,1439,25.19,-5.72,-12.67,0
1440,1440,25.2,-9.19,-11.61,0
1441,1441,25.21,-4.25,-26.28,0
1442,1442,25.23,0.66,-36.02,0
1443,1443,25.24,3.18,-26.93,0
1444,1444,25.25,3.73,-21.34,0
1445,1445,25.27,-0.26,-26.67,0
1446,1446,25.28,-4.7,-24.62,0
1447,1447,25.29,-3.25,-19.11,0
1448,1448,25.31,0.39,-25.72,0
1449,1449,25.32,0.7,-36.17,0
1450,1450,25.33,1.36,-35.86,0
1451,1451,25.35,1.82,-29.19,0
1452,1452,25.36,-6.98,-25.6,0
1453,1453,25.37,-19.6,-23.29,0
1454,1454,25.38,-16.86,-22.81,0
1455,1455,25.4,1.32,-28.02,0
1456,1456,25.41,12.04,-33.85,0
1457,1457,25.42,7.85,-33.22,0
1458,1458,25.44,4.67,-28.8,0
1459,1459,25.45,6.62,-27.27,0
1460,1460,25.46,7.56,-25.1,0
1461,1461,25.48,10.93,-17.14,0
1462,1462,25.49,14.95,-14.33,0
1463,1463,25.5,7.86,-23.58,0
1464,1464,25.52,-11.41,-31.74,0
1465,1465,25.53,-22.72,-27.97,0
1466,1466,25.54,-11.33,-19.53,0
1467,1467,25.56,1.17,-18.12,0
1468,1468,25.57,-4.47,-20.4,0
1469,1469,25.58,-7.68,-17.56,0
1470,1470,25.6,4.54,-15.48,0
1471,1471,25.61,10.25,-20.05,0
1472,1472,25.62,0.7,-21.16,0
1473,1473,25.64,-4.71,-8.53,0
1474,1474,25.65,1.4,7.0,0
1475,1475,25.67,5.94,4.3,0
1476,1476,25.68,0.02,-12.18,0
1477,1477,25.69,-10.72,-18.23,0
1478,1478,25.7,-12.46,-10.47,0
1479,1479,25.72,-4.49,-1.88,0
1480,1480,25.73,-3.01,1.87,0
1481,1481,25.75,-9.79,1.07,0
1482,1482,25.76,-9.47,-0.53,0
1483,1483,25.77,-3.33,-1.95,0
1484,1484,25.79,-2.81,-5.95,0
1485,1485,25.8,-2.8,-6.83,0
1486,1486,25.81,2.02,-0.07,0
1487,1487,25.83,4.35,3.77,0
1488,1488,25.84,1.85,-0.67,0
1489,1489,25.85,-4.26,0.37,0
1490,1490,25.87,-13.68,11.87,0
1491,1491,25.88,-18.88,18.99,0
1492,1492,25.89,-11.16,12.19,0
1493,1493,25.91,3.3,0.43,0
1494,1494,25.92,8.82,-0.75,0
1495,1495,25.93,7.4,5.1,0
1496,1496,25.95,9.35,0.32,0
1497,1497,25.96,6.01,-9.63,0
1498,1498,25.97,-6.43,-4.97,0
1499,1499,25.99,-7.66,12.39,0
1500,1500,26.0,10.66,23.0,0
1501,1501,26.01,21.62,19.21,0
1502,1502,26.02,5.21,14.1,0
1503,1503,26.04,-16.53,14.9,0
1504,1504,26.05,-16.69,15.85,0
1505,1505,26.06,-3.54,17.08,0
1506,1506,26.08,4.81,18.77,0
1507,1507,26.09,6.18,17.92,0
1508,1508,26.1,4.02,16.38,0
1509,1509,26.12,1.49,12.9,0
1510,1510,26.13,-1.47,7.71,0
1511,1511,26.14,-2.93,8.64,0
1512,1512,26.16,3.09,15.55,0
1513,1513,26.17,3.93,16.69,0
1514,1514,26.18,-14.51,7.73,0
1515,1515,26.2,-28.8,-1.76,0
1516,1516,26.21,-14.89,-2.16,0
1517,1517,26.22,7.88,4.54,0
1518,1518,26.24,12.46,10.04,0
1519,1519,26.25,5.32,1.27,0
1520,1520,26.26,3.2,-39.74,0
1521,1521,26.28,9.05,-103.9,0
1522,1522,26.29,20.64,-153.45,0
1523,1523,26.3,33.84,-177.66,0
1524,1524,26.32,39.1,-186.76,0
1525,1525,26.33,23.7,-173.45,0
1526,1526,26.34,-0.36,-138.21,0
1527,1527,26.36,4.94,-101.59,0
1528,1528,26.37,30.78,-75.93,0
1529,1529,26.38,25.91,-54.44,0
1530,1530,26.4,-10.33,-22.16,0
1531,1531,26.41,-34.88,20.25,0
1532,1532,26.43,-32.98,54.61,0
1533,1533,26.44,-33.12,72.42,0
1534,1534,26.45,-64.95,87.67,0
1535,1535,26.47,-85.07,118.1,0
1536,1536,26.48,-43.32,153.71,0
1537,1537,26.49,-3.53,166.56,0
1538,1538,26.51,-10.83,159.02,0
1539,1539,26.52,-6.82,160.31,0
1540,1540,26.53,18.79,177.77,0
1541,1541,26.55,14.9,191.41,0
1542,1542,26.56,-12.18,188.66,0
1543,1543,26.57,-11.9,179.29,0
1544,1544,26.59,14.57,170.01,0
1545,1545,26.6,22.14,149.26,0
1546,1546,26.61,1.73,125.29,0
1547,1547,26.63,-12.57,122.97,0
1548,1548,26.64,-4.84,127.03,0
1549,1549,26.65,4.29,110.13,0
1550,1550,26.67,6.44,88.98,0
1551,1551,26.68,11.26,80.09,0
1552,1552,26.69,15.51,67.6,0
1553,1553,26.7,16.04,52.01,0
1554,1554,26.72,17.03,47.65,0
1555,1555,26.73,13.58,39.61,0
1556,1556,26.75,4.74,17.42,0
1557,1557,26.76,0.54,7.87,0
1558,1558,26.77,2.35,18.01,0
1559,1559,26.78,2.44,15.22,0
1560,1560,26.8,1.14,-6.72,0
1561,1561,26.81,1.64,-19.94,0
1562,1562,26.82,1.49,-18.2,0
1563,1563,26.84,1.94,-19.58,0
1564,1564,26.85,5.52,-28.78,0
1565,1565,26.86,9.61,-32.78,0
1566,1566,26.88,13.81,-25.05,0
1567,1567,26.89,15.08,-19.38,0
1568,1568,26.9,6.4,-29.38,0
1569,1569,26.92,-5.67,-42.73,0
1570,1570,26.93,-7.74,-45.35,0
1571,1571,26.94,-1.52,-44.69,0
1572,1572,26.96,-0.7,-45.49,0
1573,1573,26.97,-7.34,-44.19,0
1574,1574,26.98,-8.27,-45.49,0
1575,1575,27.0,0.03,-50.25,0
1576,1576,27.01,6.89,-52.29,0
1577,1577,27.02,6.44,-53.7,0
1578,1578,27.04,3.8,-56.04,0
1579,1579,27.05,2.98,-55.94,0
1580,1580,27.065,-0.09,-57.65,0
1581,1581,27.08,-5.39,-61.6,0
1582,1582,27.09,-5.76,-59.34,0
1583,1583,27.11,-0.61,-54.97,0
1584,1584,27.12,4.97,-57.81,0
1585,1585,27.13,6.06,-62.12,0
1586,1586,27.15,-0.83,-57.86,0
1587,1587,27.16,-7.31,-49.93,0
1588,1588,27.17,-0.28,-51.99,0
1589,1589,27.19,10.17,-60.78,0
1590,1590,27.2,6.59,-60.05,0
1591,1591,27.21,-2.86,-51.59,0
1592,1592,27.23,-3.77,-48.41,0
1593,1593,27.24,0.61,-51.64,0
1594,1594,27.25,2.98,-52.46,0
1595,1595,27.27,5.42,-45.15,0
1596,1596,27.28,11.32,-37.21,0
1597,1597,27.29,12.01,-39.44,0
1598,1598,27.3,2.22,-44.16,0
1599,1599,27.32,-4.55,-39.14,0
1600,1600,27.33,-2.07,-33.21,0
1601,1601,27.34,1.89,-36.06,0
1602,1602,27.36,6.23,-37.34,0
1603,1603,27.37,7.08,-31.29,0
1604,1604,27.38,1.02,-29.87,0
1605,1605,27.4,2.58,-35.43,0
1606,1606,27.41,10.84,-33.85,0
1607,1607,27.42,0.95,-23.28,0
1608,1608,27.44,-20.29,-16.46,0
1609,1609,27.45,-20.1,-16.07,0
1610,1610,27.46,-2.56,-17.46,0
1611,1611,27.48,3.1,-20.73,0
1612,1612,27.49,-3.83,-23.03,0
1613,1613,27.5,-7.82,-18.65,0
1614,1614,27.52,-8.49,-7.8,0
1615,1615,27.53,-9.58,0.93,0
1616,1616,27.54,-5.76,-3.96,0
1617,1617,27.56,4.24,-18.76,0
1618,1618,27.57,8.61,-20.64,0
1619,1619,27.58,3.34,-4.71,0
1620,1620,27.6,1.91,6.92,0
1621,1621,27.61,8.08,6.08,0
1622,1622,27.62,9.11,7.2,0
1623,1623,27.64,0.47,10.33,0
1624,1624,27.65,-8.76,4.84,0
1625,1625,27.67,-9.12,0.08,0
1626,1626,27.68,-0.89,4.96,0
1627,1627,27.69,2.43,8.57,0
1628,1628,27.7,-6.01,9.75,0
1629,1629,27.72,-7.34,15.91,0
1630,1630,27.73,7.76,18.59,0
1631,1631,27.75,16.76,12.37,0
1632,1632,27.76,6.8,4.86,0
1633,1633,27.77,-4.28,0.81,0
1634,1634,27.79,-3.16,4.16,0
1635,1635,27.8,2.58,16.92,0
1636,1636,27.81,4.64,28.2,0
1637,1637,27.83,-1.49,27.27,0
1638,1638,27.84,-10.4,19.6,0
1639,1639,27.85,-7.21,14.05,0
1640,1640,27.87,1.74,9.4,0
1641,1641,27.88,1.01,2.79,0
1642,1642,27.89,-2.08,-1.58,0
1643,1643,27.91,-2.63,2.18,0
1644,1644,27.92,-8.29,12.48,0
1645,1645,27.93,-12.91,21.05,0
1646,1646,27.94,-5.68,21.99,0
1647,1647,27.96,7.08,18.38,0
1648,1648,27.97,10.38,16.12,0
1649,1649,27.98,4.57,16.21,0
1650,1650,28.0,0.98,15.99,0
1651,1651,28.01,-0.09,13.12,0
1652,1652,28.02,0.43,9.31,0
1653,1653,28.04,10.13,11.84,0
1654,1654,28.05,20.13,22.26,0
1655,1655,28.06,15.23,27.6,0
1656,1656,28.08,5.33,19.14,0
1657,1657,28.09,1.75,12.1,0
1658,1658,28.1,-2.09,20.54,0
1659,1659,28.12,-7.28,31.25,0
1660,1660,28.13,-8.11,28.76,0
1661,1661,28.14,-3.81,19.5,0
1662,1662,28.16,4.99,15.54,0
1663,1663,28.17,8.26,21.9,0
1664,1664,28.18,-2.71,47.88,0
1665,1665,28.2,-9.46,107.4,0
1666,1666,28.21,0.2,198.55,0
1667,1667,28.22,2.29,290.39,0
1668,1668,28.24,-15.2,333.4,0
1669,1669,28.25,-29.03,292.18,0
1670,1670,28.26,-28.13,209.42,0
1671,1671,28.28,-25.43,168.45,0
1672,1672,28.29,-27.21,142.23,0
1673,1673,28.3,-28.17,53.52,0
1674,1674,28.32,-22.42,-57.91,0
1675,1675,28.33,-8.75,-125.26,0
1676,1676,28.34,5.14,-165.69,0
1677,1677,28.36,10.41,-195.96,0
1678,1678,28.37,7.44,-196.6,0
1679,1679,28.39,3.24,-173.21,0
1680,1680,28.4,4.56,-154.09,0
1681,1681,28.41,8.59,-148.82,0
1682,1682,28.43,7.35,-146.82,0
1683,1683,28.44,5.88,-137.79,0
1684,1684,28.45,9.99,-121.04,0
1685,1685,28.47,11.35,-102.57,0
1686,1686,28.48,6.41,-90.26,0
1687,1687,28.49,5.29,-89.2,0
1688,1688,28.51,13.38,-94.21,0
1689,1689,28.52,22.43,-91.28,0
1690,1690,28.53,22.59,-77.37,0
1691,1691,28.55,14.89,-64.97,0
1692,1692,28.56,9.75,-61.8,0
1693,1693,28.57,10.57,-61.81,0
1694,1694,28.58,6.18,-59.9,0
1695,1695,28.6,-2.15,-56.57,0
1696,1696,28.61,2.44,-44.28,0
1697,1697,28.62,13.14,-25.44,0
1698,1698,28.64,10.82,-19.95,0
1699,1699,28.65,3.38,-24.84,0
1700,1700,28.67,4.03,-20.66,0
1701,1701,28.68,2.96,-9.6,0
1702,1702,28.69,-8.08,-0.37,0
1703,1703,28.7,-14.98,7.64,0
1704,1704,28.72,-9.4,11.65,0
1705,1705,28.73,-2.94,8.88,0
1706,1706,28.75,-1.11,7.19,0
1707,1707,28.76,0.01,13.5,0
1708,1708,28.77,-2.12,22.53,0
1709,1709,28.78,-4.71,25.28,0
1710,1710,28.8,-0.82,24.43,0
1711,1711,28.81,3.65,27.41,0
1712,1712,28.82,3.41,31.06,0
1713,1713,28.84,1.68,33.33,0
1714,1714,28.85,-2.01,37.69,0
1715,1715,28.86,-6.83,35.85,0
1716,1716,28.88,-8.58,21.87,0
1717,1717,28.89,-7.46,15.57,0
1718,1718,28.9,-4.26,29.69,0
1719,1719,28.92,0.67,42.94,0
1720,1720,28.93,2.68,42.59,0
1721,1721,28.94,1.36,42.49,0
1722,1722,28.96,1.82,43.63,0
1723,1723,28.97,2.95,36.91,0
1724,1724,28.98,1.22,29.54,0
1725,1725,29.0,-2.6,32.82,0
1726,1726,29.01,-9.68,44.01,0
1727,1727,29.03,-17.25,46.28,0
1728,1728,29.04,-11.87,34.92,0
1729,1729,29.05,8.03,28.33,0
1730,1730,29.07,20.71,32.57,0
1731,1731,29.08,14.27,32.63,0
1732,1732,29.09,-0.24,25.25,0
1733,1733,29.11,-10.59,19.58,0
1734,1734,29.12,-10.1,20.81,0
1735,1735,29.13,-4.33,29.77,0
1736,1736,29.15,-4.19,40.5,0
1737,1737,29.16,-1.31,44.24,0
1738,1738,29.17,12.34,39.54,0
1739,1739,29.19,17.92,28.78,0
1740,1740,29.2,5.33,14.15,0
1741,1741,29.21,-4.7,0.82,0
1742,1742,29.22,-7.76,-1.33,0
1743,1743,29.24,-20.45,10.6,0
1744,1744,29.25,-22.7,21.2,0
1745,1745,29.26,8.23,17.44,0
1746,1746,29.28,33.23,6.17,0
1747,1747,29.29,16.47,3.21,0
1748,1748,29.3,-11.41,12.36,0
1749,1749,29.32,-15.97,19.43,0
1750,1750,29.33,-10.3,13.87,0
1751,1751,29.34,-8.03,3.18,0
1752,1752,29.36,2.86,-1.0,0
1753,1753,29.37,16.1,6.26,0
1754,1754,29.38,9.1,19.72,0
1755,1755,29.4,-7.3,26.55,0
1756,1756,29.41,-11.4,22.47,0
1757,1757,29.42,-15.35,16.28,0
1758,1758,29.44,-24.66,12.1,0
1759,1759,29.45,-11.45,7.09,0
1760,1760,29.46,22.78,0.82,0
1761,1761,29.48,34.08,-5.83,0
1762,1762,29.49,15.59,-10.42,0
1763,1763,29.5,4.06,-7.41,0
1764,1764,29.52,4.83,2.64,0
1765,1765,29.53,-3.77,9.82,0
1766,1766,29.54,-16.28,5.7,0
1767,1767,29.56,-15.57,-3.02,0
1768,1768,29.57,-7.2,-4.32,0
1769,1769,29.58,-3.01,-3.83,0
1770,1770,29.6,-2.98,-11.79,0
1771,1771,29.61,-5.25,-17.19,0
1772,1772,29.62,-6.45,-10.38,0
1773,1773,29.64,-0.91,-4.33,0
1774,1774,29.65,4.62,-7.62,0
1775,1775,29.67,1.35,-12.01,0
1776,1776,29.68,-2.71,-10.44,0
1777,1777,29.69,0.84,-3.52,0
1778,1778,29.71,7.65,0.0,0
1779,1779,29.72,10.99,-6.77,0
1780,1780,29.73,11.4,-14.97,0
1781,1781,29.75,11.21,-16.31,0
1782,1782,29.76,8.19,-13.4,0
1783,1783,29.77,3.35,-8.76,0
1784,1784,29.79,1.02,-5.08,0
1785,1785,29.8,-0.58,-5.49,0
1786,1786,29.81,0.43,-7.42,0
1787,1787,29.83,4.94,-8.58,0
1788,1788,29.84,-1.51,-11.38,0
1789,1789,29.85,-18.57,-14.38,0
1790,1790,29.86,-19.16,-14.7,0
1791,1791,29.88,-1.4,-14.96,0
1792,1792,29.89,5.7,-15.05,0
1793,1793,29.9,-4.43,-11.6,0
1794,1794,29.92,-12.05,-6.59,0
1795,1795,29.93,-10.8,-6.71,0
1796,1796,29.94,-8.12,-14.73,0
1797,1797,29.96,-6.05,-19.2,0
1798,1798,29.97,-2.55,-12.1,0
1799,1799,29.98,3.58,-7.89,0
1800,1800,30.0,8.53,-13.31,0
1801,1801,30.01,6.9,-17.39,0
1802,1802,30.02,5.43,-20.99,0
1803,1803,30.04,8.44,-23.93,0
1804,1804,30.05,4.75,-18.73,0
1805,1805,30.06,-4.65,-10.99,0
1806,1806,30.08,-1.57,-5.64,0
1807,1807,30.09,13.17,-3.49,0
1808,1808,30.1,19.15,-8.66,0
1809,1809,30.12,8.89,-15.82,0
1810,1810,30.13,-6.64,-17.47,0
1811,1811,30.14,-14.36,-16.47,0
1812,1812,30.16,-7.89,-15.3,0
1813,1813,30.17,4.24,2.5,0
1814,1814,30.18,7.31,55.92,0
1815,1815,30.2,14.98,119.59,0
1816,1816,30.21,42.46,174.86,0
1817,1817,30.22,60.96,193.26,0
1818,1818,30.24,49.35,90.12,0
1819,1819,30.25,22.66,-37.13,0
1820,1820,30.26,-3.87,-22.13,0
1821,1821,30.28,-11.77,22.98,0
1822,1822,30.29,12.84,29.98,0
1823,1823,30.3,47.43,139.47,0
1824,1824,30.32,44.28,265.35,0
1825,1825,30.33,-15.42,181.78,0
1826,1826,30.35,-70.35,63.9,0
1827,1827,30.36,-43.25,188.33,0
1828,1828,30.37,15.34,329.15,0
1829,1829,30.39,-6.4,240.48,0
1830,1830,30.4,-60.36,116.46,0
1831,1831,30.41,-23.84,107.72,0
1832,1832,30.43,32.75,64.5,0
1833,1833,30.44,-8.63,-99.17,0
1834,1834,30.45,-64.86,-178.14,0
1835,1835,30.47,-54.06,-57.66,0
1836,1836,30.48,-31.84,-8.53,0
1837,1837,30.49,-17.44,-181.19,0
1838,1838,30.5,11.96,-327.6,0
1839,1839,30.52,16.22,-291.38,0
1840,1840,30.53,-37.65,-212.19,0
1841,1841,30.54,-81.8,-195.07,0
1842,1842,30.56,-38.3,-192.12,0
1843,1843,30.57,42.34,-200.9,0
1844,1844,30.58,42.0,-203.23,0
1845,1845,30.6,-20.84,-128.77,0
1846,1846,30.61,-27.35,-89.63,0
1847,1847,30.62,-1.23,-144.59,0
1848,1848,30.64,-23.16,-144.56,0
1849,1849,30.65,-41.1,-121.48,0
1850,1850,30.67,-10.6,-166.85,0
1851,1851,30.68,8.92,-185.84,0
1852,1852,30.69,-22.18,-177.93,0
1853,1853,30.7,-56.5,-204.35,0
1854,1854,30.72,-34.18,-184.55,0
1855,1855,30.73,23.9,-88.47,0
1856,1856,30.75,49.47,-33.46,0
1857,1857,30.76,26.86,-98.89,0
1858,1858,30.77,1.08,-177.61,0
1859,1859,30.78,3.86,-121.23,0
1860,1860,30.8,14.84,-13.34,0
1861,1861,30.81,10.65,-24.95,0
1862,1862,30.82,9.22,-100.04,0
1863,1863,30.84,17.22,-99.96,0
1864,1864,30.85,5.48,-56.99,0
1865,1865,30.86,-13.29,-25.55,0
1866,1866,30.88,-0.83,25.28,0
1867,1867,30.89,24.81,50.07,0
1868,1868,30.9,29.31,-1.46,0
1869,1869,30.92,16.59,-47.62,0
1870,1870,30.93,7.82,-17.94,0
1871,1871,30.94,9.81,46.52,0
1872,1872,30.96,9.09,50.45,0
1873,1873,30.97,0.85,-15.45,0
1874,1874,30.99,-6.82,-32.09,0
1875,1875,31.0,-9.07,22.34,0
1876,1876,31.01,-0.04,43.22,0
1877,1877,31.03,5.0,41.07,0
1878,1878,31.04,-4.29,65.23,0
1879,1879,31.05,6.41,49.41,0
1880,1880,31.07,37.08,-5.27,0
1881,1881,31.08,40.24,6.46,0
1882,1882,31.09,17.71,84.51,0
1883,1883,31.11,9.77,121.86,0
1884,1884,31.12,14.81,63.32,0
1885,1885,31.13,7.57,-9.35,0
1886,1886,31.14,-2.21,24.58,0
1887,1887,31.16,1.38,106.07,0
1888,1888,31.17,11.64,94.72,0
1889,1889,31.18,15.5,73.78,0
1890,1890,31.2,12.09,121.01,0
1891,1891,31.21,23.83,94.48,0
1892,1892,31.22,33.91,24.57,0
1893,1893,31.24,2.57,63.72,0
1894,1894,31.25,-19.82,108.73,0
1895,1895,31.26,14.57,67.1,0
1896,1896,31.28,35.92,51.13,0
1897,1897,31.29,-0.02,109.9,0
1898,1898,31.3,-29.04,145.78,0
1899,1899,31.32,-14.81,89.57,0
1900,1900,31.33,3.52,22.72,0
1901,1901,31.34,5.65,48.97,0
1902,1902,31.36,8.83,117.62,0
1903,1903,31.37,12.52,122.33,0
1904,1904,31.38,6.04,76.68,0
1905,1905,31.4,4.57,70.45,0
1906,1906,31.41,11.35,104.38,0
1907,1907,31.42,1.22,84.78,0
1908,1908,31.44,-13.95,31.75,0
1909,1909,31.45,2.37,53.37,0
1910,1910,31.46,34.37,92.04,0
1911,1911,31.48,30.46,75.79,0
1912,1912,31.49,-9.08,83.7,0
1913,1913,31.5,-19.19,94.37,0
1914,1914,31.52,16.38,42.83,0
1915,1915,31.53,32.7,32.07,0
1916,1916,31.54,13.09,94.1,0
1917,1917,31.56,10.94,109.9,0
1918,1918,31.57,24.77,56.65,0
1919,1919,31.58,5.38,0.4,0
1920,1920,31.6,-27.2,8.65,0
1921,1921,31.61,-22.36,93.23,0
1922,1922,31.63,-9.73,132.25,0
1923,1923,31.64,-24.62,69.64,0
1924,1924,31.65,-23.73,15.09,0
1925,1925,31.67,4.61,-6.38,0
1926,1926,31.68,9.74,-40.06,0
1927,1927,31.69,-14.91,-26.29,0
1928,1928,31.71,-31.84,51.23,0
1929,1929,31.72,-19.32,81.97,0
1930,1930,31.73,9.35,37.53,0
1931,1931,31.75,23.19,10.92,0
1932,1932,31.76,4.97,37.11,0
1933,1933,31.77,-36.76,45.33,0
1934,1934,31.78,-64.78,-0.96,0
1935,1935,31.8,-54.47,-27.89,0
1936,1936,31.81,-29.42,-0.93,0
1937,1937,31.82,-14.4,4.44,0
1938,1938,31.84,-4.1,-33.4,0
1939,1939,31.85,-3.13,-40.02,0
1940,1940,31.86,-29.13,-4.37,0
1941,1941,31.88,-57.09,-9.96,0
1942,1942,31.89,-44.5,-41.36,0
1943,1943,31.9,-0.32,-11.45,0
1944,1944,31.92,35.2,6.76,0
1945,1945,31.93,32.26,-63.01,0
1946,1946,31.94,-11.15,-92.16,0
1947,1947,31.96,-44.27,-22.97,0
1948,1948,31.97,-25.68,-4.45,0
1949,1949,31.98,1.02,-62.19,0
1950,1950,32.0,-3.42,-56.32,0
1951,1951,32.01,-8.3,-1.79,0
1952,1952,32.03,1.41,-0.89,0
1953,1953,32.04,4.92,-32.99,0
1954,1954,32.05,6.96,-60.15,0
1955,1955,32.06,19.81,-55.23,0
1956,1956,32.08,18.45,-1.53,0
1957,1957,32.09,-2.31,18.8,0
1958,1958,32.11,-2.99,-25.98,0
1959,1959,32.12,12.85,-59.98,0
1960,1960,32.13,17.0,-67.38,0
1961,1961,32.15,18.81,-63.07,0
1962,1962,32.16,5.55,-38.25,0
1963,1963,32.17,-17.11,-15.94,0
1964,1964,32.19,14.6,2.84,0
1965,1965,32.2,54.44,32.01,0
1966,1966,32.21,14.84,26.67,0
1967,1967,32.22,-27.14,-27.74,0
1968,1968,32.24,0.44,-78.38,0
1969,1969,32.25,32.17,-115.7,0
1970,1970,32.27,23.84,-179.08,0
1971,1971,32.28,6.29,-254.7,0
1972,1972,32.29,-2.86,-273.93,0
1973,1973,32.31,-16.23,-225.04,0
1974,1974,32.32,-26.37,-163.87,0
1975,1975,32.33,-8.91,-123.26,0
1976,1976,32.35,26.06,-94.12,0
1977,1977,32.36,36.7,-54.53,0
1978,1978,32.37,10.35,0.67,0
1979,1979,32.39,-13.27,48.8,0
1980,1980,32.4,-5.7,74.74,0
1981,1981,32.41,9.04,85.35,0
1982,1982,32.43,7.61,87.11,0
1983,1983,32.44,2.14,83.61,0
1984,1984,32.45,4.27,83.94,0
1985,1985,32.47,4.76,95.58,0
1986,1986,32.48,-4.01,109.58,0
1987,1987,32.49,-13.7,108.1,0
1988,1988,32.51,-10.38,90.73,0
1989,1989,32.52,2.42,69.14,0
1990,1990,32.53,6.88,50.69,0
1991,1991,32.54,4.7,42.41,0
1992,1992,32.56,10.01,46.01,0
1993,1993,32.57,15.08,51.58,0
1994,1994,32.59,8.09,51.84,0
1995,1995,32.6,2.37,50.47,0
1996,1996,32.61,9.19,45.65,0
1997,1997,32.63,12.91,32.83,0
1998,1998,32.64,-1.63,25.28,0
1999,1999,32.65,-18.91,30.22,0
2000,2000,32.67,-12.06,29.59,0
2001,2001,32.68,9.47,16.9,0
2002,2002,32.69,12.32,11.16,0
2003,2003,32.71,0.42,17.1,0
2004,2004,32.72,-1.6,17.51,0
2005,2005,32.73,1.76,12.33,0
2006,2006,32.75,-0.67,16.54,0
2007,2007,32.76,-9.24,21.35,0
2008,2008,32.77,-20.25,13.84,0
2009,2009,32.79,-21.89,7.57,0
2010,2010,32.8,-13.76,7.33,0
2011,2011,32.81,-9.79,1.86,0
2012,2012,32.83,-8.73,-2.53,0
2013,2013,32.84,-4.69,-1.61,0
2014,2014,32.85,-4.08,-5.74,0
2015,2015,32.87,-7.42,-11.77,0
2016,2016,32.88,-6.08,-9.92,0
2017,2017,32.89,-0.65,-4.64,0
2018,2018,32.9,-0.94,-4.27,0
2019,2019,32.92,-5.79,-7.48,0
2020,2020,32.93,-5.32,-9.79,0
2021,2021,32.95,-1.36,-9.47,0
2022,2022,32.96,-1.2,-8.39,0
2023,2023,32.97,-2.23,-11.26,0
2024,2024,32.99,0.18,-16.72,0
2025,2025,33.0,1.54,-18.14,0
2026,2026,33.01,0.67,-16.62,0
2027,2027,33.03,3.18,-19.34,0
2028,2028,33.04,5.6,-26.01,0
2029,2029,33.05,2.03,-24.28,0
2030,2030,33.06,-4.12,-9.0,0
2031,2031,33.08,-5.61,2.98,0
2032,2032,33.09,1.15,-4.09,0
2033,2033,33.11,9.76,-20.09,0
2034,2034,33.12,11.02,-26.68,0
2035,2035,33.13,7.54,-23.36,0
2036,2036,33.15,8.75,-21.37,0
2037,2037,33.16,12.22,-24.9,0
2038,2038,33.17,8.99,-27.02,0
2039,2039,33.19,0.04,-23.66,0
2040,2040,33.2,-9.17,-23.84,0
2041,2041,33.21,-13.01,-30.14,0
2042,2042,33.22,-3.72,-30.75,0
2043,2043,33.24,10.54,-23.79,0
2044,2044,33.25,6.98,-20.1,0
2045,2045,33.27,-8.93,-22.51,0
2046,2046,33.28,-7.58,-26.95,0
2047,2047,33.29,8.05,-34.49,0
2048,2048,33.31,9.56,-37.09,0
2049,2049,33.32,-0.77,-26.88,0
2050,2050,33.33,-2.78,-20.23,0
2051,2051,33.35,1.24,-22.91,0
2052,2052,33.36,2.29,-20.98,0
2053,2053,33.37,0.43,-16.82,0
2054,2054,33.38,-4.31,-14.45,0
2055,2055,33.4,-7.24,-9.48,0
2056,2056,33.41,-4.16,-6.37,0
2057,2057,33.43,-0.79,-7.03,0
2058,2058,33.44,0.53,-7.3,0
2059,2059,33.45,4.6,-7.17,0
2060,2060,33.47,7.97,-4.66,0
2061,2061,33.48,1.19,0.29,0
2062,2062,33.49,-10.32,-1.46,0
2063,2063,33.51,-15.42,-12.74,0
2064,2064,33.52,-14.66,-21.2,0
2065,2065,33.53,-8.89,-18.21,0
2066,2066,33.54,2.49,-10.38,0
2067,2067,33.56,8.09,-7.51,0
2068,2068,33.57,-0.5,-10.69,0
2069,2069,33.59,-7.92,-14.53,0
2070,2070,33.6,0.96,-14.83,0
2071,2071,33.61,12.76,-12.04,0
2072,2072,33.63,9.36,-6.74,0
2073,2073,33.64,-0.3,1.46,0
2074,2074,33.65,0.25,5.99,0
2075,2075,33.67,6.69,2.61,0
2076,2076,33.68,6.54,-1.27,0
2077,2077,33.69,1.98,-2.97,0
2078,2078,33.71,0.93,-5.55,0
2079,2079,33.72,1.76,-3.76,0
2080,2080,33.73,-0.63,4.12,0
2081,2081,33.75,-2.42,6.86,0
2082,2082,33.76,2.1,-1.09,0
2083,2083,33.77,8.49,-11.65,0
2084,2084,33.79,7.06,-12.27,0
2085,2085,33.8,-2.33,-1.46,0
2086,2086,33.81,-7.08,2.58,0
2087,2087,33.83,0.13,-3.76,0
2088,2088,33.84,5.47,1.73,0
2089,2089,33.85,1.66,14.53,0
2090,2090,33.87,4.63,12.99,0
2091,2091,33.88,13.06,9.43,0
2092,2092,33.89,7.42,16.45,0
2093,2093,33.9,-4.46,20.36,0
2094,2094,33.92,-1.71,18.03,0
2095,2095,33.93,7.73,15.47,0
2096,2096,33.95,5.4,9.85,0
2097,2097,33.96,-3.12,5.26,0
2098,2098,33.97,-6.06,9.0,0
2099,2099,33.99,-5.24,15.34,0
2100,2100,34.0,-5.06,16.17,0
2101,2101,34.01,-7.13,12.23,0
2102,2102,34.03,-10.75,9.85,0
2103,2103,34.04,-12.77,12.99,0
2104,2104,34.05,-10.89,14.96,0
2105,2105,34.06,-2.99,9.77,0
2106,2106,34.08,4.42,6.78,0
2107,2107,34.09,-0.8,10.05,0
2108,2108,34.11,-12.12,7.71,0
2109,2109,34.12,-8.97,0.52,0
2110,2110,34.13,9.59,4.42,0
2111,2111,34.15,19.16,19.96,0
2112,2112,34.16,5.66,27.99,0
2113,2113,34.17,-10.97,19.0,0
2114,2114,34.19,-8.57,10.01,0
2115,2115,34.2,5.36,5.4,0
2116,2116,34.21,16.86,-22.48,0
2117,2117,34.23,22.91,-65.41,0
2118,2118,34.24,19.24,-80.22,0
2119,2119,34.25,12.33,-78.68,0
2120,2120,34.27,15.3,-96.38,0
2121,2121,34.28,15.47,-123.52,0
2122,2122,34.29,1.41,-144.62,0
2123,2123,34.31,-3.28,-158.25,0
2124,2124,34.32,14.12,-152.95,0
2125,2125,34.33,25.78,-124.37,0
2126,2126,34.35,11.47,-86.75,0
2127,2127,34.36,-11.8,-51.4,0
2128,2128,34.37,-18.05,-19.82,0
2129,2129,34.38,-3.96,8.39,0
2130,2130,34.4,12.02,35.13,0
2131,2131,34.41,9.31,62.99,0
2132,2132,34.43,-14.34,92.65,0
2133,2133,34.44,-36.52,120.47,0
2134,2134,34.45,-34.52,132.18,0
2135,2135,34.47,-13.64,126.81,0
2136,2136,34.48,0.96,125.3,0
2137,2137,34.49,-2.79,134.87,0
2138,2138,34.51,-12.67,149.11,0
2139,2139,34.52,-13.42,164.16,0
2140,2140,34.53,-11.18,171.41,0
2141,2141,34.54,-14.18,166.53,0
2142,2142,34.56,-13.37,155.74,0
2143,2143,34.57,-12.19,144.31,0
2144,2144,34.59,-18.71,133.12,0
2145,2145,34.6,-19.57,121.72,0
2146,2146,34.61,-6.05,108.05,0
2147,2147,34.63,10.26,91.19,0
2148,2148,34.64,13.29,77.6,0
2149,2149,34.65,1.78,72.98,0
2150,2150,34.67,-5.08,70.64,0
2151,2151,34.68,1.5,62.18,0
2152,2152,34.69,1.13,49.88,0
2153,2153,34.71,-9.48,39.28,0
2154,2154,34.72,-4.81,29.43,0
2155,2155,34.73,13.0,15.39,0
2156,2156,34.75,12.25,0.08,0
2157,2157,34.76,-6.32,-4.82,0
2158,2158,34.77,-10.18,3.53,0
2159,2159,34.79,4.53,6.87,0
2160,2160,34.8,8.79,-8.28,0
2161,2161,34.81,-2.61,-25.26,0
2162,2162,34.83,-5.3,-24.82,0
2163,2163,34.84,-0.78,-19.88,0
2164,2164,34.85,-6.08,-28.43,0
2165,2165,34.87,-10.21,-36.8,0
2166,2166,34.88,-1.41,-32.76,0
2167,2167,34.89,9.12,-33.89,0
2168,2168,34.91,11.0,-45.88,0
2169,2169,34.92,5.11,-52.98,0
2170,2170,34.93,1.27,-52.42,0
2171,2171,34.95,9.73,-51.03,0
2172,2172,34.96,21.23,-50.65,0
2173,2173,34.97,19.12,-50.23,0
2174,2174,34.99,8.3,-46.69,0
2175,2175,35.0,5.16,-41.48,0
2176,2176,35.01,7.93,-43.13,0
2177,2177,35.03,5.62,-52.7,0
2178,2178,35.04,-0.31,-59.37,0
2179,2179,35.05,-0.62,-56.52,0
2180,2180,35.06,6.4,-49.59,0
2181,2181,35.08,11.0,-46.69,0
2182,2182,35.09,7.81,-50.53,0
2183,2183,35.11,2.9,-59.0,0
2184,2184,35.12,1.94,-65.94,0
2185,2185,35.13,8.14,-62.16,0
2186,2186,35.15,15.84,-48.74,0
2187,2187,35.16,10.95,-40.58,0
2188,2188,35.17,-4.63,-45.1,0
2189,2189,35.19,-10.51,-52.5,0
2190,2190,35.2,-3.34,-51.28,0
2191,2191,35.21,-2.11,-43.37,0
2192,2192,35.22,-8.03,-39.84,0
2193,2193,35.24,-3.48,-44.24,0
2194,2194,35.25,9.53,-48.81,0
2195,2195,35.27,9.5,-47.04,0
2196,2196,35.28,-6.48,-39.23,0
2197,2197,35.29,-13.89,-30.13,0
2198,2198,35.31,-4.28,-29.29,0
2199,2199,35.32,-0.98,-37.69,0
2200,2200,35.33,-10.25,-39.73,0
2201,2201,35.35,-10.97,-28.46,0
2202,2202,35.36,-0.96,-18.25,0
2203,2203,35.37,4.27,-19.12,0
2204,2204,35.38,4.06,-22.7,0
2205,2205,35.4,6.53,-20.83,0
2206,2206,35.41,8.48,-20.15,0
2207,2207,35.43,5.14,-25.34,0
2208,2208,35.44,3.45,-25.74,0
2209,2209,35.45,6.05,-16.03,0
2210,2210,35.47,5.38,-6.7,0
2211,2211,35.48,2.44,-5.77,0
2212,2212,35.49,4.09,-11.73,0
2213,2213,35.51,6.58,-16.4,0
2214,2214,35.52,1.67,-11.41,0
2215,2215,35.53,-5.84,-1.39,0
2216,2216,35.55,-4.98,4.97,0
2217,2217,35.56,-1.61,8.94,0
2218,2218,35.57,-5.97,8.25,0
2219,2219,35.59,-8.4,-0.28,0
2220,2220,35.6,-0.93,-5.54,0
2221,2221,35.61,4.88,2.39,0
2222,2222,35.63,3.69,12.69,0
2223,2223,35.64,0.31,9.2,0
2224,2224,35.65,-6.91,-1.41,0
2225,2225,35.67,-12.33,-0.29,0
2226,2226,35.68,-7.34,8.75,0
2227,2227,35.69,-0.06,6.32,0
2228,2228,35.71,4.13,-2.33,0
2229,2229,35.72,9.93,1.79,0
2230,2230,35.73,10.38,10.49,0
2231,2231,35.75,-0.77,9.34,0
2232,2232,35.76,-7.76,6.42,0
2233,2233,35.77,2.98,10.31,0
2234,2234,35.79,11.69,17.49,0
2235,2235,35.8,-1.94,19.17,0
2236,2236,35.81,-17.09,12.97,0
2237,2237,35.83,-13.5,9.74,0
2238,2238,35.84,-9.3,12.89,0
2239,2239,35.85,-16.13,14.76,0
2240,2240,35.87,-18.56,13.21,0
2241,2241,35.88,-11.07,10.44,0
2242,2242,35.89,-0.97,12.46,0
2243,2243,35.9,9.9,22.29,0
2244,2244,35.92,17.27,27.34,0
2245,2245,35.93,12.98,15.85,0
2246,2246,35.95,2.55,2.77,0
2247,2247,35.96,-1.44,11.73,0
2248,2248,35.97,2.31,31.1,0
2249,2249,35.99,5.2,31.88,0
2250,2250,36.0,-0.45,18.58,0
2251,2251,36.01,-9.95,12.83,0
2252,2252,36.03,-11.55,20.78,0
2253,2253,36.04,-8.37,35.62,0
2254,2254,36.05,-9.76,41.46,0
2255,2255,36.06,-9.97,31.99,0
2256,2256,36.08,-3.82,17.54,0
2257,2257,36.09,0.84,7.31,0
2258,2258,36.11,1.8,7.94,0
2259,2259,36.12,2.69,16.99,0
2260,2260,36.13,2.67,23.16,0
2261,2261,36.15,2.65,29.25,0
2262,2262,36.16,3.88,50.63,0
2263,2263,36.17,6.49,101.84,0
2264,2264,36.19,13.18,185.86,0
2265,2265,36.2,21.91,274.77,0
2266,2266,36.21,25.91,323.79,0
2267,2267,36.23,23.08,305.69,0
2268,2268,36.24,13.38,229.71,0
2269,2269,36.25,1.94,140.66,0
2270,2270,36.27,-5.91,77.67,0
2271,2271,36.28,-18.17,35.54,0
2272,2272,36.29,-32.02,-12.67,0
2273,2273,36.31,-30.76,-72.94,0
2274,2274,36.32,-23.11,-130.59,0
2275,2275,36.33,-28.16,-174.11,0
2276,2276,36.35,-32.57,-194.99,0
2277,2277,36.36,-19.22,-191.52,0
2278,2278,36.37,-2.62,-178.73,0
2279,2279,36.38,1.04,-165.33,0
2280,2280,36.4,-1.33,-149.17,0
2281,2281,36.41,0.57,-138.47,0
2282,2282,36.43,5.16,-136.89,0
2283,2283,36.44,9.17,-126.11,0
2284,2284,36.45,11.31,-92.58,0
2285,2285,36.47,9.96,-54.22,0
2286,2286,36.48,4.08,-41.25,0
2287,2287,36.49,-6.26,-56.05,0
2288,2288,36.51,-11.21,-71.92,0
2289,2289,36.52,-0.8,-73.96,0
2290,2290,36.53,11.42,-71.81,0
2291,2291,36.54,12.06,-68.73,0
2292,2292,36.56,11.34,-55.99,0
2293,2293,36.57,16.04,-40.95,0
2294,2294,36.59,18.93,-37.74,0
2295,2295,36.6,15.64,-44.66,0
2296,2296,36.61,6.86,-48.72,0
2297,2297,36.63,-1.38,-39.33,0
2298,2298,36.64,-4.95,-20.9,0
2299,2299,36.65,-7.73,-7.16,0
2300,2300,36.67,-6.87,-1.33,0
2301,2301,36.68,-0.12,2.24,0
2302,2302,36.69,4.77,4.69,0
2303,2303,36.71,6.31,4.18,0
2304,2304,36.72,7.7,2.99,0
2305,2305,36.73,8.47,5.49,0
2306,2306,36.75,10.45,10.21,0
2307,2307,36.76,10.66,14.93,0
2308,2308,36.77,3.01,19.33,0
2309,2309,36.79,-3.41,20.58,0
2310,2310,36.8,-0.76,21.35,0
2311,2311,36.81,4.0,25.35,0
2312,2312,36.83,4.7,26.49,0
2313,2313,36.84,-1.31,22.52,0
2314,2314,36.85,-5.67,22.03,0
2315,2315,36.87,2.39,27.65,0
2316,2316,36.88,9.99,33.33,0
2317,2317,36.89,2.58,35.96,0
2318,2318,36.9,-9.51,33.3,0
2319,2319,36.92,-8.43,26.09,0
2320,2320,36.93,5.35,25.44,0
2321,2321,36.95,9.89,36.17,0
2322,2322,36.96,-4.14,46.94,0
2323,2323,36.97,-14.04,48.42,0
2324,2324,36.99,-6.56,43.09,0
2325,2325,37.0,2.15,42.07,0
2326,2326,37.01,5.43,46.31,0
2327,2327,37.03,11.1,39.84,0
2328,2328,37.04,12.96,24.38,0
2329,2329,37.05,1.54,24.63,0
2330,2330,37.06,-11.25,41.52,0
2331,2331,37.08,-9.56,48.97,0
2332,2332,37.09,-0.28,38.24,0
2333,2333,37.11,3.37,25.39,0
2334,2334,37.12,5.81,24.02,0
2335,2335,37.13,9.85,28.24,0
2336,2336,37.15,4.38,25.22,0
2337,2337,37.16,-6.47,17.71,0
2338,2338,37.17,-5.97,14.69,0
2339,2339,37.19,3.52,13.17,0
2340,2340,37.2,11.84,9.46,0
2341,2341,37.21,13.32,8.0,0
2342,2342,37.22,3.36,13.88,0
2343,2343,37.24,-7.24,23.43,0
2344,2344,37.25,-8.62,25.75,0
2345,2345,37.27,-8.26,19.94,0
2346,2346,37.28,-7.03,18.13,0
2347,2347,37.29,-4.1,27.43,0
2348,2348,37.31,-9.75,35.21,0
2349,2349,37.32,-18.21,27.23,0
2350,2350,37.33,-10.82,14.44,0
2351,2351,37.35,6.83,12.92,0
2352,2352,37.36,13.75,15.24,0
2353,2353,37.37,5.7,10.84,0
2354,2354,37.38,-2.04,8.02,0
2355,2355,37.4,1.52,13.52,0
2356,2356,37.41,6.09,19.21,0
2357,2357,37.43,1.79,20.59,0
2358,2358,37.44,0.69,20.24,0
2359,2359,37.45,8.49,14.9,0
2360,2360,37.47,6.85,2.85,0
2361,2361,37.48,-8.72,-7.08,0
2362,2362,37.49,-13.73,-5.26,0
2363,2363,37.51,0.65,3.73,0
2364,2364,37.52,8.56,7.88,0
2365,2365,37.53,-5.88,4.88,0
2366,2366,37.54,-19.37,0.66,0
2367,2367,37.56,-11.38,-1.25,0
2368,2368,37.57,-3.12,-1.62,0
2369,2369,37.59,-9.98,-3.08,0
2370,2370,37.6,-7.05,-2.67,0
2371,2371,37.61,6.99,0.69,0
2372,2372,37.63,-1.25,-3.73,0
2373,2373,37.64,-25.24,-21.55,0
2374,2374,37.65,-23.58,-39.03,0
2375,2375,37.67,4.76,-38.43,0
2376,2376,37.68,18.76,-23.61,0
2377,2377,37.69,3.73,-12.38,0
2378,2378,37.71,-13.47,-9.41,0
2379,2379,37.72,-14.18,-9.77,0
2380,2380,37.73,-6.44,-15.59,0
2381,2381,37.75,0.14,-26.56,0
2382,2382,37.76,3.02,-29.36,0
2383,2383,37.77,1.46,-16.78,0
2384,2384,37.79,1.22,-5.05,0
2385,2385,37.8,5.43,-9.83,0
2386,2386,37.81,7.38,-19.73,0
2387,2387,37.83,6.12,-21.35,0
2388,2388,37.84,6.49,-21.69,0
2389,2389,37.85,7.56,-27.62,0
2390,2390,37.87,4.36,-31.59,0
2391,2391,37.88,-0.75,-25.52,0
2392,2392,37.89,0.23,-13.86,0
2393,2393,37.9,4.28,-8.57,0
2394,2394,37.92,3.73,-8.83,0
2395,2395,37.93,1.69,-3.7,0
2396,2396,37.95,1.4,2.07,0
2397,2397,37.96,0.55,-2.35,0
2398,2398,37.97,1.47,-10.13,0
2399,2399,37.99,1.9,-15.61,0
2400,2400,38.0,-4.82,-24.62,0
2401,2401,38.01,-8.13,-27.41,0
2402,2402,38.03,3.11,-12.94,0
2403,2403,38.04,12.66,0.27,0
2404,2404,38.05,7.86,-1.99,0
2405,2405,38.06,3.91,-8.8,0
2406,2406,38.08,6.39,-13.8,0
2407,2407,38.09,0.25,-16.49,0
2408,2408,38.11,-10.55,-14.1,0
2409,2409,38.12,-6.4,-17.45,0
2410,2410,38.13,7.82,-32.01,0
2411,2411,38.15,12.99,-34.22,0
2412,2412,38.16,5.74,-5.31,0
2413,2413,38.17,-7.59,48.73,0
2414,2414,38.19,-13.36,120.4,0
2415,2415,38.2,6.15,208.04,0
2416,2416,38.21,39.19,258.56,0
2417,2417,38.22,41.48,196.77,0
2418,2418,38.24,1.63,48.41,0
2419,2419,38.25,-25.97,-118.58,0
2420,2420,38.27,-7.11,-207.47,0
2421,2421,38.28,11.24,-121.32,0
2422,2422,38.29,1.39,31.92,0
2423,2423,38.31,3.68,155.04,0
2424,2424,38.32,28.77,280.82,0
2425,2425,38.33,43.63,279.38,0
2426,2426,38.35,43.46,127.04,0
2427,2427,38.36,40.09,68.98,0
2428,2428,38.37,8.2,92.4,0
2429,2429,38.38,-59.39,-17.31,0
2430,2430,38.4,-81.93,-151.94,0
2431,2431,38.41,-36.35,-99.52,0
2432,2432,38.43,-17.42,11.87,0
2433,2433,38.44,-29.85,-20.33,0
2434,2434,38.45,-13.72,-130.63,0
2435,2435,38.47,1.85,-182.1,0
2436,2436,38.48,1.4,-155.27,0
2437,2437,38.49,8.34,-93.37,0
2438,2438,38.51,14.8,-41.95,0
2439,2439,38.52,27.35,-35.1,0
2440,2440,38.53,31.34,-105.12,0
2441,2441,38.54,-4.1,-192.83,0
2442,2442,38.56,-29.0,-190.18,0
2443,2443,38.57,-6.59,-164.05,0
2444,2444,38.59,1.42,-211.45,0
2445,2445,38.6,-37.5,-218.95,0
2446,2446,38.61,-55.31,-110.16,0
2447,2447,38.63,-15.8,-9.2,0
2448,2448,38.64,10.65,9.94,0
2449,2449,38.65,2.62,-27.44,0
2450,2450,38.67,21.93,-87.34,0
2451,2451,38.68,41.07,-99.1,0
2452,2452,38.69,8.86,-55.32,0
2453,2453,38.71,-12.9,-30.35,0
2454,2454,38.72,4.46,-39.22,0
2455,2455,38.73,5.57,-56.31,0
2456,2456,38.75,-5.37,-59.63,0
2457,2457,38.76,5.85,-29.33,0
2458,2458,38.77,11.9,-7.65,0
2459,2459,38.79,-12.5,-37.38,0
2460,2460,38.8,-41.07,-64.76,0
2461,2461,38.81,-41.17,-41.59,0
2462,2462,38.83,-17.93,2.81,0
2463,2463,38.84,-2.51,37.54,0
2464,2464,38.85,-1.49,43.1,0
2465,2465,38.87,1.1,-10.14,0
2466,2466,38.88,-2.27,-67.79,0
2467,2467,38.89,-15.79,-10.22,0
2468,2468,38.9,-17.8,104.04,0
2469,2469,38.92,-9.96,94.59,0
2470,2470,38.93,-4.04,-5.05,0
2471,2471,38.95,8.86,-40.09,0
2472,2472,38.96,19.17,-31.52,0
2473,2473,38.97,12.59,-36.91,0
2474,2474,38.99,3.51,-11.57,0
2475,2475,39.0,-1.58,28.17,0
2476,2476,39.01,1.74,35.67,0
2477,2477,39.03,21.86,43.51,0
2478,2478,39.04,30.54,57.34,0
2479,2479,39.05,10.59,39.24,0
2480,2480,39.06,2.61,18.35,0
2481,2481,39.08,21.8,44.22,0
2482,2482,39.09,26.59,82.91,0
2483,2483,39.11,11.53,75.21,0
2484,2484,39.12,12.19,23.33,0
2485,2485,39.13,25.13,-8.66,0
2486,2486,39.15,24.31,19.38,0
2487,2487,39.16,3.13,51.74,0
2488,2488,39.17,-27.32,57.43,0
2489,2489,39.19,-36.84,80.47,0
2490,2490,39.2,-16.95,90.04,0
2491,2491,39.21,-6.64,58.0,0
2492,2492,39.22,-16.31,56.81,0
2493,2493,39.24,-14.85,75.59,0
2494,2494,39.25,-5.01,48.94,0
2495,2495,39.27,0.8,23.58,0
2496,2496,39.28,14.92,32.78,0
2497,2497,39.29,24.05,13.54,0
2498,2498,39.31,4.71,-10.19,0
2499,2499,39.32,-15.11,58.57,0
2500,2500,39.33,-6.43,130.12,0
2501,2501,39.35,0.85,73.09,0
2502,2502,39.36,-9.54,-0.91,0
2503,2503,39.37,-9.18,24.36,0
2504,2504,39.38,3.46,67.1,0
2505,2505,39.4,5.27,54.81,0
2506,2506,39.41,2.39,22.49,0
2507,2507,39.43,10.44,15.85,0
2508,2508,39.44,9.97,14.66,0
2509,2509,39.45,-22.18,-3.15,0
2510,2510,39.47,-50.72,29.29,0
2511,2511,39.48,-34.86,92.02,0
2512,2512,39.49,-9.89,61.73,0
2513,2513,39.51,-14.95,2.07,0
2514,2514,39.52,-17.49,55.84,0
2515,2515,39.53,3.46,139.92,0
2516,2516,39.54,11.29,103.46,0
2517,2517,39.56,4.76,17.25,0
2518,2518,39.57,14.37,8.24,0
2519,2519,39.59,19.66,18.84,0
2520,2520,39.6,13.59,-1.85,0
2521,2521,39.61,32.15,3.06,0
2522,2522,39.63,41.72,8.04,0
2523,2523,39.64,3.82,-19.37,0
2524,2524,39.65,-17.54,-8.75,0
2525,2525,39.67,1.87,40.34,0
2526,2526,39.68,4.37,35.51,0
2527,2527,39.69,1.45,-22.32,0
2528,2528,39.71,32.05,-14.28,0
2529,2529,39.72,40.59,65.19,0
2530,2530,39.73,-4.17,64.61,0
2531,2531,39.75,-22.99,-24.31,0
2532,2532,39.76,11.78,-40.15,0
2533,2533,39.77,29.0,42.31,0
2534,2534,39.79,5.13,71.99,0
2535,2535,39.8,-13.42,8.82,0
2536,2536,39.81,-6.47,-16.96,0
2537,2537,39.83,-1.56,11.92,0
2538,2538,39.84,-17.34,-3.26,0
2539,2539,39.85,-33.5,-34.85,0
2540,2540,39.87,-29.8,-15.94,0
2541,2541,39.88,-17.85,8.3,0
2542,2542,39.89,-8.92,7.53,0
2543,2543,39.9,7.0,21.67,0
2544,2544,39.92,21.29,18.03,0
2545,2545,39.93,11.18,-63.62,0
2546,2546,39.95,8.97,-129.59,0
2547,2547,39.96,51.45,-77.66,0
2548,2548,39.97,68.15,17.03,0
2549,2549,39.99,2.79,49.04,0
2550,2550,40.0,-56.32,0.73,0
2551,2551,40.01,-31.83,-73.1,0
2552,2552,40.03,20.61,-72.66,0
2553,2553,40.04,24.98,-9.26,0
2554,2554,40.05,-10.3,-14.14,0
2555,2555,40.065,-24.23,-64.28,0
2556,2556,40.08,4.53,-36.46,0
2557,2557,40.09,39.08,8.64,0
2558,2558,40.11,42.41,-15.6,0
2559,2559,40.12,15.82,-34.85,0
2560,2560,40.13,-12.3,-24.73,0
2561,2561,40.15,-24.75,-54.78,0
2562,2562,40.16,-26.62,-84.29,0
2563,2563,40.17,-24.73,-33.84,0
2564,2564,40.19,-12.92,40.1,0
2565,2565,40.2,11.9,48.13,0
2566,2566,40.21,23.59,11.49,0
2567,2567,40.22,6.91,-5.2,0
2568,2568,40.24,-10.93,-4.43,0
2569,2569,40.25,-8.26,-9.97,0
2570,2570,40.27,0.94,12.75,0
2571,2571,40.28,-1.34,88.41,0
2572,2572,40.29,-4.92,148.46,0
2573,2573,40.31,2.25,116.54,0
2574,2574,40.32,4.9,4.21,0
2575,2575,40.33,-5.03,-128.43,0
2576,2576,40.35,-12.21,-232.91,0
2577,2577,40.36,-13.58,-298.09,0
2578,2578,40.37,-11.89,-333.16,0
2579,2579,40.38,4.02,-335.44,0
2580,2580,40.4,26.96,-304.38,0
2581,2581,40.41,33.66,-251.34,0
2582,2582,40.43,26.09,-185.11,0
2583,2583,40.44,18.02,-111.52,0
2584,2584,40.45,12.69,-43.28,0
2585,2585,40.47,11.7,8.13,0
2586,2586,40.48,8.53,51.61,0
2587,2587,40.49,-4.44,89.36,0
2588,2588,40.51,-18.09,96.88,0
2589,2589,40.52,-23.98,77.97,0
2590,2590,40.53,-23.09,73.98,0
2591,2591,40.54,-17.43,90.6,0
2592,2592,40.56,-16.54,99.24,0
2593,2593,40.57,-25.15,93.13,0
2594,2594,40.59,-28.14,80.46,0
2595,2595,40.6,-16.05,59.09,0
2596,2596,40.61,-6.36,36.71,0
2597,2597,40.63,-11.09,36.32,0
2598,2598,40.64,-16.93,59.31,0
2599,2599,40.65,-13.25,78.93,0
2600,2600,40.67,-4.17,81.43,0
2601,2601,40.68,0.5,76.67,0
2602,2602,40.69,-5.46,77.09,0
2603,2603,40.71,-15.65,81.2,0
2604,2604,40.72,-18.07,76.69,0
2605,2605,40.73,-10.29,65.77,0
2606,2606,40.75,-1.39,61.89,0
2607,2607,40.76,1.15,63.85,0
2608,2608,40.77,-1.24,66.95,0
2609,2609,40.79,-2.64,69.53,0
2610,2610,40.8,2.38,59.58,0
2611,2611,40.81,11.27,39.41,0
2612,2612,40.83,12.4,31.96,0
2613,2613,40.84,1.45,40.65,0
2614,2614,40.85,-9.02,47.6,0
2615,2615,40.87,-7.84,40.74,0
2616,2616,40.88,-2.87,28.31,0
2617,2617,40.89,-7.23,30.38,0
2618,2618,40.9,-14.16,43.78,0
2619,2619,40.92,-8.55,45.5,0
2620,2620,40.93,4.35,34.01,0
2621,2621,40.95,10.15,23.51,0
2622,2622,40.96,4.98,18.06,0
2623,2623,40.97,-5.23,19.91,0
2624,2624,40.99,-5.99,25.68,0
2625,2625,41.0,2.72,21.12,0
2626,2626,41.01,1.53,11.75,0
2627,2627,41.03,-6.19,13.23,0
2628,2628,41.04,-1.72,14.85,0
2629,2629,41.05,9.27,6.4,0
2630,2630,41.06,10.91,1.22,0
2631,2631,41.08,5.6,1.68,0
2632,2632,41.09,4.76,-4.84,0
2633,2633,41.11,7.28,-11.47,0
2634,2634,41.12,5.05,-5.39,0
2635,2635,41.13,0.23,-1.85,0
2636,2636,41.15,-1.64,-11.98,0
2637,2637,41.16,-0.84,-16.26,0
2638,2638,41.17,3.36,-11.88,0
2639,2639,41.19,10.52,-18.86,0
2640,2640,41.2,14.73,-29.74,0
2641,2641,41.21,12.88,-25.87,0
2642,2642,41.22,5.84,-18.76,0
2643,2643,41.24,-3.96,-22.26,0
2644,2644,41.25,-7.42,-24.88,0
2645,2645,41.27,2.92,-18.66,0
2646,2646,41.28,17.32,-13.31,0
2647,2647,41.29,19.24,-14.62,0
2648,2648,41.31,11.01,-17.21,0
2649,2649,41.32,6.95,-17.53,0
2650,2650,41.33,8.69,-18.81,0
2651,2651,41.35,7.58,-21.93,0
2652,2652,41.36,4.71,-21.29,0
2653,2653,41.37,2.92,-19.33,0
2654,2654,41.38,-2.07,-27.17,0
2655,2655,41.4,-4.59,-40.54,0
2656,2656,41.41,2.2,-39.61,0
2657,2657,41.43,11.83,-21.38,0
2658,2658,41.44,14.83,-7.96,0
2659,2659,41.45,7.47,-13.5,0
2660,2660,41.47,-1.93,-25.5,0
2661,2661,41.48,-1.94,-29.6,0
2662,2662,41.49,4.08,-30.64,0
2663,2663,41.51,6.03,-34.51,0
2664,2664,41.52,5.54,-33.41,0
2665,2665,41.53,9.49,-24.47,0
2666,2666,41.54,9.52,-18.29,0
2667,2667,41.56,-5.15,-18.81,0
2668,2668,41.57,-22.18,-20.49,0
2669,2669,41.59,-23.83,-23.17,0
2670,2670,41.6,-10.33,-26.24,0
2671,2671,41.61,6.21,-22.63,0
2672,2672,41.63,11.8,-16.75,0
2673,2673,41.64,5.41,-20.7,0
2674,2674,41.65,2.18,-27.81,0
2675,2675,41.67,3.36,-22.98,0
2676,2676,41.68,-2.88,-12.09,0
2677,2677,41.69,-13.05,-14.03,0
2678,2678,41.71,-13.79,-23.39,0
2679,2679,41.72,-0.58,-17.71,0
2680,2680,41.73,15.23,-6.46,0
2681,2681,41.75,16.84,-15.06,0
2682,2682,41.76,8.78,-30.61,0
2683,2683,41.77,6.86,-25.98,0
2684,2684,41.79,6.17,-10.02,0
2685,2685,41.8,-1.67,-4.94,0
2686,2686,41.81,-5.36,-7.72,0
2687,2687,41.83,3.39,-5.58,0
2688,2688,41.84,9.49,-1.05,0
2689,2689,41.85,-0.46,-2.78,0
2690,2690,41.87,-13.32,-9.74,0
2691,2691,41.88,-12.95,-14.44,0
2692,2692,41.89,-6.63,-12.65,0
2693,2693,41.9,-7.81,-4.37,0
2694,2694,41.92,-12.34,1.68,0
2695,2695,41.93,-12.03,-2.91,0
2696,2696,41.95,-9.36,-6.35,0
2697,2697,41.96,-3.85,0.08,0
2698,2698,41.97,2.44,1.16,0
2699,2699,41.99,-0.1,-6.6,0
2700,2700,42.0,-7.65,-4.86,0
2701,2701,42.01,-11.86,6.01,0
2702,2702,42.03,-11.67,9.9,0
2703,2703,42.04,-4.94,10.29,0
2704,2704,42.05,3.41,13.99,0
2705,2705,42.06,4.93,12.18,0
2706,2706,42.08,1.61,1.67,0
2707,2707,42.09,-1.19,-8.74,0
2708,2708,42.11,-3.35,-12.07,0
2709,2709,42.12,-5.13,-7.3,0
2710,2710,42.13,-2.02,2.54,0
2711,2711,42.15,3.52,6.83,0
2712,2712,42.16,-0.08,-2.62,0
2713,2713,42.17,-8.04,-10.83,0
2714,2714,42.19,-7.03,-1.43,0
2715,2715,42.2,-2.31,10.53,0
2716,2716,42.21,0.67,7.74,0
2717,2717,42.22,6.21,2.5,0
2718,2718,42.24,11.7,4.69,0
2719,2719,42.25,13.44,3.58,0
2720,2720,42.27,13.38,-10.57,0
2721,2721,42.28,10.8,-49.78,0
2722,2722,42.29,3.97,-118.0,0
2723,2723,42.31,-3.09,-179.01,0
2724,2724,42.32,-4.84,-192.23,0
2725,2725,42.33,2.62,-164.43,0
2726,2726,42.35,18.58,-131.13,0
2727,2727,42.36,27.29,-118.0,0
2728,2728,42.37,20.47,-120.08,0
2729,2729,42.38,20.98,-102.52,0
2730,2730,42.4,34.09,-51.67,0
2731,2731,42.41,32.59,-0.63,0
2732,2732,42.43,17.16,22.82,0
2733,2733,42.44,4.37,31.89,0
2734,2734,42.45,-15.54,53.68,0
2735,2735,42.47,-40.49,88.34,0
2736,2736,42.48,-42.14,110.23,0
2737,2737,42.49,-18.17,112.34,0
2738,2738,42.51,-6.25,115.3,0
2739,2739,42.52,-27.65,129.66,0
2740,2740,42.53,-51.59,147.91,0
2741,2741,42.54,-47.27,168.57,0
2742,2742,42.56,-27.79,191.86,0
2743,2743,42.57,-16.82,199.99,0
2744,2744,42.59,-16.31,182.37,0
2745,2745,42.6,-12.11,162.84,0
2746,2746,42.61,3.68,158.69,0
2747,2747,42.63,18.63,150.62,0
2748,2748,42.64,20.84,130.26,0
2749,2749,42.65,14.2,114.14,0
2750,2750,42.66,5.17,104.23,0
2751,2751,42.68,-1.43,94.21,0
2752,2752,42.69,-5.64,84.03,0
2753,2753,42.71,-11.4,68.1,0
2754,2754,42.72,-17.25,49.12,0
2755,2755,42.73,-18.57,44.54,0
2756,2756,42.75,-11.32,49.17,0
2757,2757,42.76,6.86,36.95,0
2758,2758,42.77,22.8,15.55,0
2759,2759,42.79,14.57,16.29,0
2760,2760,42.8,-10.13,32.74,0
2761,2761,42.81,-20.55,30.1,0
2762,2762,42.83,-11.43,4.37,0
2763,2763,42.84,0.71,-14.44,0
2764,2764,42.85,7.23,-10.88,0
2765,2765,42.87,6.44,-2.54,0
2766,2766,42.88,3.85,-6.78,0
2767,2767,42.89,6.59,-19.58,0
2768,2768,42.9,2.79,-28.17,0
2769,2769,42.92,-9.3,-29.96,0
2770,2770,42.93,-5.32,-35.49,0
2771,2771,42.95,12.61,-46.87,0
2772,2772,42.96,15.0,-50.14,0
2773,2773,42.97,0.1,-43.85,0
2774,2774,42.99,-4.96,-42.21,0
2775,2775,43.0,11.45,-44.39,0
2776,2776,43.01,27.69,-42.77,0
2777,2777,43.03,22.25,-43.68,0
2778,2778,43.04,5.87,-47.62,0
2779,2779,43.05,-0.88,-46.56,0
2780,2780,43.06,5.76,-43.35,0
2781,2781,43.08,16.06,-44.51,0
2782,2782,43.09,18.33,-49.13,0
2783,2783,43.11,16.25,-52.0,0
2784,2784,43.12,19.08,-47.23,0
2785,2785,43.13,18.35,-39.44,0
2786,2786,43.15,5.55,-40.72,0
2787,2787,43.16,-13.43,-47.81,0
2788,2788,43.17,-20.75,-49.58,0
2789,2789,43.19,-2.8,-51.17,0
2790,2790,43.2,15.79,-55.4,0
2791,2791,43.21,2.22,-48.79,0
2792,2792,43.22,-17.47,-33.63,0
2793,2793,43.24,-2.09,-33.02,0
2794,2794,43.25,20.52,-49.43,0
2795,2795,43.27,10.2,-58.93,0
2796,2796,43.28,-7.53,-51.38,0
2797,2797,43.29,0.51,-41.61,0
2798,2798,43.3,19.74,-39.54,0
2799,2799,43.32,18.03,-39.54,0
2800,2800,43.33,-8.46,-38.66,0
2801,2801,43.35,-25.45,-37.36,0
2802,2802,43.36,-13.55,-33.11,0
2803,2803,43.37,1.72,-30.15,0
2804,2804,43.38,-0.23,-33.05,0
2805,2805,43.4,-9.27,-36.13,0
2806,2806,43.41,-16.37,-35.61,0
2807,2807,43.43,-22.37,-34.4,0
2808,2808,43.44,-20.0,-33.13,0
2809,2809,43.45,-5.75,-30.79,0
2810,2810,43.47,7.84,-26.55,0
2811,2811,43.48,10.45,-21.7,0
2812,2812,43.49,5.11,-19.77,0
2813,2813,43.51,-0.23,-15.96,0
2814,2814,43.52,-1.53,-4.24,0
2815,2815,43.53,-2.66,2.77,0
2816,2816,43.54,-3.57,-9.73,0
2817,2817,43.56,-1.63,-26.98,0
2818,2818,43.57,-0.52,-21.19,0
2819,2819,43.59,1.64,4.95,0
2820,2820,43.6,8.8,18.05,0
2821,2821,43.61,13.06,4.3,0
2822,2822,43.63,10.14,-11.41,0
2823,2823,43.64,7.08,-10.63,0
2824,2824,43.65,6.88,-3.33,0
2825,2825,43.67,3.85,2.87,0
2826,2826,43.68,-2.08,10.19,0
2827,2827,43.69,-4.77,10.93,0
2828,2828,43.71,-2.27,0.62,0
2829,2829,43.72,2.15,-5.86,0
2830,2830,43.73,2.44,0.3,0
2831,2831,43.75,-3.29,9.42,0
2832,2832,43.76,-8.15,15.61,0
2833,2833,43.77,-8.03,20.2,0
2834,2834,43.79,-2.84,21.57,0
2835,2835,43.8,5.79,20.55,0
2836,2836,43.81,8.96,18.63,0
2837,2837,43.83,4.2,13.5,0
2838,2838,43.84,4.14,7.97,0
2839,2839,43.85,9.49,10.43,0
2840,2840,43.87,8.77,19.39,0
2841,2841,43.88,3.29,21.29,0
2842,2842,43.89,0.46,12.53,0
2843,2843,43.9,-0.96,5.64,0
2844,2844,43.92,-4.97,9.13,0
2845,2845,43.93,-7.12,17.57,0
2846,2846,43.94,-1.89,20.65,0
2847,2847,43.96,2.75,14.95,0
2848,2848,43.97,-1.28,6.71,0
2849,2849,43.99,-6.16,2.2,0
2850,2850,44.0,-5.19,5.51,0
2851,2851,44.01,-4.72,18.07,0
2852,2852,44.03,-9.56,29.03,0
2853,2853,44.04,-13.2,28.8,0
2854,2854,44.05,-10.15,23.97,0
2855,2855,44.06,-9.29,20.6,0
2856,2856,44.08,-14.55,19.92,0
2857,2857,44.09,-8.52,23.53,0
2858,2858,44.11,10.72,23.7,0
2859,2859,44.12,15.12,14.08,0
2860,2860,44.13,-0.63,4.96,0
2861,2861,44.15,-13.03,5.42,0
2862,2862,44.16,-13.89,10.87,0
2863,2863,44.17,-6.46,17.11,0
2864,2864,44.19,7.91,23.65,0
2865,2865,44.2,15.61,24.74,0
2866,2866,44.21,8.27,24.8,0
2867,2867,44.22,1.38,54.5,0
2868,2868,44.24,4.8,129.21,0
2869,2869,44.25,5.07,220.5,0
2870,2870,44.27,-5.76,292.83,0
2871,2871,44.28,-9.95,316.5,0
2872,2872,44.29,3.39,274.14,0
2873,2873,44.31,13.57,198.28,0
2874,2874,44.32,7.47,135.92,0
2875,2875,44.33,-3.68,82.22,0
2876,2876,44.35,-11.44,14.7,0
2877,2877,44.36,-14.8,-56.09,0
2878,2878,44.37,-14.64,-107.57,0
2879,2879,44.38,-12.44,-140.54,0
2880,2880,44.4,-2.69,-166.51,0
2881,2881,44.41,14.05,-178.7,0
2882,2882,44.43,19.51,-172.1,0
2883,2883,44.44,7.01,-166.17,0
2884,2884,44.45,-4.65,-168.15,0
2885,2885,44.47,-3.07,-159.72,0
2886,2886,44.48,0.53,-141.61,0
2887,2887,44.49,-3.39,-130.99,0
2888,2888,44.51,-7.27,-121.79,0
2889,2889,44.52,-5.4,-104.81,0
2890,2890,44.53,-1.92,-90.92,0
2891,2891,44.54,0.8,-79.54,0
2892,2892,44.56,5.12,-56.35,0
2893,2893,44.57,10.18,-34.26,0
2894,2894,44.58,10.66,-39.39,0
2895,2895,44.6,9.79,-62.01,0
2896,2896,44.61,12.55,-71.93,0
2897,2897,44.63,10.84,-62.44,0
2898,2898,44.64,1.66,-47.11,0
2899,2899,44.65,-2.68,-39.07,0
2900,2900,44.67,2.14,-40.36,0
2901,2901,44.68,7.2,-40.23,0
2902,2902,44.69,8.08,-29.57,0
2903,2903,44.71,7.99,-14.84,0
2904,2904,44.72,7.66,-10.56,0
2905,2905,44.73,5.83,-18.99,0
2906,2906,44.75,0.55,-22.98,0
2907,2907,44.76,-8.63,-11.36,0
2908,2908,44.77,-15.52,7.42,0
2909,2909,44.79,-13.88,22.77,0
2910,2910,44.8,-5.47,28.14,0
2911,2911,44.81,2.96,23.54,0
2912,2912,44.83,3.99,21.39,0
2913,2913,44.84,0.2,24.8,0
2914,2914,44.85,1.15,25.96,0
2915,2915,44.87,5.8,28.27,0
2916,2916,44.88,6.19,33.2,0
2917,2917,44.89,4.66,31.74,0
2918,2918,44.9,4.13,27.61,0
2919,2919,44.92,-3.83,32.53,0
2920,2920,44.93,-20.63,35.71,0
2921,2921,44.95,-27.9,29.0,0
2922,2922,44.96,-13.44,24.99,0
2923,2923,44.97,6.1,25.34,0
2924,2924,44.99,12.75,24.91,0
2925,2925,45.0,12.49,26.61,0
2926,2926,45.01,11.09,30.55,0
2927,2927,45.03,4.43,33.7,0
2928,2928,45.04,-3.19,34.19,0
2929,2929,45.05,-3.76,33.98,0
2930,2930,45.06,3.14,34.53,0
2931,2931,45.08,9.09,34.0,0
2932,2932,45.09,6.48,29.93,0
2933,2933,45.11,-0.57,26.34,0
2934,2934,45.12,-4.52,27.19,0
2935,2935,45.13,-3.78,29.96,0
2936,2936,45.15,-0.12,32.47,0
2937,2937,45.16,3.95,33.0,0
2938,2938,45.17,5.06,31.81,0
2939,2939,45.19,-1.73,36.47,0
2940,2940,45.2,-13.14,46.95,0
2941,2941,45.21,-15.03,49.69,0
2942,2942,45.22,-4.68,42.47,0
2943,2943,45.24,0.46,34.66,0
2944,2944,45.25,-8.28,27.99,0
2945,2945,45.26,-14.86,23.85,0
2946,2946,45.28,-5.9,25.64,0
2947,2947,45.29,3.7,28.3,0
2948,2948,45.31,-2.0,27.26,0
2949,2949,45.32,-6.21,25.4,0
2950,2950,45.33,3.5,21.33,0
2951,2951,45.35,4.66,15.88,0
2952,2952,45.36,-8.98,17.23,0
2953,2953,45.37,-9.68,23.69,0
2954,2954,45.38,7.12,24.54,0
2955,2955,45.4,14.02,17.0,0
2956,2956,45.41,-0.09,10.23,0
2957,2957,45.43,-16.18,11.78,0
2958,2958,45.44,-14.81,16.19,0
2959,2959,45.45,-2.64,13.69,0
2960,2960,45.47,5.03,8.53,0
2961,2961,45.48,8.83,10.5,0
2962,2962,45.49,9.51,13.03,0
2963,2963,45.51,2.52,8.2,0
2964,2964,45.52,-3.64,2.32,0
2965,2965,45.53,-0.54,-1.94,0
2966,2966,45.54,2.03,-5.26,0
2967,2967,45.56,-3.26,-5.16,0
2968,2968,45.57,-7.54,-5.52,0
2969,2969,45.59,-1.96,-9.48,0
2970,2970,45.6,7.64,-12.68,0
2971,2971,45.61,11.16,-13.01,0
2972,2972,45.63,8.36,-12.78,0
2973,2973,45.64,2.34,-11.87,0
2974,2974,45.65,-1.21,-6.41,0
2975,2975,45.67,3.6,0.89,0
2976,2976,45.68,9.67,-0.87,0
2977,2977,45.69,8.06,-12.39,0
2978,2978,45.71,2.83,-19.54,0
2979,2979,45.72,-2.65,-16.18,0
2980,2980,45.73,-8.8,-11.28,0
2981,2981,45.75,-5.94,-9.94,0
2982,2982,45.76,11.16,-11.31,0
2983,2983,45.77,19.13,-14.56,0
2984,2984,45.79,2.25,-14.77,0
2985,2985,45.8,-8.87,-12.68,0
2986,2986,45.81,4.5,-14.22,0
2987,2987,45.83,13.83,-16.81,0
2988,2988,45.84,5.62,-18.73,0
2989,2989,45.85,-3.15,-21.28,0
2990,2990,45.86,-10.28,-22.37,0
2991,2991,45.88,-17.98,-21.13,0
2992,2992,45.89,-14.69,-17.46,0
2993,2993,45.9,0.58,-17.22,0
2994,2994,45.92,14.13,-21.2,0
2995,2995,45.93,11.87,-18.9,0
2996,2996,45.95,-5.75,-14.07,0
2997,2997,45.96,-15.04,-17.06,0
2998,2998,45.97,-5.39,-19.89,0
2999,2999,45.99,2.97,-16.26,0
3000,3000,46.0,-0.71,-14.14,0
3001,3001,46.01,-5.44,-16.63,0
3002,3002,46.03,-1.75,-17.68,0
3003,3003,46.04,5.25,-9.5,0
3004,3004,46.05,4.48,3.04,0
3005,3005,46.06,-3.97,1.06,0
3006,3006,46.08,-11.19,-16.42,0
3007,3007,46.09,-12.23,-25.61,0
3008,3008,46.11,-6.58,-17.89,0
3009,3009,46.12,0.74,-9.31,0
3010,3010,46.13,4.37,-6.48,0
3011,3011,46.15,6.38,-4.03,0
3012,3012,46.16,7.75,-5.03,0
3013,3013,46.17,5.26,-0.55,0
3014,3014,46.19,1.49,37.35,0
3015,3015,46.2,-2.41,102.31,0
3016,3016,46.21,-5.35,141.1,0
3017,3017,46.22,8.9,150.95,0
3018,3018,46.24,40.11,198.62,0
3019,3019,46.25,50.66,233.47,0
3020,3020,46.27,21.71,126.72,0
3021,3021,46.28,-19.32,19.59,0
3022,3022,46.29,-43.82,50.17,0
3023,3023,46.31,-44.08,12.83,0
3024,3024,46.32,-24.1,-73.11,0
3025,3025,46.33,-4.38,-17.57,0
3026,3026,46.35,-2.25,3.2,0
3027,3027,46.36,-6.91,-88.07,0
3028,3028,46.37,-7.57,-64.74,0
3029,3029,46.38,-11.57,56.59,0
3030,3030,46.4,-20.55,27.22,0
3031,3031,46.41,-15.72,-132.92,0
3032,3032,46.43,12.49,-171.46,0
3033,3033,46.44,33.38,-82.66,0
3034,3034,46.45,19.75,-75.25,0
3035,3035,46.47,-4.96,-137.85,0
3036,3036,46.48,-9.84,-126.1,0
3037,3037,46.49,2.16,-97.3,0
3038,3038,46.5,14.23,-129.0,0
3039,3039,46.52,16.09,-140.9,0
3040,3040,46.53,14.4,-87.2,0
3041,3041,46.54,21.17,-44.14,0
3042,3042,46.56,24.67,-78.46,0
3043,3043,46.57,7.83,-98.05,0
3044,3044,46.59,-14.67,-30.68,0
3045,3045,46.6,-6.04,1.73,0
3046,3046,46.61,30.86,-43.19,0
3047,3047,46.63,38.99,-77.79,0
3048,3048,46.64,2.51,-87.75,0
3049,3049,46.65,-29.13,-97.28,0
3050,3050,46.67,-26.78,-125.01,0
3051,3051,46.68,-5.8,-150.11,0
3052,3052,46.69,6.17,-92.77,0
3053,3053,46.71,2.01,8.54,0
3054,3054,46.72,-1.74,11.91,0
3055,3055,46.73,-1.96,-60.31,0
3056,3056,46.75,-11.46,-76.12,0
3057,3057,46.76,-23.18,-26.56,0
3058,3058,46.77,-20.56,22.0,0
3059,3059,46.79,-9.36,32.59,0
3060,3060,46.8,1.83,10.21,0
3061,3061,46.81,12.1,2.12,0
3062,3062,46.83,5.61,24.24,0
3063,3063,46.84,-14.76,38.17,0
3064,3064,46.85,-14.36,40.3,0
3065,3065,46.87,1.62,46.36,0
3066,3066,46.88,-4.33,36.83,0
3067,3067,46.89,-24.49,36.94,0
3068,3068,46.9,-26.5,80.01,0
3069,3069,46.92,-8.77,97.44,0
3070,3070,46.93,5.62,47.94,0
3071,3071,46.95,-4.26,0.18,0
3072,3072,46.96,-23.48,-6.42,0
3073,3073,46.97,-10.23,4.63,0
3074,3074,46.99,22.91,15.03,0
3075,3075,47.0,20.91,28.23,0
3076,3076,47.01,-4.67,54.51,0
3077,3077,47.03,-5.17,55.6,0
3078,3078,47.04,5.83,-2.43,0
3079,3079,47.05,-2.03,-39.87,0
3080,3080,47.06,-15.27,-4.81,0
3081,3081,47.08,-11.63,27.41,0
3082,3082,47.09,6.79,29.37,0
3083,3083,47.11,24.32,39.59,0
3084,3084,47.12,32.58,39.9,0
3085,3085,47.13,28.41,23.06,0
3086,3086,47.14,9.34,36.21,0
3087,3087,47.16,-10.62,66.76,0
3088,3088,47.17,-11.71,72.1,0
3089,3089,47.18,5.7,82.75,0
3090,3090,47.2,20.22,110.67,0
3091,3091,47.21,10.98,87.21,0
3092,3092,47.22,-10.34,10.59,0
3093,3093,47.24,-10.21,3.49,0
3094,3094,47.25,14.34,90.19,0
3095,3095,47.27,35.15,123.2,0
3096,3096,47.28,31.1,56.68,0
3097,3097,47.29,8.9,5.12,0
3098,3098,47.31,-7.64,13.48,0
3099,3099,47.32,-4.93,25.62,0
3100,3100,47.33,9.89,14.63,0
3101,3101,47.35,10.3,-7.2,0
3102,3102,47.36,-15.26,-26.39,0
3103,3103,47.37,-28.45,-10.47,0
3104,3104,47.38,-3.87,44.16,0
3105,3105,47.4,20.97,64.98,0
3106,3106,47.41,16.28,21.14,0
3107,3107,47.43,5.46,-13.6,0
3108,3108,47.44,4.09,-2.95,0
3109,3109,47.45,-2.56,10.04,0
3110,3110,47.47,-11.12,22.95,0
3111,3111,47.48,-11.09,70.55,0
3112,3112,47.49,-14.2,96.23,0
3113,3113,47.51,-23.19,11.52,0
3114,3114,47.52,-25.42,-79.56,0
3115,3115,47.53,-15.61,-26.08,0
3116,3116,47.54,-2.75,60.71,0
3117,3117,47.56,0.09,33.65,0
3118,3118,47.57,-2.69,-14.43,0
3119,3119,47.59,-0.94,19.43,0
3120,3120,47.6,3.16,57.71,0
3121,3121,47.61,6.88,8.97,0
3122,3122,47.63,9.51,-67.19,0
3123,3123,47.64,10.16,-46.97,0
3124,3124,47.65,11.91,55.41,0
3125,3125,47.67,12.64,85.36,0
3126,3126,47.68,5.39,7.12,0
3127,3127,47.69,-5.65,-19.61,0
3128,3128,47.71,-14.09,23.79,0
3129,3129,47.72,-16.06,-27.36,0
3130,3130,47.73,-13.07,-117.87,0
3131,3131,47.75,-16.96,-69.43,0
3132,3132,47.76,-20.23,33.46,0
3133,3133,47.77,-5.92,36.67,0
3134,3134,47.78,10.3,-2.59,0
3135,3135,47.8,8.06,1.5,0
3136,3136,47.81,-1.77,16.01,0
3137,3137,47.82,-2.37,9.13,0
3138,3138,47.84,2.5,-8.84,0
3139,3139,47.85,4.65,-18.76,0
3140,3140,47.86,9.07,8.39,0
3141,3141,47.88,17.09,40.33,0
3142,3142,47.89,14.61,10.75,0
3143,3143,47.9,0.62,-28.82,0
3144,3144,47.92,-3.38,-7.53,0
3145,3145,47.93,10.44,5.55,0
3146,3146,47.95,27.63,-25.18,0
3147,3147,47.96,31.9,-11.8,0
3148,3148,47.97,12.76,33.07,0
3149,3149,47.99,-10.84,3.85,0
3150,3150,48.0,-6.89,-62.9,0
3151,3151,48.01,6.74,-65.04,0
3152,3152,48.03,1.18,-29.39,0
3153,3153,48.04,-2.61,-24.3,0
3154,3154,48.05,4.03,-35.33,0
3155,3155,48.06,-8.91,-16.58,0
3156,3156,48.08,-32.01,17.77,0
3157,3157,48.09,-23.71,16.1,0
3158,3158,48.11,-1.01,-8.16,0
3159,3159,48.12,-2.56,-11.42,0
3160,3160,48.13,-5.31,5.37,0
3161,3161,48.15,8.57,26.21,0
3162,3162,48.16,3.82,26.24,0
3163,3163,48.17,-12.48,-1.75,0
3164,3164,48.19,2.67,-35.82,0
3165,3165,48.2,26.46,-54.18,0
3166,3166,48.21,21.06,-30.98,0
3167,3167,48.22,7.85,-0.6,0
3168,3168,48.24,2.1,-27.42,0
3169,3169,48.25,-2.61,-60.32,0
3170,3170,48.27,7.68,-25.53,0
3171,3171,48.28,24.98,17.1,0
3172,3172,48.29,13.77,-7.69,0
3173,3173,48.31,-16.56,-57.71,0
3174,3174,48.32,-26.3,-63.6,0
3175,3175,48.33,-14.11,-27.41,0
3176,3176,48.35,-6.58,6.37,0
3177,3177,48.36,-9.7,-11.99,0
3178,3178,48.37,-10.27,-78.36,0
3179,3179,48.38,-4.03,-114.59,0
3180,3180,48.4,1.18,-99.01,0
3181,3181,48.41,-2.58,-116.36,0
3182,3182,48.42,-11.78,-209.34,0
3183,3183,48.44,-11.27,-302.65,0
3184,3184,48.45,0.71,-309.06,0
3185,3185,48.46,8.19,-234.51,0
3186,3186,48.48,5.62,-145.07,0
3187,3187,48.49,0.81,-72.58,0
3188,3188,48.5,-0.33,-1.43,0
3189,3189,48.52,1.69,66.62,0
3190,3190,48.53,2.47,105.1,0
3191,3191,48.54,-4.29,117.19,0
3192,3192,48.56,-14.43,127.79,0
3193,3193,48.57,-13.35,139.47,0
3194,3194,48.59,-3.6,144.3,0
3195,3195,48.6,-2.14,141.04,0
3196,3196,48.61,-3.41,131.81,0
3197,3197,48.63,6.56,123.71,0
3198,3198,48.64,13.52,117.82,0
3199,3199,48.65,1.8,111.29,0
3200,3200,48.67,-13.87,108.2,0
3201,3201,48.68,-17.19,111.47,0
3202,3202,48.69,-12.91,116.1,0
3203,3203,48.71,-7.4,111.17,0
3204,3204,48.72,-0.61,91.66,0
3205,3205,48.73,1.23,77.53,0
3206,3206,48.75,-3.83,84.18,0
3207,3207,48.76,-6.24,89.7,0
3208,3208,48.77,-4.49,79.47,0
3209,3209,48.79,-2.86,67.46,0
3210,3210,48.8,-0.39,53.61,0
3211,3211,48.81,1.25,34.22,0
3212,3212,48.83,2.65,27.77,0
3213,3213,48.84,2.72,36.32,0
3214,3214,48.85,-5.62,37.57,0
3215,3215,48.87,-11.45,24.63,0
3216,3216,48.88,-1.76,10.92,0
3217,3217,48.89,4.47,9.3,0
3218,3218,48.9,-4.83,15.67,0
3219,3219,48.92,-5.72,16.0,0
3220,3220,48.93,13.33,13.19,0
3221,3221,48.95,27.87,14.98,0
3222,3222,48.96,21.23,13.01,0
3223,3223,48.97,5.35,4.65,0
3224,3224,48.99,-2.52,-1.36,0
3225,3225,49.0,0.92,-3.02,0
3226,3226,49.01,5.62,-4.2,0
3227,3227,49.03,4.8,-7.26,0
3228,3228,49.04,-0.32,-9.89,0
3229,3229,49.05,-6.47,-10.65,0
3230,3230,49.06,-10.42,-13.54,0
3231,3231,49.08,-10.67,-18.34,0
3232,3232,49.09,-2.83,-18.2,0
3233,3233,49.1,7.27,-13.1,0
3234,3234,49.12,1.3,-13.14,0
3235,3235,49.13,-12.79,-20.34,0
3236,3236,49.14,-9.41,-24.15,0
3237,3237,49.16,5.33,-22.7,0
3238,3238,49.17,9.17,-23.45,0
3239,3239,49.19,4.25,-25.64,0
3240,3240,49.2,3.34,-21.72,0
3241,3241,49.21,4.84,-14.61,0
3242,3242,49.22,2.87,-16.5,0
3243,3243,49.24,-0.29,-27.54,0
3244,3244,49.25,-5.32,-34.28,0
3245,3245,49.27,-13.0,-30.9,0
3246,3246,49.28,-12.27,-26.99,0
3247,3247,49.29,0.28,-28.78,0
3248,3248,49.31,7.5,-30.23,0
3249,3249,49.32,1.17,-27.03,0
3250,3250,49.33,-1.55,-24.21,0
3251,3251,49.35,10.12,-26.43,0
3252,3252,49.36,19.29,-31.48,0
3253,3253,49.37,13.4,-36.59,0
3254,3254,49.38,8.41,-38.0,0
3255,3255,49.4,14.88,-34.4,0
3256,3256,49.41,18.37,-31.75,0
3257,3257,49.43,11.78,-32.14,0
3258,3258,49.44,3.59,-33.5,0
3259,3259,49.45,-2.6,-33.38,0
3260,3260,49.47,-6.59,-26.82,0
3261,3261,49.48,-6.64,-18.8,0
3262,3262,49.49,-4.24,-20.35,0
3263,3263,49.51,-2.53,-31.46,0
3264,3264,49.52,0.91,-38.97,0
3265,3265,49.53,9.06,-28.37,0
3266,3266,49.54,13.62,-10.58,0
3267,3267,49.56,6.53,-11.99,0
3268,3268,49.57,-3.95,-25.61,0
3269,3269,49.59,-5.2,-25.37,0
3270,3270,49.6,-0.09,-17.98,0
3271,3271,49.61,-0.51,-22.8,0
3272,3272,49.63,-8.72,-26.82,0
3273,3273,49.64,-13.89,-14.96,0
3274,3274,49.65,-7.44,-5.66,0
3275,3275,49.67,3.32,-9.08,0
3276,3276,49.68,5.88,-8.71,0
3277,3277,49.69,6.16,-3.66,0
3278,3278,49.7,12.42,-3.85,0
3279,3279,49.72,10.18,-1.59,0
3280,3280,49.73,-7.22,5.71,0
3281,3281,49.74,-17.26,3.73,0
3282,3282,49.76,-7.94,-7.37,0
3283,3283,49.77,0.14,-11.66,0
3284,3284,49.78,-6.96,-8.32,0
3285,3285,49.8,-10.95,-9.0,0
3286,3286,49.81,1.63,-13.52,0
3287,3287,49.825,14.67,-15.6,0
3288,3288,49.84,14.81,-14.99,0
3289,3289,49.85,10.8,-10.07,0
3290,3290,49.87,8.73,-1.51,0
3291,3291,49.88,2.56,4.15,0
3292,3292,49.89,-7.99,5.41,0
3293,3293,49.9,-10.51,3.42,0
3294,3294,49.92,0.75,-1.84,0
3295,3295,49.93,6.6,-2.75,0
3296,3296,49.95,-5.18,5.84,0
3297,3297,49.96,-13.65,11.82,0
3298,3298,49.97,-7.97,6.17,0
3299,3299,49.99,-1.13,-2.05,0
3300,3300,50.0,4.44,-6.44,0
3301,3301,50.01,11.89,-6.49,0
3302,3302,50.03,13.79,1.53,0
3303,3303,50.04,4.97,13.63,0
3304,3304,50.05,-7.37,18.24,0
3305,3305,50.06,-10.56,12.27,0
3306,3306,50.08,-1.61,5.72,0
3307,3307,50.09,7.39,7.68,0
3308,3308,50.11,4.09,9.08,0
3309,3309,50.12,-4.83,-1.48,0
3310,3310,50.13,-5.06,-11.86,0
3311,3311,50.15,-1.34,-6.16,0
3312,3312,50.16,-5.47,9.32,0
3313,3313,50.17,-12.82,22.32,0
3314,3314,50.19,-14.48,24.69,0
3315,3315,50.2,-7.01,8.6,0
3316,3316,50.21,4.22,-12.94,0
3317,3317,50.22,2.85,-10.9,0
3318,3318,50.24,-8.49,9.96,0
3319,3319,50.25,-6.21,18.53,0
3320,3320,50.27,9.32,12.0,0
3321,3321,50.28,16.26,-1.97,0
3322,3322,50.29,8.37,-41.17,0
3323,3323,50.31,-5.04,-108.26,0
3324,3324,50.32,-12.97,-171.69,0
3325,3325,50.33,-6.86,-203.0,0
3326,3326,50.34,3.71,-192.16,0
3327,3327,50.36,-6.15,-148.56,0
3328,3328,50.37,-23.95,-98.48,0
3329,3329,50.38,-9.9,-62.87,0
3330,3330,50.4,16.97,-40.29,0
3331,3331,50.41,17.31,-23.74,0
3332,3332,50.42,11.95,-8.51,0
3333,3333,50.44,12.77,18.43,0
3334,3334,50.45,-1.43,54.08,0
3335,3335,50.46,-6.82,78.44,0
3336,3336,50.48,13.62,89.35,0
3337,3337,50.49,21.39,95.45,0
3338,3338,50.51,11.59,103.79,0
3339,3339,50.52,12.49,122.82,0
3340,3340,50.53,19.7,148.82,0
3341,3341,50.54,15.54,165.46,0
3342,3342,50.56,-0.05,162.52,0
3343,3343,50.57,-10.29,151.14,0
3344,3344,50.59,-8.51,153.38,0
3345,3345,50.6,-8.83,168.09,0
3346,3346,50.61,-14.38,170.0,0
3347,3347,50.63,-17.98,151.08,0
3348,3348,50.64,-19.63,134.29,0
3349,3349,50.65,-15.1,132.7,0
3350,3350,50.67,-4.58,127.03,0
3351,3351,50.68,2.61,104.65,0
3352,3352,50.69,1.46,81.88,0
3353,3353,50.71,-5.81,69.44,0
3354,3354,50.72,-9.86,59.34,0
3355,3355,50.73,-6.51,52.67,0
3356,3356,50.75,-4.1,55.23,0
3357,3357,50.76,-4.44,52.5,0
3358,3358,50.77,-4.48,35.67,0
3359,3359,50.79,-6.6,21.63,0
3360,3360,50.8,-7.12,19.56,0
3361,3361,50.81,-5.61,16.44,0
3362,3362,50.83,-11.14,1.57,0
3363,3363,50.84,-14.16,-18.71,0
3364,3364,50.85,-1.54,-28.79,0
3365,3365,50.87,10.08,-23.49,0
3366,3366,50.88,5.85,-12.0,0
3367,3367,50.89,-6.04,-6.14,0
3368,3368,50.9,-17.24,-11.42,0
3369,3369,50.92,-20.01,-21.64,0
3370,3370,50.93,-9.31,-26.74,0
3371,3371,50.95,2.39,-30.49,0
3372,3372,50.96,4.56,-40.69,0
3373,3373,50.97,5.92,-50.43,0
3374,3374,50.98,11.03,-50.58,0
3375,3375,51.0,13.57,-45.2,0
3376,3376,51.01,11.12,-45.68,0
3377,3377,51.02,6.98,-56.97,0
3378,3378,51.04,2.59,-69.48,0
3379,3379,51.05,-1.71,-68.93,0
3380,3380,51.06,-1.35,-60.74,0
3381,3381,51.08,3.89,-61.46,0
3382,3382,51.09,9.26,-67.8,0
3383,3383,51.1,13.84,-67.4,0
3384,3384,51.12,13.09,-60.44,0
3385,3385,51.13,6.71,-52.13,0
3386,3386,51.15,3.46,-47.95,0
3387,3387,51.16,4.43,-50.95,0
3388,3388,51.17,4.11,-53.16,0
3389,3389,51.19,-1.65,-47.68,0
3390,3390,51.2,-11.95,-44.84,0
3391,3391,51.21,-15.47,-52.55,0
3392,3392,51.22,-5.95,-58.49,0
3393,3393,51.24,2.45,-53.71,0
3394,3394,51.25,-1.7,-47.29,0
3395,3395,51.27,-8.34,-47.18,0
3396,3396,51.28,-5.8,-46.83,0
3397,3397,51.29,5.4,-40.16,0
3398,3398,51.31,16.49,-33.38,0
3399,3399,51.32,16.09,-32.22,0
3400,3400,51.33,5.42,-33.37,0
3401,3401,51.35,3.38,-36.38,0
3402,3402,51.36,10.71,-42.86,0
3403,3403,51.37,4.3,-43.92,0
3404,3404,51.38,-11.23,-36.02,0
3405,3405,51.4,-9.18,-27.49,0
3406,3406,51.41,3.02,-19.72,0
3407,3407,51.43,0.52,-14.93,0
3408,3408,51.44,-8.21,-17.55,0
3409,3409,51.45,-4.38,-21.68,0
3410,3410,51.47,1.21,-23.41,0
3411,3411,51.48,-3.24,-22.5,0
3412,3412,51.49,-7.05,-19.39,0
3413,3413,51.51,-2.64,-18.92,0
3414,3414,51.52,3.45,-20.01,0
3415,3415,51.53,3.69,-16.68,0
3416,3416,51.54,2.83,-9.13,0
3417,3417,51.56,5.58,-2.74,0
3418,3418,51.57,3.62,-2.21,0
3419,3419,51.59,-4.95,-7.87,0
3420,3420,51.6,-8.25,-12.79,0
3421,3421,51.61,0.82,-8.89,0
3422,3422,51.62,10.85,2.38,0
3423,3423,51.64,7.44,10.58,0
3424,3424,51.65,-0.07,10.82,0
3425,3425,51.66,-0.29,6.58,0
3426,3426,51.68,-2.53,-2.25,0
3427,3427,51.69,-6.19,-13.7,0
3428,3428,51.7,2.48,-14.77,0
3429,3429,51.72,15.7,-1.71,0
3430,3430,51.73,13.2,13.83,0
3431,3431,51.74,-1.06,22.05,0
3432,3432,51.76,-6.22,21.33,0
3433,3433,51.77,-0.05,16.78,0
3434,3434,51.79,4.26,14.0,0
3435,3435,51.8,6.26,11.92,0
3436,3436,51.81,9.71,10.87,0
3437,3437,51.83,9.0,17.57,0
3438,3438,51.84,4.62,26.14,0
3439,3439,51.85,4.17,20.63,0
3440,3440,51.87,4.17,6.01,0
3441,3441,51.88,-2.84,-1.57,0
3442,3442,51.89,-8.53,1.52,0
3443,3443,51.9,-5.79,11.52,0
3444,3444,51.92,-4.09,20.14,0
3445,3445,51.93,-6.24,20.86,0
3446,3446,51.95,-2.35,21.15,0
3447,3447,51.96,8.23,26.81,0
3448,3448,51.97,10.89,29.48,0
3449,3449,51.99,1.88,26.38,0
3450,3450,52.0,-1.98,21.18,0
3451,3451,52.01,0.53,12.8,0
3452,3452,52.03,-5.16,7.93,0
3453,3453,52.04,-12.42,15.08,0
3454,3454,52.05,-6.81,26.05,0
3455,3455,52.06,3.95,28.39,0
3456,3456,52.08,2.69,19.27,0
3457,3457,52.09,-9.85,9.17,0
3458,3458,52.11,-12.14,13.86,0
3459,3459,52.12,3.28,26.24,0
3460,3460,52.13,13.03,26.72,0
3461,3461,52.15,5.66,21.99,0
3462,3462,52.16,-1.01,24.77,0
3463,3463,52.17,1.35,24.26,0
3464,3464,52.19,3.63,16.13,0
3465,3465,52.2,2.06,15.88,0
3466,3466,52.21,-2.29,21.99,0
3467,3467,52.22,-6.96,15.9,0
3468,3468,52.24,-6.48,2.29,0
3469,3469,52.25,-0.16,5.83,0
3470,3470,52.26,4.72,44.13,0
3471,3471,52.28,5.66,123.9,0
3472,3472,52.29,10.24,229.01,0
3473,3473,52.3,15.3,317.62,0
3474,3474,52.32,1.58,348.77,0
3475,3475,52.33,-28.67,311.73,0
3476,3476,52.34,-47.8,232.16,0
3477,3477,52.36,-46.24,143.99,0
3478,3478,52.37,-34.9,60.72,0
3479,3479,52.38,-18.78,-15.92,0
3480,3480,52.4,-4.43,-76.99,0
3481,3481,52.41,-1.17,-117.09,0
3482,3482,52.43,-1.35,-152.13,0
3483,3483,52.44,6.6,-196.36,0
3484,3484,52.45,13.54,-227.7,0
3485,3485,52.47,10.0,-220.46,0
3486,3486,52.48,7.39,-191.82,0
3487,3487,52.49,12.95,-167.62,0
3488,3488,52.51,13.62,-151.06,0
3489,3489,52.52,7.31,-143.24,0
3490,3490,52.53,11.81,-138.23,0
3491,3491,52.54,25.68,-120.56,0
3492,3492,52.56,24.08,-93.76,0
3493,3493,52.57,7.73,-72.52,0
3494,3494,52.59,3.1,-60.15,0
3495,3495,52.6,12.22,-59.87,0
3496,3496,52.61,23.23,-69.61,0
3497,3497,52.63,35.65,-72.94,0
3498,3498,52.64,35.21,-67.13,0
3499,3499,52.65,14.48,-64.79,0
3500,3500,52.67,-1.55,-63.81,0
3501,3501,52.68,0.32,-53.28,0
3502,3502,52.69,4.92,-36.23,0
3503,3503,52.71,-0.86,-25.3,0
3504,3504,52.72,-11.11,-25.56,0
3505,3505,52.73,-10.34,-29.87,0
3506,3506,52.75,-3.1,-23.77,0
3507,3507,52.76,-7.37,-8.73,0
3508,3508,52.77,-18.43,-3.85,0
3509,3509,52.79,-19.89,-5.61,0
3510,3510,52.8,-12.28,3.63,0
3511,3511,52.81,-4.32,12.24,0
3512,3512,52.83,0.4,4.46,0
3513,3513,52.84,-1.02,-2.58,0
3514,3514,52.85,-10.98,5.85,0
3515,3515,52.87,-20.44,17.04,0
3516,3516,52.88,-17.13,23.1,0
3517,3517,52.89,-6.55,28.35,0
3518,3518,52.9,1.12,31.2,0
3519,3519,52.92,6.55,30.79,0
3520,3520,52.93,7.41,33.23,0
3521,3521,52.94,0.06,37.36,0
3522,3522,52.96,-9.93,34.26,0
3523,3523,52.97,-14.98,32.92,0
3524,3524,52.98,-11.5,46.13,0
3525,3525,53.0,-2.29,55.97,0
3526,3526,53.01,3.79,46.72,0
3527,3527,53.02,2.71,36.78,0
3528,3528,53.04,-1.59,38.32,0
3529,3529,53.05,-5.66,38.69,0
3530,3530,53.06,-8.91,33.13,0
3531,3531,53.08,-5.89,33.53,0
3532,3532,53.09,5.11,45.17,0
3533,3533,53.11,5.83,55.57,0
3534,3534,53.12,-13.05,50.32,0
3535,3535,53.13,-19.85,36.56,0
3536,3536,53.15,5.27,32.6,0
3537,3537,53.16,27.49,36.91,0
3538,3538,53.17,19.98,36.56,0
3539,3539,53.19,2.26,31.66,0
3540,3540,53.2,-6.79,28.61,0
3541,3541,53.21,-8.31,26.81,0
3542,3542,53.22,-5.45,26.0,0
3543,3543,53.24,-4.52,28.34,0
3544,3544,53.25,-5.51,30.39,0
3545,3545,53.27,1.85,28.25,0
3546,3546,53.28,12.58,26.38,0
3547,3547,53.29,12.48,26.49,0
3548,3548,53.31,2.03,26.04,0
3549,3549,53.32,-7.77,26.07,0
3550,3550,53.33,-5.53,26.87,0
3551,3551,53.35,2.58,28.84,0
3552,3552,53.36,0.54,32.29,0
3553,3553,53.37,-5.66,30.9,0
3554,3554,53.38,-3.57,21.77,0
3555,3555,53.4,1.46,10.46,0
3556,3556,53.41,3.31,3.31,0
3557,3557,53.43,4.1,4.18,0
3558,3558,53.44,3.38,7.31,0
3559,3559,53.45,1.12,6.51,0
3560,3560,53.47,-0.83,8.67,0
3561,3561,53.48,-6.59,14.24,0
3562,3562,53.49,-12.41,11.49,0
3563,3563,53.51,-7.34,5.87,0
3564,3564,53.52,2.21,8.79,0
3565,3565,53.53,5.65,11.92,0
3566,3566,53.54,6.29,4.05,0
3567,3567,53.56,3.89,-8.24,0
3568,3568,53.57,-1.12,-9.51,0
3569,3569,53.58,-2.57,-2.79,0
3570,3570,53.6,-2.19,-3.15,0
3571,3571,53.61,0.93,-6.49,0
3572,3572,53.62,12.07,-4.65,0
3573,3573,53.64,16.95,-5.65,0
3574,3574,53.65,6.06,-11.72,0
3575,3575,53.66,-2.85,-11.31,0
3576,3576,53.68,-2.3,-4.27,0
3577,3577,53.69,-3.51,-1.66,0
3578,3578,53.7,-8.5,-3.87,0
3579,3579,53.72,-6.34,-6.38,0
3580,3580,53.73,3.32,-7.74,0
3581,3581,53.75,6.03,-6.99,0
3582,3582,53.76,3.08,-9.21,0
3583,3583,53.77,4.84,-12.16,0
3584,3584,53.79,3.91,-4.81,0
3585,3585,53.8,-2.28,2.63,0
3586,3586,53.81,-2.09,-4.85,0
3587,3587,53.83,5.85,-14.34,0
3588,3588,53.84,10.73,-15.26,0
3589,3589,53.85,1.37,-16.82,0
3590,3590,53.87,-19.26,-19.99,0
3591,3591,53.88,-26.7,-19.02,0
3592,3592,53.89,-11.8,-16.11,0
3593,3593,53.9,-1.77,-13.52,0
3594,3594,53.92,-7.99,-12.01,0
3595,3595,53.93,-4.34,-13.93,0
3596,3596,53.95,14.98,-17.96,0
3597,3597,53.96,20.78,-17.89,0
3598,3598,53.97,6.93,-13.05,0
3599,3599,53.99,-1.36,-15.55,0
3600,3600,54.0,5.33,-26.01,0
3601,3601,54.01,12.4,-27.32,0
3602,3602,54.03,10.42,-18.86,0
3603,3603,54.04,5.51,-10.31,0
3604,3604,54.05,3.81,-3.0,0
3605,3605,54.06,-0.91,-5.42,0
3606,3606,54.08,-11.89,-19.5,0
3607,3607,54.09,-19.2,-25.92,0
3608,3608,54.11,-15.82,-19.17,0
3609,3609,54.12,-3.13,-17.75,0
3610,3610,54.13,13.32,-34.15,0
3611,3611,54.15,19.41,-46.95,0
3612,3612,54.16,8.77,-18.04,0
3613,3613,54.17,-4.81,64.65,0
3614,3614,54.18,-10.33,175.81,0
3615,3615,54.2,-12.14,204.51,0
3616,3616,54.21,-2.18,38.66,0
3617,3617,54.22,34.29,-150.11,0
3618,3618,54.24,58.48,-63.21,0
3619,3619,54.25,18.65,204.8,0
3620,3620,54.26,-38.0,324.54,0
3621,3621,54.28,-43.68,262.67,0
3622,3622,54.29,-26.68,207.46,0
3623,3623,54.3,-11.28,231.82,0
3624,3624,54.32,23.07,241.04,0
3625,3625,54.33,61.12,173.36,0
3626,3626,54.34,82.92,90.83,0
3627,3627,54.36,80.28,16.55,0
3628,3628,54.37,47.33,-56.92,0
3629,3629,54.38,19.91,-81.29,0
3630,3630,54.4,8.23,-35.95,0
3631,3631,54.41,-22.92,24.87,0
3632,3632,54.43,-49.61,12.84,0
3633,3633,54.44,-20.42,-75.21,0
3634,3634,54.45,43.25,-171.65,0
3635,3635,54.47,58.83,-257.84,0
3636,3636,54.48,-2.92,-277.15,0
3637,3637,54.49,-53.89,-211.95,0
3638,3638,54.51,-42.18,-206.41,0
3639,3639,54.52,-38.19,-268.14,0
3640,3640,54.53,-57.63,-245.58,0
3641,3641,54.54,-39.19,-178.25,0
3642,3642,54.56,-16.21,-161.64,0
3643,3643,54.57,-38.13,-124.98,0
3644,3644,54.59,-40.78,-58.0,0
3645,3645,54.6,1.29,-82.41,0
3646,3646,54.61,16.1,-201.91,0
3647,3647,54.63,-4.86,-244.38,0
3648,3648,54.64,-10.51,-151.87,0
3649,3649,54.65,-6.72,-87.75,0
3650,3650,54.67,-13.84,-133.2,0
3651,3651,54.68,-13.16,-183.51,0
3652,3652,54.69,-9.6,-153.62,0
3653,3653,54.71,-30.14,-58.79,0
3654,3654,54.72,-62.37,29.81,0
3655,3655,54.73,-70.37,34.11,0
3656,3656,54.75,-43.82,-33.04,0
3657,3657,54.76,-9.54,-71.98,0
3658,3658,54.77,-3.23,-49.88,0
3659,3659,54.79,-29.33,-13.4,0
3660,3660,54.8,-42.11,-3.08,0
3661,3661,54.81,5.71,-46.38,0
3662,3662,54.82,63.11,-97.42,0
3663,3663,54.84,41.92,-68.68,0
3664,3664,54.85,-20.48,13.22,0
3665,3665,54.86,-31.52,59.64,0
3666,3666,54.88,-0.54,51.5,0
3667,3667,54.89,23.49,34.84,0
3668,3668,54.9,39.31,52.46,0
3669,3669,54.92,34.38,79.12,0
3670,3670,54.93,-14.2,56.32,0
3671,3671,54.94,-48.49,-13.26,0
3672,3672,54.96,-8.02,-54.21,0
3673,3673,54.97,50.79,-29.19,0
3674,3674,54.98,49.52,7.0,0
3675,3675,55.0,3.73,24.31,0
3676,3676,55.01,-13.79,27.14,0
3677,3677,55.025000000000006,3.57,21.87,0
3678,3678,55.04,-3.73,57.84,0
3679,3679,55.05,-20.9,85.93,0
3680,3680,55.06,1.18,25.25,0
3681,3681,55.08,26.46,2.14,0
3682,3682,55.09,12.16,59.89,0
3683,3683,55.11,0.04,27.27,0
3684,3684,55.12,22.53,-35.71,0
3685,3685,55.13,27.02,57.55,0
3686,3686,55.15,-3.78,167.35,0
3687,3687,55.16,-5.43,115.68,0
3688,3688,55.17,33.32,31.85,0
3689,3689,55.19,55.85,42.05,0
3690,3690,55.2,43.44,68.51,0
3691,3691,55.21,23.18,65.67,0
3692,3692,55.22,13.46,83.55,0
3693,3693,55.24,17.74,104.95,0
3694,3694,55.25,32.36,91.02,0
3695,3695,55.27,46.54,64.95,0
3696,3696,55.28,49.07,31.44,0
3697,3697,55.29,25.22,6.46,0
3698,3698,55.31,-12.81,57.18,0
3699,3699,55.32,-14.94,142.84,0
3700,3700,55.33,4.27,135.17,0
3701,3701,55.35,-20.83,79.77,0
3702,3702,55.36,-48.69,111.36,0
3703,3703,55.37,-11.32,164.63,0
3704,3704,55.38,24.54,105.22,0
3705,3705,55.4,4.22,2.89,0
3706,3706,55.41,-10.16,21.85,0
3707,3707,55.43,-1.93,120.7,0
3708,3708,55.44,-17.48,126.86,0
3709,3709,55.45,-30.86,61.95,0
3710,3710,55.46,-12.16,40.68,0
3711,3711,55.48,-1.85,45.99,0
3712,3712,55.49,0.7,58.3,0
3713,3713,55.5,18.71,87.33,0
3714,3714,55.52,11.57,67.21,0
3715,3715,55.53,-28.12,-12.21,0
3716,3716,55.54,-42.45,-33.39,0
3717,3717,55.56,-5.89,31.66,0
3718,3718,55.57,45.25,66.79,0
3719,3719,55.58,45.67,31.19,0
3720,3720,55.6,-5.06,9.72,0
3721,3721,55.61,-21.29,34.92,0
3722,3722,55.62,7.02,40.42,0
3723,3723,55.64,0.82,19.21,0
3724,3724,55.65,-25.81,27.3,0
3725,3725,55.66,-2.71,48.63,0
3726,3726,55.68,34.47,37.13,0
3727,3727,55.69,23.39,17.25,0
3728,3728,55.71,-10.27,34.21,0
3729,3729,55.72,-24.94,55.09,0
3730,3730,55.73,-19.44,28.86,0
3731,3731,55.75,-9.75,-22.94,0
3732,3732,55.76,-7.28,-54.57,0
3733,3733,55.77,-3.19,-56.01,0
3734,3734,55.79,4.54,-50.69,0
3735,3735,55.8,6.64,-50.81,0
3736,3736,55.81,7.92,-31.85,0
3737,3737,55.83,1.02,8.59,0
3738,3738,55.84,-14.04,25.03,0
3739,3739,55.85,-3.81,-0.83,0
3740,3740,55.87,30.84,-16.87,0
3741,3741,55.88,45.18,9.24,0
3742,3742,55.89,23.31,25.78,0
3743,3743,55.9,-8.42,9.74,0
3744,3744,55.92,-25.58,-9.51,0
3745,3745,55.93,-29.22,-46.31,0
3746,3746,55.95,-21.89,-86.44,0
3747,3747,55.96,-9.18,-60.55,0
3748,3748,55.97,-16.04,-1.08,0
3749,3749,55.99,-36.12,-10.8,0
3750,3750,56.0,-36.25,-66.2,0
3751,3751,56.01,-18.65,-67.92,0
3752,3752,56.03,5.75,-44.65,0
3753,3753,56.04,25.77,-78.98,0
3754,3754,56.05,7.88,-98.35,0
3755,3755,56.06,-32.19,-13.48,0
3756,3756,56.08,-34.54,50.04,0
3757,3757,56.09,-6.91,-15.58,0
3758,3758,56.1,7.19,-77.2,0
3759,3759,56.12,12.79,-48.37,0
3760,3760,56.13,11.44,-29.23,0
3761,3761,56.14,-11.08,-31.18,0
3762,3762,56.16,-28.85,14.98,0
3763,3763,56.17,-17.49,26.2,0
3764,3764,56.18,12.48,-64.09,0
3765,3765,56.2,40.32,-113.41,0
3766,3766,56.21,37.59,-39.96,0
3767,3767,56.22,8.84,30.25,0
3768,3768,56.24,-3.76,15.84,0
3769,3769,56.25,4.94,-12.9,0
3770,3770,56.26,10.17,-6.08,0
3771,3771,56.28,6.35,-11.8,0
3772,3772,56.29,3.8,-68.45,0
3773,3773,56.3,7.13,-156.28,0
3774,3774,56.32,5.78,-251.17,0
3775,3775,56.33,-0.32,-327.43,0
3776,3776,56.35,5.74,-351.59,0
3777,3777,56.36,17.29,-319.87,0
3778,3778,56.37,11.83,-261.06,0
3779,3779,56.38,-2.3,-197.2,0
3780,3780,56.4,-2.21,-123.88,0
3781,3781,56.41,3.17,-40.44,0
3782,3782,56.43,-4.13,24.01,0
3783,3783,56.44,-9.72,53.07,0
3784,3784,56.45,-1.1,69.86,0
3785,3785,56.47,-0.3,92.46,0
3786,3786,56.48,-14.46,110.01,0
3787,3787,56.49,-18.48,117.9,0
3788,3788,56.51,-6.81,123.14,0
3789,3789,56.52,1.8,122.05,0
3790,3790,56.53,3.61,119.84,0
3791,3791,56.54,1.36,131.05,0
3792,3792,56.56,-7.02,137.99,0
3793,3793,56.57,-10.53,119.11,0
3794,3794,56.59,-1.51,94.77,0
3795,3795,56.6,5.8,90.35,0
3796,3796,56.61,-3.91,101.15,0
3797,3797,56.63,-23.25,107.8,0
3798,3798,56.64,-26.54,97.93,0
3799,3799,56.65,-5.82,83.07,0
3800,3800,56.67,14.56,83.27,0
3801,3801,56.68,21.16,88.96,0
3802,3802,56.69,21.09,81.74,0
3803,3803,56.71,8.04,70.57,0
3804,3804,56.72,-18.43,66.34,0
3805,3805,56.73,-29.37,67.42,0
3806,3806,56.74,-9.14,69.36,0
3807,3807,56.76,14.67,61.72,0
3808,3808,56.77,12.13,47.43,0
3809,3809,56.78,-8.73,42.93,0
3810,3810,56.8,-19.02,40.77,0
3811,3811,56.81,-2.81,28.73,0
3812,3812,56.82,23.81,23.07,0
3813,3813,56.84,28.89,31.95,0
3814,3814,56.85,13.79,35.83,0
3815,3815,56.86,5.04,25.95,0
3816,3816,56.88,1.08,18.09,0
3817,3817,56.89,-13.48,16.69,0
3818,3818,56.9,-20.57,7.5,0
3819,3819,56.92,-3.03,-2.57,0
3820,3820,56.93,13.69,2.66,0
3821,3821,56.94,11.91,7.33,0
3822,3822,56.96,6.23,-4.76,0
3823,3823,56.97,1.02,-15.36,0
3824,3824,56.99,-6.28,-8.82,0
3825,3825,57.0,-8.85,-0.05,0
3826,3826,57.01,-5.85,-3.65,0
3827,3827,57.03,-1.75,-9.01,0
3828,3828,57.04,1.04,-5.47,0
3829,3829,57.05,-3.13,-1.34,0
3830,3830,57.06,-14.63,-2.9,0
3831,3831,57.08,-23.07,-7.23,0
3832,3832,57.09,-18.34,-15.34,0
3833,3833,57.11,-1.94,-24.0,0
3834,3834,57.12,8.9,-25.24,0
3835,3835,57.13,5.02,-23.49,0
3836,3836,57.15,0.72,-28.93,0
3837,3837,57.16,3.83,-38.27,0
3838,3838,57.17,5.3,-36.34,0
3839,3839,57.19,3.66,-21.39,0
3840,3840,57.2,3.0,-13.13,0
3841,3841,57.21,3.73,-20.72,0
3842,3842,57.22,7.59,-26.28,0
3843,3843,57.24,11.31,-19.87,0
3844,3844,57.25,8.37,-18.71,0
3845,3845,57.27,-0.87,-29.34,0
3846,3846,57.28,-8.45,-35.63,0
3847,3847,57.29,-4.31,-34.77,0
3848,3848,57.31,6.9,-37.78,0
3849,3849,57.32,9.99,-42.5,0
3850,3850,57.33,8.73,-38.72,0
3851,3851,57.35,10.05,-31.05,0
3852,3852,57.36,1.44,-31.65,0
3853,3853,57.37,-16.16,-36.12,0
3854,3854,57.38,-17.31,-31.8,0
3855,3855,57.4,0.57,-20.85,0
3856,3856,57.41,5.65,-18.32,0
3857,3857,57.42,-9.13,-28.24,0
3858,3858,57.44,-15.06,-34.83,0
3859,3859,57.45,-4.53,-31.72,0
3860,3860,57.46,6.93,-29.54,0
3861,3861,57.48,9.6,-27.2,0
3862,3862,57.49,2.16,-18.94,0
3863,3863,57.5,-2.87,-11.84,0
3864,3864,57.52,4.02,-11.29,0
3865,3865,57.53,8.12,-17.3,0
3866,3866,57.54,3.9,-25.5,0
3867,3867,57.56,5.36,-26.11,0
3868,3868,57.57,8.89,-20.72,0
3869,3869,57.58,4.05,-20.01,0
3870,3870,57.6,-1.65,-23.75,0
3871,3871,57.61,-4.55,-20.83,0
3872,3872,57.63,-7.78,-12.44,0
3873,3873,57.64,-5.16,-15.11,0
3874,3874,57.65,3.96,-24.04,0
3875,3875,57.67,7.47,-20.63,0
3876,3876,57.68,4.87,-12.91,0
3877,3877,57.69,4.52,-9.21,0
3878,3878,57.71,1.34,-1.83,0
3879,3879,57.72,-8.5,0.64,0
3880,3880,57.73,-9.96,-11.64,0
3881,3881,57.75,3.85,-22.22,0
3882,3882,57.76,16.27,-14.45,0
3883,3883,57.77,16.35,-1.78,0
3884,3884,57.79,10.23,-5.41,0
3885,3885,57.8,3.63,-16.3,0
3886,3886,57.81,1.1,-15.98,0
3887,3887,57.83,3.09,-5.1,0
3888,3888,57.84,0.54,6.14,0
3889,3889,57.85,-5.44,7.8,0
3890,3890,57.87,-4.22,0.65,0
3891,3891,57.88,3.78,-2.23,0
3892,3892,57.89,5.78,1.79,0
3893,3893,57.9,-4.23,1.68,0
3894,3894,57.92,-11.92,-3.1,0
3895,3895,57.93,-4.67,-0.83,0
3896,3896,57.95,5.61,4.66,0
3897,3897,57.96,2.88,-2.05,0
3898,3898,57.97,-6.89,-11.92,0
3899,3899,57.99,-8.7,-8.65,0
3900,3900,58.0,-3.25,-1.85,0
3901,3901,58.01,-0.08,0.54,0
3902,3902,58.02,-0.64,4.26,0
3903,3903,58.04,-4.58,4.46,0
3904,3904,58.05,-8.71,-3.44,0
3905,3905,58.06,-7.41,-3.92,0
3906,3906,58.08,-5.52,11.44,0
3907,3907,58.09,-7.93,22.66,0
3908,3908,58.1,-9.15,18.2,0
3909,3909,58.12,-3.82,11.78,0
3910,3910,58.13,5.73,12.61,0
3911,3911,58.14,8.85,18.62,0
3912,3912,58.16,2.82,25.33,0
3913,3913,58.17,-1.05,29.98,0
3914,3914,58.18,1.51,34.1,0
3915,3915,58.2,6.92,31.26,0
3916,3916,58.21,10.6,17.38,0
3917,3917,58.22,6.96,9.47,0
3918,3918,58.24,1.35,12.03,0
3919,3919,58.25,2.26,8.31,0
3920,3920,58.26,2.26,1.46,0
3921,3921,58.28,-5.06,7.21,0
3922,3922,58.29,-12.33,8.42,0
3923,3923,58.31,-11.08,-39.15,0
3924,3924,58.32,0.91,-130.81,0
3925,3925,58.33,14.46,-186.59,0
3926,3926,58.35,15.42,-166.45,0
3927,3927,58.36,7.48,-129.47,0
3928,3928,58.37,9.08,-131.52,0
3929,3929,58.38,19.89,-154.69,0
3930,3930,58.4,23.63,-154.42,0
3931,3931,58.41,20.04,-120.03,0
3932,3932,58.43,17.6,-74.35,0
3933,3933,58.44,12.98,-32.97,0
3934,3934,58.45,1.11,6.7,0
3935,3935,58.47,-12.47,40.88,0
3936,3936,58.48,-16.57,62.5,0
3937,3937,58.49,-8.8,79.19,0
3938,3938,58.51,-1.82,103.46,0
3939,3939,58.52,-9.73,136.6,0
3940,3940,58.53,-22.14,164.85,0
3941,3941,58.54,-18.47,174.04,0
3942,3942,58.56,-10.16,170.8,0
3943,3943,58.57,-16.9,176.69,0
3944,3944,58.59,-27.6,194.91,0
3945,3945,58.6,-29.72,200.75,0
3946,3946,58.61,-27.02,183.37,0
3947,3947,58.63,-14.32,161.98,0
3948,3948,58.64,6.71,145.68,0
3949,3949,58.65,10.61,128.36,0
3950,3950,58.66,-7.25,114.66,0
3951,3951,58.68,-19.09,110.05,0
3952,3952,58.69,-9.06,108.04,0
3953,3953,58.7,9.28,98.83,0
3954,3954,58.72,11.75,76.85,0
3955,3955,58.73,-0.81,53.4,0
3956,3956,58.74,-10.8,43.06,0
3957,3957,58.76,-16.77,37.67,0
3958,3958,58.77,-15.28,27.74,0
3959,3959,58.78,0.19,19.47,0
3960,3960,58.8,13.46,12.53,0
3961,3961,58.81,6.75,2.62,0
3962,3962,58.82,-9.99,-2.41,0
3963,3963,58.84,-13.89,-1.09,0
3964,3964,58.85,1.26,-3.23,0
3965,3965,58.86,22.7,-7.24,0
3966,3966,58.88,31.87,-7.1,0
3967,3967,58.89,20.71,-7.91,0
3968,3968,58.9,0.54,-15.75,0
3969,3969,58.92,-12.01,-27.93,0
3970,3970,58.93,-11.9,-36.27,0
3971,3971,58.95,-3.9,-34.86,0
3972,3972,58.96,10.54,-28.38,0
3973,3973,58.97,27.34,-30.37,0
3974,3974,58.99,24.51,-44.58,0
3975,3975,59.0,-2.93,-54.75,0
3976,3976,59.01,-20.83,-48.26,0
3977,3977,59.03,-10.74,-37.69,0
3978,3978,59.04,8.46,-36.51,0
3979,3979,59.05,19.56,-37.3,0
3980,3980,59.06,18.65,-36.82,0
3981,3981,59.08,9.34,-44.36,0
3982,3982,59.09,2.21,-54.33,0
3983,3983,59.11,-2.06,-51.74,0
3984,3984,59.12,-10.72,-41.19,0
3985,3985,59.13,-11.6,-42.53,0
3986,3986,59.15,6.35,-59.72,0
3987,3987,59.16,16.58,-68.55,0
3988,3988,59.17,2.13,-55.25,0
3989,3989,59.19,-7.98,-42.36,0
3990,3990,59.2,1.64,-45.02,0
3991,3991,59.21,8.62,-49.78,0
3992,3992,59.22,0.81,-49.72,0
3993,3993,59.24,-6.54,-49.98,0
3994,3994,59.25,0.09,-48.93,0
3995,3995,59.27,10.52,-41.9,0
3996,3996,59.28,8.45,-35.18,0
3997,3997,59.29,-3.81,-39.61,0
3998,3998,59.3,-12.57,-49.53,0
3999,3999,59.32,-7.73,-48.97,0
4000,4000,59.33,5.2,-39.59,0
4001,4001,59.34,9.78,-36.39,0
4002,4002,59.36,3.27,-40.89,0
4003,4003,59.37,-3.04,-41.55,0
4004,4004,59.38,-3.97,-34.26,0
4005,4005,59.4,-4.49,-28.78,0
4006,4006,59.41,-4.39,-31.06,0
4007,4007,59.42,1.71,-30.06,0
4008,4008,59.44,6.12,-24.09,0
4009,4009,59.45,2.26,-27.07,0
4010,4010,59.46,0.49,-32.74,0
4011,4011,59.48,4.89,-26.04,0
4012,4012,59.49,7.15,-18.49,0
4013,4013,59.5,8.27,-24.08,0
4014,4014,59.52,11.46,-29.73,0
4015,4015,59.53,9.53,-20.68,0
4016,4016,59.54,4.37,-7.46,0
4017,4017,59.56,6.6,-6.21,0
4018,4018,59.57,10.76,-11.27,0
4019,4019,59.59,9.39,-8.11,0
4020,4020,59.6,9.15,0.05,0
4021,4021,59.61,8.27,-2.6,0
4022,4022,59.63,-2.41,-14.11,0
4023,4023,59.64,-15.61,-15.36,0
4024,4024,59.65,-17.12,-5.36,0
4025,4025,59.67,-6.3,1.31,0
4026,4026,59.68,5.2,3.84,0
4027,4027,59.69,5.74,5.66,0
4028,4028,59.71,-1.62,3.28,0
4029,4029,59.72,-5.26,-1.69,0
4030,4030,59.73,-4.27,-4.2,0
4031,4031,59.75,-1.37,-3.18,0
4032,4032,59.76,3.64,0.09,0
4033,4033,59.77,6.29,3.05,0
4034,4034,59.79,3.98,6.36,0
4035,4035,59.8,-3.02,11.04,0
4036,4036,59.81,-7.61,13.28,0
4037,4037,59.83,0.8,13.74,0
4038,4038,59.84,10.39,17.18,0
4039,4039,59.85,3.16,18.1,0
4040,4040,59.87,-10.44,11.05,0
4041,4041,59.88,-12.89,5.19,0
4042,4042,59.89,-7.99,8.69,0
4043,4043,59.9,-2.64,16.58,0
4044,4044,59.92,4.53,20.2,0
4045,4045,59.93,5.53,19.38,0
4046,4046,59.94,-4.33,21.61,0
4047,4047,59.96,-9.53,25.46,0
4048,4048,59.97,-3.65,23.25,0
4049,4049,59.98,-0.62,18.88,0
4050,4050,60.0,-4.2,17.21,0
4051,4051,60.01,-3.27,13.07,0
4052,4052,60.02,3.78,7.98,0
4053,4053,60.04,6.74,9.4,0
4054,4054,60.05,2.62,16.0,0
4055,4055,60.06,-3.93,24.44,0
4056,4056,60.08,-14.78,32.04,0
4057,4057,60.09,-26.58,30.45,0
4058,4058,60.1,-23.69,18.52,0
4059,4059,60.12,-4.85,11.06,0
4060,4060,60.13,11.48,15.83,0
4061,4061,60.14,10.67,20.45,0
4062,4062,60.16,-5.13,18.4,0
4063,4063,60.17,-14.26,17.99,0
4064,4064,60.18,-3.26,21.56,0
4065,4065,60.2,7.05,22.64,0
4066,4066,60.21,-1.02,20.62,0
4067,4067,60.22,-11.66,29.8,0
4068,4068,60.24,-12.51,74.63,0
4069,4069,60.25,-10.28,162.83,0
4070,4070,60.27,-1.36,261.62,0
