,Timestamp,Data1,Data2,Label
0,6.0,-2.42,10.91,1
1,6.01,-2.15,2.07,1
2,6.03,-23.67,0.89,1
3,6.04,-25.77,7.98,1
4,6.05,-34.06,-5.3,1
5,6.07,36.72,-0.61,1
6,6.08,3.46,7.25,1
7,6.09,26.64,-1.35,1
8,6.11,12.0,-0.23,1
9,6.12,-6.79,-6.88,1
10,6.13,52.28,11.0,1
11,6.15,16.36,14.04,1
12,6.16,10.75,-3.5,1
13,6.17,-6.55,2.29,1
14,6.19,-22.85,25.47,1
15,6.2,-22.36,64.19,1
16,6.21,-5.85,127.99,1
17,6.23,-95.02,99.53,1
18,6.24,84.49,88.1,1
19,6.25,-12.98,321.75,1
20,6.27,9.37,94.61,1
21,6.28,-30.87,176.08,1
22,6.29,-47.98,-17.13,1
23,6.31,198.07,20.78,1
24,6.32,31.36,-201.03,1
25,6.33,-11.72,-52.36,1
26,6.35,-7.66,-52.23,1
27,6.36,2.44,-23.37,1
28,6.37,300.6,37.78,1
29,6.39,17.61,-24.23,1
30,6.4,155.09,-38.25,1
31,6.41,-237.82,-91.57,1
32,6.43,277.92,-182.87,1
33,6.44,40.99,-135.34,1
34,6.45,-46.28,-174.11,1
35,6.47,-349.04,-239.81,1
36,6.48,-395.12,-63.75,1
37,6.49,-21.99,-238.58,1
38,6.51,-228.88,-226.08,1
39,6.52,-142.71,-38.98,1
40,6.53,-145.23,-3.5,1
41,6.55,-65.07,-103.05,1
42,6.56,184.19,-310.33,1
43,6.57,-210.02,-178.69,1
44,6.59,8.86,117.06,1
45,6.6,147.23,72.65,1
46,6.61,172.37,-126.18,1
47,6.63,-7.68,-270.28,1
48,6.64,343.71,-59.73,1
49,6.65,-260.53,-314.16,1
50,6.67,14.04,347.3,1
51,6.68,-34.8,70.7,1
52,6.69,-95.12,23.08,1
53,6.71,-78.91,101.87,1
54,6.72,219.08,-142.31,1
55,6.73,139.63,-137.54,1
56,6.75,21.15,82.86,1
57,6.76,214.69,288.54,1
58,6.77,-170.7,66.18,1
59,6.79,-51.51,523.53,1
60,6.8,-275.45,163.58,1
61,6.81,197.63,92.23,1
62,6.83,170.33,-163.55,1
63,6.84,206.88,-181.61,1
64,6.85,55.25,285.95,1
65,6.87,-8.04,-12.24,1
66,6.88,259.02,196.91,1
67,6.89,-67.29,-48.99,1
68,6.91,18.5,8.27,1
69,6.92,-57.1,-129.7,1
70,6.93,-73.19,-132.23,1
71,6.95,-59.54,-103.56,1
72,6.96,-51.15,-40.09,1
73,6.97,-66.37,71.08,1
74,6.99,-58.75,98.78,1
75,7.0,-33.69,92.64,1
76,7.01,5.67,137.27,1
77,7.03,19.15,172.55,1
78,7.04,29.87,230.7,1
79,7.05,6.01,264.29,1
80,7.07,56.8,285.15,1
81,7.08,32.82,317.54,1
82,7.09,55.67,317.49,1
83,7.11,60.88,293.76,1
84,7.12,30.99,288.71,1
85,7.13,25.34,254.26,1
86,7.15,27.22,192.32,1
87,7.16,27.85,155.91,1
88,7.17,1.56,111.77,1
89,7.19,-19.29,61.78,1
90,7.2,-21.56,31.69,1
91,7.21,9.79,-7.0,1
92,7.23,-14.13,-32.82,1
93,7.24,-35.68,-62.48,1
94,7.25,-43.68,-73.75,1
95,7.27,-22.14,-110.6,1
96,7.28,-25.26,-147.9,1
97,7.29,-30.36,-171.12,1
98,7.31,-6.31,-186.08,1
99,7.32,-10.37,-174.38,1
100,7.33,-25.01,-182.46,1
101,7.35,-60.28,-195.06,1
102,7.36,-23.0,-199.68,1
103,7.37,-23.28,-207.57,1
104,7.39,-29.07,-201.45,1
105,7.4,-34.44,-203.96,1
106,7.41,-39.3,-191.68,1
107,7.43,0.38,-187.09,1
108,7.44,-21.88,-180.13,1
109,7.45,-30.68,-173.7,1
110,7.47,-29.63,-159.0,1
111,7.48,-16.17,-150.93,1
112,7.49,-5.03,-151.3,1
113,7.51,-7.51,-124.23,1
114,7.52,11.44,-95.98,1
115,7.53,-21.0,-100.17,1
116,7.55,-14.61,-84.55,1
117,7.56,-25.16,-42.61,1
118,7.57,1.78,-50.86,1
119,7.59,-13.29,-26.83,1
120,7.6,-13.96,-34.23,1
121,7.61,-13.9,-30.45,1
122,7.63,31.6,-12.68,1
123,7.64,10.8,-0.94,1
124,7.65,7.61,1.2,1
125,7.67,1.16,10.21,1
126,7.68,17.65,14.77,1
127,7.69,13.71,16.75,1
128,7.71,16.68,36.85,1
129,7.72,-3.9,38.97,1
130,7.73,8.54,54.79,1
131,7.75,-0.15,60.71,1
132,7.76,-1.86,62.12,1
133,7.77,-6.55,71.67,1
134,7.79,39.37,58.78,1
135,7.8,17.48,66.48,1
136,7.81,16.76,67.97,1
137,7.83,21.24,64.52,1
138,7.84,24.72,58.39,1
139,7.85,11.15,72.1,1
140,7.87,7.65,68.45,1
141,7.88,33.94,61.13,1
142,7.89,-5.14,60.14,1
143,7.91,3.65,57.18,1
144,7.92,1.75,58.73,1
145,7.93,5.77,59.64,1
146,7.95,-0.97,51.37,1
147,7.96,7.82,58.64,1
148,7.97,15.17,55.14,1
149,7.99,30.7,47.66,1
150,8.0,-11.58,51.26,1
151,8.01,-73.2,41.47,1
152,8.03,-22.97,53.6,1
153,8.04,26.09,49.46,1
154,8.05,14.45,39.81,1
155,8.07,21.91,24.64,1
156,8.08,19.07,29.19,1
157,8.09,29.95,21.53,1
158,8.11,47.02,16.56,1
159,8.12,18.37,21.2,1
160,8.13,25.27,46.7,1
161,8.15,91.78,19.18,1
162,8.16,241.6,94.33,1
163,8.17,139.48,82.2,1
164,8.19,-249.62,-21.9,1
165,8.2,-254.58,456.31,1
166,8.21,-66.24,102.63,1
167,8.23,-176.11,-58.3,1
168,8.24,36.97,-107.2,1
169,8.25,-27.67,-61.21,1
170,8.27,80.9,283.58,1
171,8.28,-90.69,70.11,1
172,8.29,61.96,75.4,1
173,8.31,-23.07,46.83,1
174,8.32,141.8,-6.88,1
175,8.33,76.6,-182.43,1
176,8.35,147.09,-363.74,1
177,8.36,112.16,-132.88,1
178,8.37,262.02,-464.75,1
179,8.39,-32.51,-383.38,1
180,8.4,-136.87,-6.45,1
181,8.41,-83.98,8.43,1
182,8.43,-382.46,-210.91,1
183,8.44,76.84,-316.22,1
184,8.45,-56.69,-419.47,1
185,8.47,162.07,-277.11,1
186,8.48,-214.75,158.25,1
187,8.49,-120.41,-149.5,1
188,8.51,-123.8,270.09,1
189,8.52,-38.63,-246.35,1
190,8.53,28.84,-83.43,1
191,8.55,-56.21,-89.19,1
192,8.56,51.98,206.53,1
193,8.57,-147.47,282.21,1
194,8.59,178.9,199.64,1
195,8.6,-102.8,-75.02,1
196,8.61,-13.59,-410.03,1
197,8.63,239.44,-303.07,1
198,8.64,-223.74,-31.63,1
199,8.65,128.17,86.34,1
200,8.67,-74.48,177.45,1
201,8.68,-48.39,455.87,1
202,8.69,-113.86,475.51,1
203,8.71,92.12,-6.96,1
204,8.72,-22.15,-16.28,1
205,8.73,-56.04,316.71,1
206,8.75,-193.44,138.31,1
207,8.76,-4.28,413.59,1
208,8.77,195.46,144.12,1
209,8.79,-76.87,90.73,1
210,8.8,13.08,336.83,1
211,8.81,49.39,-96.11,1
212,8.83,39.36,-81.38,1
213,8.84,79.68,-234.27,1
214,8.85,59.73,-260.93,1
215,8.87,93.95,-284.42,1
216,8.88,33.58,-202.2,1
217,8.89,37.13,-84.3,1
218,8.91,68.74,-83.4,1
219,8.92,102.63,-74.52,1
220,8.93,91.62,-43.75,1
221,8.95,84.79,11.36,1
222,8.96,77.28,29.77,1
223,8.97,87.6,-4.24,1
224,8.99,86.96,55.24,1
225,9.0,73.74,67.63,1
226,9.01,64.4,106.74,1
227,9.03,34.84,146.25,1
228,9.04,20.64,174.33,1
229,9.05,39.54,209.82,1
230,9.07,33.04,215.73,1
231,9.08,3.36,213.63,1
232,9.09,-18.46,199.44,1
233,9.11,-24.0,180.3,1
234,9.12,-2.6,163.42,1
235,9.13,-27.4,128.31,1
236,9.15,-41.49,80.45,1
237,9.16,-47.09,48.25,1
238,9.17,-44.47,19.01,1
239,9.19,-63.91,-1.06,1
240,9.2,-51.45,-21.27,1
241,9.21,-62.27,-57.71,1
242,9.23,-43.86,-74.46,1
243,9.24,-57.23,-90.98,1
244,9.25,-74.21,-95.1,1
245,9.27,-80.95,-88.03,1
246,9.28,-65.24,-128.05,1
247,9.29,-75.83,-127.17,1
248,9.31,-60.85,-147.91,1
249,9.32,-46.27,-152.69,1
250,9.33,-18.65,-124.95,1
251,9.35,-23.19,-115.18,1
252,9.36,-37.31,-114.32,1
253,9.37,-8.15,-113.94,1
254,9.39,-19.88,-115.72,1
255,9.4,-22.5,-99.06,1
256,9.41,-26.25,-88.09,1
257,9.43,-17.71,-91.23,1
258,9.44,-36.79,-79.72,1
259,9.45,-20.66,-59.27,1
260,9.47,-28.43,-50.15,1
261,9.48,-8.38,-62.54,1
262,9.49,-17.3,-50.89,1
263,9.51,10.61,-46.18,1
264,9.52,9.17,-39.01,1
265,9.53,14.13,-49.66,1
266,9.55,25.14,-37.04,1
267,9.56,4.46,-32.74,1
268,9.57,-1.12,-19.29,1
269,9.59,14.53,-13.0,1
270,9.6,15.77,-6.56,1
271,9.61,32.1,-16.36,1
272,9.63,20.95,12.04,1
273,9.64,25.62,25.77,1
274,9.65,32.17,27.52,1
275,9.67,5.82,19.14,1
276,9.68,-8.69,7.15,1
277,9.69,18.37,22.67,1
278,9.71,27.37,35.49,1
279,9.72,20.35,30.22,1
280,9.73,54.51,32.38,1
281,9.75,41.6,33.18,1
282,9.76,11.27,44.27,1
283,9.77,11.21,34.59,1
284,9.79,24.11,42.29,1
285,9.8,19.02,40.44,1
286,9.81,7.38,48.04,1
287,9.83,-4.26,26.52,1
288,9.84,14.59,33.22,1
289,9.85,5.72,30.32,1
290,9.87,2.86,50.59,1
291,9.88,13.06,32.75,1
292,9.89,24.65,17.94,1
293,9.91,9.95,48.99,1
294,9.92,-3.62,42.55,1
295,9.93,3.26,13.03,1
296,9.95,8.1,39.69,1
297,9.96,-8.38,49.89,1
298,9.97,-11.46,30.12,1
299,9.99,1.65,28.35,1
300,10.0,8.63,21.88,1
301,10.01,-72.56,21.4,1
302,10.03,-19.96,13.63,1
303,10.04,-3.97,39.87,1
304,10.05,7.33,23.33,1
305,10.07,28.56,21.59,1
306,10.08,24.34,34.08,1
307,10.09,42.94,17.54,1
308,10.11,38.87,18.97,1
309,10.12,3.62,5.66,1
310,10.13,9.88,6.95,1
311,10.15,28.62,-10.35,1
312,10.16,-15.98,48.31,1
313,10.17,-27.56,92.27,1
314,10.19,-50.1,183.63,1
315,10.2,-114.61,419.16,1
316,10.21,138.32,242.0,1
317,10.23,230.39,44.73,1
318,10.24,-182.82,-235.2,1
319,10.25,-9.88,68.02,1
320,10.27,-90.57,137.02,1
321,10.28,-83.9,-5.63,1
322,10.29,56.0,-92.6,1
323,10.31,-186.03,-6.86,1
324,10.32,-78.12,-168.8,1
325,10.33,252.98,-99.09,1
326,10.35,151.86,-35.56,1
327,10.36,202.32,-92.46,1
328,10.37,31.05,-174.27,1
329,10.39,-91.0,-375.74,1
330,10.4,80.71,-384.28,1
331,10.41,96.6,-113.69,1
332,10.43,-78.64,-20.84,1
333,10.44,107.36,-170.83,1
334,10.45,-125.8,-325.95,1
335,10.47,-374.91,-281.21,1
336,10.48,274.5,-262.54,1
337,10.49,-268.51,-397.58,1
338,10.51,-48.43,120.81,1
339,10.52,-276.1,68.12,1
340,10.53,144.59,-7.79,1
341,10.55,2.26,-210.24,1
342,10.56,-26.86,-83.72,1
343,10.57,-77.31,-15.23,1
344,10.59,248.95,339.32,1
345,10.6,-196.37,61.95,1
346,10.61,-35.9,-324.09,1
347,10.63,135.35,-192.69,1
348,10.64,-232.28,-188.18,1
349,10.65,-37.1,338.02,1
350,10.67,-82.44,377.59,1
351,10.68,-40.86,-49.38,1
352,10.69,-94.61,25.02,1
353,10.71,-90.47,216.81,1
354,10.72,141.85,260.95,1
355,10.73,112.38,302.35,1
356,10.75,-95.79,341.91,1
357,10.76,154.35,371.42,1
358,10.77,63.64,365.26,1
359,10.79,342.05,1.94,1
360,10.8,44.15,305.88,1
361,10.81,8.51,-88.08,1
362,10.83,152.45,228.38,1
363,10.84,-3.15,258.73,1
364,10.85,69.45,3.39,1
365,10.87,-40.6,88.07,1
366,10.88,60.31,-92.54,1
367,10.89,-139.36,26.27,1
368,10.91,-84.19,-8.27,1
369,10.92,-60.23,-68.57,1
370,10.93,-32.42,-89.39,1
371,10.95,-49.53,-104.93,1
372,10.96,-78.23,-131.05,1
373,10.97,-69.71,-170.55,1
374,10.99,-98.33,-240.38,1
375,11.0,-69.78,-194.9,1
376,11.01,-35.44,-174.47,1
377,11.03,6.55,-126.3,1
378,11.04,27.01,-77.51,1
379,11.05,29.23,-1.82,1
380,11.07,39.7,33.21,1
381,11.08,65.79,107.63,1
382,11.09,61.93,180.77,1
383,11.11,83.16,178.07,1
384,11.12,63.56,194.91,1
385,11.13,73.0,208.91,1
386,11.15,77.43,181.12,1
387,11.16,56.29,171.71,1
388,11.17,69.37,122.75,1
389,11.19,47.75,60.68,1
390,11.2,39.3,85.77,1
391,11.21,20.75,39.29,1
392,11.23,25.6,15.1,1
393,11.24,-5.18,2.56,1
394,11.25,-5.51,-31.0,1
395,11.27,-21.93,-36.04,1
396,11.28,16.17,-57.81,1
397,11.29,-13.97,-74.66,1
398,11.31,-5.42,-94.25,1
399,11.32,-17.3,-122.54,1
400,11.33,-1.27,-93.41,1
401,11.35,-18.23,-100.6,1
402,11.36,-14.16,-110.0,1
403,11.37,-17.93,-125.77,1
404,11.39,-21.88,-114.8,1
405,11.4,-14.76,-110.48,1
406,11.41,-33.97,-113.3,1
407,11.43,-31.86,-107.36,1
408,11.44,7.02,-110.8,1
409,11.45,-37.2,-107.56,1
410,11.47,-30.79,-96.98,1
411,11.48,-21.29,-94.57,1
412,11.49,-0.96,-80.98,1
413,11.51,-8.39,-71.89,1
414,11.52,-27.94,-33.26,1
415,11.53,-30.37,-58.88,1
416,11.55,-16.35,-75.75,1
417,11.56,-32.37,-33.96,1
418,11.57,-27.11,-20.74,1
419,11.59,-14.9,-32.97,1
420,11.6,-14.7,-39.1,1
421,11.61,-20.5,-27.21,1
422,11.63,-2.33,-18.26,1
423,11.64,7.29,6.95,1
424,11.65,-15.67,10.24,1
425,11.67,-37.99,8.82,1
426,11.68,-24.63,22.6,1
427,11.69,5.91,4.85,1
428,11.71,-6.28,20.16,1
429,11.72,-1.86,30.36,1
430,11.73,-10.23,8.77,1
431,11.75,-3.14,19.38,1
432,11.76,-10.42,43.15,1
433,11.77,-24.74,43.19,1
434,11.79,1.72,49.23,1
435,11.8,6.3,63.36,1
436,11.81,-10.23,42.62,1
437,11.83,4.77,48.58,1
438,11.84,3.8,36.29,1
439,11.85,33.14,39.01,1
440,11.87,-22.3,41.85,1
441,11.88,7.64,50.01,1
442,11.89,-2.65,40.89,1
443,11.91,31.17,47.76,1
444,11.92,25.7,33.29,1
445,11.93,12.88,26.41,1
446,11.95,3.83,39.85,1
447,11.96,26.48,20.29,1
448,11.97,9.49,34.93,1
449,11.99,18.32,18.45,1
450,12.0,21.36,26.57,1
451,12.01,7.94,38.31,1
452,12.03,-32.99,35.57,1
453,12.04,-9.47,38.01,1
454,12.05,17.48,19.0,1
455,12.07,29.36,16.83,1
456,12.08,-2.77,30.5,1
457,12.09,8.22,28.08,1
458,12.11,53.62,3.73,1
459,12.12,-18.11,11.16,1
460,12.13,26.98,36.84,1
461,12.15,12.45,33.78,1
462,12.16,2.84,167.98,1
463,12.17,-116.72,372.19,1
464,12.19,11.01,129.35,1
465,12.2,31.17,7.44,1
466,12.21,67.59,-281.34,1
467,12.23,96.44,120.17,1
468,12.24,81.98,134.66,1
469,12.25,35.85,-87.46,1
470,12.27,99.19,292.51,1
471,12.28,-92.8,49.35,1
472,12.29,38.52,48.3,1
473,12.31,-98.2,-269.52,1
474,12.32,-16.21,-277.54,1
475,12.33,-149.37,-248.14,1
476,12.35,-270.07,-317.94,1
477,12.36,116.14,-99.31,1
478,12.37,123.71,-93.16,1
479,12.39,-67.02,-211.82,1
480,12.4,194.9,-51.09,1
481,12.41,306.13,145.75,1
482,12.43,151.03,-310.88,1
483,12.44,79.72,-242.84,1
484,12.45,-84.54,235.55,1
485,12.47,-38.58,-160.52,1
486,12.48,-459.4,-359.86,1
487,12.49,-188.78,-185.83,1
488,12.51,117.55,-37.37,1
489,12.52,192.38,153.78,1
490,12.53,-44.14,306.44,1
491,12.55,-268.74,-113.58,1
492,12.56,34.35,-101.48,1
493,12.57,-160.31,-266.56,1
494,12.59,136.13,95.13,1
495,12.6,-315.32,-3.24,1
496,12.61,-14.41,217.73,1
497,12.63,11.86,199.49,1
498,12.64,70.23,-249.67,1
499,12.65,-267.28,-37.11,1
500,12.67,-51.86,72.81,1
501,12.68,250.47,214.08,1
502,12.69,81.6,174.53,1
503,12.71,-33.83,74.64,1
504,12.72,267.0,663.94,1
505,12.73,-89.85,157.26,1
506,12.75,-50.13,-128.16,1
507,12.76,372.42,-38.63,1
508,12.77,156.95,326.07,1
509,12.79,89.8,177.87,1
510,12.8,6.89,-166.55,1
511,12.81,-89.22,-110.29,1
512,12.83,-390.22,-229.46,1
513,12.84,-82.89,-4.8,1
514,12.85,-163.47,-46.08,1
515,12.87,-1.54,78.03,1
516,12.88,-7.95,10.01,1
517,12.89,41.34,-49.67,1
518,12.91,18.23,-59.95,1
519,12.92,108.08,-225.1,1
520,12.93,79.25,-29.17,1
521,12.95,83.67,-72.28,1
522,12.96,24.75,76.25,1
523,12.97,13.58,-86.59,1
524,12.99,23.87,-2.89,1
525,13.0,-12.14,24.79,1
526,13.01,-17.27,42.5,1
527,13.03,-35.44,93.59,1
528,13.04,-12.17,134.63,1
529,13.05,-3.79,146.43,1
530,13.07,-12.75,187.27,1
531,13.08,-27.16,180.42,1
532,13.09,8.91,157.41,1
533,13.11,6.46,152.91,1
534,13.12,18.94,142.78,1
535,13.13,46.32,118.39,1
536,13.15,31.55,91.45,1
537,13.16,15.64,57.54,1
538,13.17,16.3,35.71,1
539,13.19,39.71,15.15,1
540,13.2,37.48,3.83,1
541,13.21,19.62,-33.7,1
542,13.23,-9.61,-37.93,1
543,13.24,14.17,-57.94,1
544,13.25,59.36,-84.69,1
545,13.27,19.83,-74.91,1
546,13.28,6.62,-110.11,1
547,13.29,11.05,-106.89,1
548,13.31,-14.83,-111.25,1
549,13.32,-21.71,-120.63,1
550,13.33,-22.31,-130.64,1
551,13.35,-11.64,-99.01,1
552,13.36,-35.92,-104.95,1
553,13.37,-37.51,-95.52,1
554,13.39,-38.4,-92.25,1
555,13.4,9.12,-102.52,1
556,13.41,-7.08,-90.87,1
557,13.43,-24.55,-77.41,1
558,13.44,-25.35,-89.55,1
559,13.45,-0.1,-72.02,1
560,13.47,-1.44,-80.02,1
561,13.48,-14.71,-64.84,1
562,13.49,-2.62,-44.68,1
563,13.51,2.4,-67.17,1
564,13.52,-28.34,-40.93,1
565,13.53,6.03,-42.98,1
566,13.55,-8.38,-35.72,1
567,13.56,1.3,-30.99,1
568,13.57,-31.28,-26.65,1
569,13.59,-24.19,-14.19,1
570,13.6,7.63,-4.01,1
571,13.61,2.96,3.85,1
572,13.63,6.75,-3.26,1
573,13.64,5.24,3.77,1
574,13.65,6.52,6.83,1
575,13.67,-15.03,24.49,1
576,13.68,-11.03,61.09,1
577,13.69,-11.37,34.02,1
578,13.71,7.78,41.69,1
579,13.72,-7.23,39.87,1
580,13.73,1.4,33.43,1
581,13.75,-3.69,39.43,1
582,13.76,22.33,42.11,1
583,13.77,-2.84,51.25,1
584,13.79,-11.91,35.07,1
585,13.8,-3.53,44.67,1
586,13.81,20.61,44.87,1
587,13.83,7.9,31.72,1
588,13.84,-1.63,28.99,1
589,13.85,4.69,41.9,1
590,13.87,-8.17,56.25,1
591,13.88,-16.5,38.19,1
592,13.89,22.98,24.95,1
593,13.91,14.96,13.71,1
594,13.92,0.55,44.01,1
595,13.93,3.95,46.95,1
596,13.95,-9.47,25.16,1
597,13.96,12.89,42.04,1
598,13.97,-23.85,32.18,1
599,13.99,-11.16,25.82,1
600,14.0,1.09,8.09,1
601,14.01,22.23,29.46,1
602,14.03,-37.17,24.29,1
603,14.04,-24.25,3.54,1
604,14.05,-12.07,0.44,1
605,14.07,25.27,34.55,1
606,14.08,-16.95,-1.72,1
607,14.09,-0.27,-27.52,1
608,14.11,-35.05,116.87,1
609,14.12,143.48,266.06,1
610,14.13,153.68,306.99,1
611,14.15,52.35,94.17,1
612,14.16,53.58,198.33,1
613,14.17,-39.11,-52.89,1
614,14.19,-13.42,212.02,1
615,14.2,292.45,84.15,1
616,14.21,-29.68,74.51,1
617,14.23,-116.57,5.2,1
618,14.24,174.45,-83.25,1
619,14.25,-127.66,-197.74,1
620,14.27,-181.13,-208.89,1
621,14.28,-195.08,-226.11,1
622,14.29,244.45,-80.85,1
623,14.31,-50.99,-243.02,1
624,14.32,-68.9,-676.16,1
625,14.33,-435.31,-597.75,1
626,14.35,120.87,-52.18,1
627,14.36,103.55,-65.26,1
628,14.37,82.26,-208.63,1
629,14.39,-387.13,-171.43,1
630,14.4,-206.1,-204.57,1
631,14.41,32.23,-96.37,1
632,14.43,89.24,-145.14,1
633,14.44,-31.98,116.61,1
634,14.45,151.64,208.59,1
635,14.47,-55.02,-306.04,1
636,14.48,174.08,143.18,1
637,14.49,33.01,150.05,1
638,14.51,42.58,-167.79,1
639,14.52,-138.25,-173.88,1
640,14.53,42.1,133.85,1
641,14.55,-128.86,220.08,1
642,14.56,-179.32,17.03,1
643,14.57,20.05,-48.84,1
644,14.59,-24.63,367.08,1
645,14.6,-32.03,115.19,1
646,14.61,-285.16,418.07,1
647,14.63,293.56,487.85,1
648,14.64,138.17,100.23,1
649,14.65,292.99,246.85,1
650,14.67,36.3,98.21,1
651,14.68,248.47,351.41,1
652,14.69,-212.58,172.04,1
653,14.71,218.73,-73.58,1
654,14.72,-154.4,471.88,1
655,14.73,46.13,-178.35,1
656,14.75,-199.88,-327.18,1
657,14.76,43.81,-359.12,1
658,14.77,32.11,-120.22,1
659,14.79,136.02,152.36,1
660,14.8,202.37,177.0,1
661,14.81,-144.36,215.04,1
662,14.83,-1.05,-125.13,1
663,14.84,83.51,14.04,1
664,14.85,52.78,-26.63,1
665,14.87,-14.87,-200.16,1
666,14.88,-7.16,-248.95,1
667,14.89,-35.33,-161.23,1
668,14.91,-54.22,-70.98,1
669,14.92,-56.73,-40.36,1
670,14.93,-72.42,-16.65,1
671,14.95,-55.41,-48.23,1
672,14.96,-56.12,-46.5,1
673,14.97,-3.51,-15.63,1
674,14.99,14.03,1.61,1
675,15.0,27.3,20.55,1
676,15.01,32.54,40.0,1
677,15.03,56.55,71.13,1
678,15.04,79.42,104.42,1
679,15.05,65.32,116.72,1
680,15.07,53.09,140.67,1
681,15.08,41.39,117.87,1
682,15.09,77.46,117.59,1
683,15.11,32.12,109.12,1
684,15.12,20.03,84.88,1
685,15.13,17.25,80.77,1
686,15.15,33.35,58.46,1
687,15.16,17.42,20.69,1
688,15.17,5.91,5.22,1
689,15.19,-14.99,-15.74,1
690,15.2,-10.28,-63.39,1
691,15.21,-34.96,-62.91,1
692,15.23,-31.62,-51.91,1
693,15.24,-28.15,-67.63,1
694,15.25,11.33,-67.66,1
695,15.27,-23.41,-90.8,1
696,15.28,-47.95,-79.04,1
697,15.29,-43.94,-75.1,1
698,15.31,-41.99,-91.18,1
699,15.32,-49.7,-103.16,1
700,15.33,-50.18,-70.33,1
701,15.35,-34.17,-66.27,1
702,15.36,-54.49,-65.5,1
703,15.37,-50.38,-59.5,1
704,15.39,-40.24,-70.29,1
705,15.4,-31.22,-70.18,1
706,15.41,-40.92,-88.29,1
707,15.43,-35.31,-73.68,1
708,15.44,-13.21,-64.11,1
709,15.45,6.66,-79.12,1
710,15.47,-37.4,-57.52,1
711,15.48,-43.44,-24.08,1
712,15.49,-17.44,-16.06,1
713,15.51,22.31,-12.44,1
714,15.52,2.8,-14.13,1
715,15.53,-7.55,12.21,1
716,15.55,-5.66,0.98,1
717,15.56,19.81,-1.59,1
718,15.57,-2.06,-18.15,1
719,15.59,1.81,-7.94,1
720,15.6,-12.95,6.12,1
721,15.61,11.94,13.16,1
722,15.63,-4.07,12.9,1
723,15.64,9.58,10.19,1
724,15.65,1.6,39.49,1
725,15.67,16.88,17.87,1
726,15.68,7.6,7.25,1
727,15.69,-1.88,41.16,1
728,15.71,10.28,55.21,1
729,15.72,30.85,26.49,1
730,15.73,3.82,43.25,1
731,15.75,-7.87,43.0,1
732,15.76,18.19,41.31,1
733,15.77,28.78,27.7,1
734,15.79,13.03,21.8,1
735,15.8,7.32,44.54,1
736,15.81,22.62,31.71,1
737,15.83,17.61,27.35,1
738,15.84,25.67,39.14,1
739,15.85,7.95,32.12,1
740,15.87,19.01,22.73,1
741,15.88,10.01,19.0,1
742,15.89,-2.72,31.21,1
743,15.91,16.21,28.46,1
744,15.92,23.86,10.48,1
745,15.93,7.39,10.94,1
746,15.95,5.28,25.12,1
747,15.96,-16.03,35.25,1
748,15.97,29.84,12.56,1
749,15.99,2.94,22.53,1
750,16.0,-2.41,20.69,1
751,16.01,-25.94,17.71,1
752,16.03,-57.21,1.72,1
753,16.04,-14.56,4.0,1
754,16.05,18.28,32.27,1
755,16.07,-2.92,11.75,1
756,16.08,23.92,-5.71,1
757,16.09,27.79,-6.74,1
758,16.11,-9.7,-6.41,1
759,16.12,42.64,26.23,1
760,16.13,9.37,5.61,1
761,16.15,7.53,13.61,1
762,16.16,44.46,132.74,1
763,16.17,83.74,111.88,1
764,16.19,-17.4,314.32,1
765,16.2,-23.25,288.15,1
766,16.21,-37.42,86.11,1
767,16.23,-88.04,-262.11,1
768,16.24,-55.35,-303.46,1
769,16.25,177.6,-31.65,1
770,16.27,143.9,255.29,1
771,16.28,-375.61,103.53,1
772,16.29,-59.11,48.67,1
773,16.31,-5.52,-63.1,1
774,16.32,108.92,-144.03,1
775,16.33,-25.54,-260.97,1
776,16.35,155.17,-60.52,1
777,16.36,119.95,-168.19,1
778,16.37,-35.54,-101.14,1
779,16.39,51.43,-287.12,1
780,16.4,75.88,31.32,1
781,16.41,60.84,-343.31,1
782,16.42,-119.06,-149.09,1
783,16.44,70.8,-154.0,1
784,16.45,-191.13,-102.78,1
785,16.47,-55.11,-232.87,1
786,16.48,-55.16,-152.96,1
787,16.49,253.27,168.21,1
788,16.51,-181.25,-201.39,1
789,16.52,-50.87,-413.01,1
790,16.53,98.06,2.99,1
791,16.55,-185.56,313.98,1
792,16.56,-28.58,-113.23,1
793,16.57,-207.39,0.23,1
794,16.59,-77.6,450.68,1
795,16.6,7.03,-2.83,1
796,16.61,-34.49,-218.02,1
797,16.63,252.94,184.78,1
798,16.64,-185.52,149.71,1
799,16.65,11.07,230.9,1
800,16.67,117.27,63.04,1
801,16.68,-131.54,-60.81,1
802,16.69,134.73,268.9,1
803,16.71,-40.32,275.16,1
804,16.72,145.12,75.37,1
805,16.73,-64.17,111.55,1
806,16.75,151.68,75.63,1
807,16.76,25.74,-271.31,1
808,16.77,136.86,-121.81,1
809,16.79,-35.62,426.68,1
810,16.8,-14.89,194.91,1
811,16.81,205.34,164.88,1
812,16.83,-28.29,-8.14,1
813,16.84,-218.25,133.51,1
814,16.85,-200.32,-163.63,1
815,16.87,-71.33,-0.2,1
816,16.88,-266.49,-243.13,1
817,16.89,71.23,-410.36,1
818,16.91,174.05,-225.54,1
819,16.92,-43.33,151.18,1
820,16.93,-262.77,250.39,1
821,16.95,-129.95,-130.87,1
822,16.96,38.91,-32.09,1
823,16.97,-38.36,32.43,1
824,16.99,74.94,-144.21,1
825,17.0,30.76,3.15,1
826,17.01,49.47,-76.8,1
827,17.03,26.62,-56.21,1
828,17.04,30.76,-131.62,1
829,17.05,51.92,-102.79,1
830,17.06,37.33,-30.79,1
831,17.08,34.51,-68.29,1
832,17.09,44.8,-45.0,1
833,17.11,84.92,17.3,1
834,17.12,87.46,29.86,1
835,17.13,108.13,55.5,1
836,17.15,113.63,72.07,1
837,17.16,115.25,100.53,1
838,17.17,89.92,133.27,1
839,17.19,74.11,153.68,1
840,17.2,66.9,166.23,1
841,17.21,77.68,213.65,1
842,17.23,63.1,209.73,1
843,17.24,38.01,216.59,1
844,17.25,39.78,191.63,1
845,17.27,13.19,177.81,1
846,17.28,21.59,153.36,1
847,17.29,-13.55,140.7,1
848,17.31,2.89,115.04,1
849,17.32,-12.5,85.9,1
850,17.33,-15.62,51.67,1
851,17.35,-17.04,19.92,1
852,17.36,-26.3,-9.71,1
853,17.37,-36.75,-19.18,1
854,17.39,-58.12,-35.31,1
855,17.4,-54.07,-62.41,1
856,17.41,-38.35,-71.86,1
857,17.43,-59.57,-91.59,1
858,17.44,-59.49,-90.56,1
859,17.45,-68.26,-102.23,1
860,17.47,-30.76,-97.07,1
861,17.48,-44.12,-99.14,1
862,17.49,-65.52,-111.52,1
863,17.51,-65.91,-123.16,1
864,17.52,-35.44,-99.33,1
865,17.53,-50.78,-104.83,1
866,17.55,-40.96,-108.91,1
867,17.56,-48.15,-117.98,1
868,17.57,-24.29,-99.79,1
869,17.59,-39.53,-118.02,1
870,17.6,-29.52,-96.64,1
871,17.61,-4.86,-105.69,1
872,17.63,-27.0,-84.44,1
873,17.64,-39.47,-83.35,1
874,17.65,-36.2,-84.6,1
875,17.67,-9.88,-60.01,1
876,17.68,-16.42,-58.36,1
877,17.69,-17.69,-51.63,1
878,17.7,-20.9,-56.51,1
879,17.72,1.3,-48.81,1
880,17.73,-2.69,-49.21,1
881,17.75,-15.65,-21.75,1
882,17.76,3.11,-16.13,1
883,17.77,15.1,-12.59,1
884,17.79,11.18,-9.36,1
885,17.8,3.57,-16.38,1
886,17.81,9.7,-4.89,1
887,17.83,27.13,-1.67,1
888,17.84,24.19,-5.6,1
889,17.85,8.56,11.15,1
890,17.87,-1.13,30.45,1
891,17.88,31.85,20.32,1
892,17.89,24.47,40.12,1
893,17.91,11.63,18.62,1
894,17.92,15.89,42.12,1
895,17.93,26.95,52.21,1
896,17.95,26.65,40.62,1
897,17.96,22.81,43.64,1
898,17.97,16.88,65.4,1
899,17.99,14.11,50.34,1
900,18.0,10.8,39.93,1
901,18.01,20.11,27.9,1
902,18.03,15.13,49.36,1
903,18.04,-44.5,49.45,1
904,18.05,8.45,44.17,1
905,18.07,-9.97,49.78,1
906,18.08,54.26,44.46,1
907,18.09,40.47,42.43,1
908,18.11,13.3,25.54,1
909,18.12,42.67,20.1,1
910,18.13,24.7,34.67,1
911,18.15,12.24,25.34,1
912,18.16,62.36,26.01,1
913,18.17,26.9,32.98,1
914,18.19,23.53,45.51,1
915,18.2,9.39,34.96,1
916,18.21,-10.23,15.71,1
917,18.23,12.83,21.17,1
918,18.24,68.23,24.31,1
919,18.25,-6.37,21.76,1
920,18.27,-1.22,17.62,1
921,18.28,-24.13,52.06,1
922,18.29,-13.54,116.09,1
923,18.31,-68.47,107.49,1
924,18.32,-205.97,228.77,1
925,18.33,148.25,268.06,1
926,18.34,-193.52,25.55,1
927,18.36,131.76,57.98,1
928,18.37,-168.18,199.58,1
929,18.39,38.0,44.49,1
930,18.4,42.07,100.93,1
931,18.41,-2.16,-33.37,1
932,18.43,171.89,-154.22,1
933,18.44,139.46,-128.16,1
934,18.45,-84.63,-101.98,1
935,18.47,191.68,-368.73,1
936,18.48,44.83,-388.41,1
937,18.49,67.59,-344.74,1
938,18.51,141.51,-314.44,1
939,18.52,-69.23,-356.71,1
940,18.53,-12.9,-433.2,1
941,18.55,-13.17,-127.35,1
942,18.56,-272.18,181.66,1
943,18.57,-129.41,-361.25,1
944,18.59,31.86,-41.98,1
945,18.6,-214.54,5.57,1
946,18.61,-71.41,107.58,1
947,18.63,45.57,-192.46,1
948,18.64,-40.82,-136.81,1
949,18.65,157.29,34.37,1
950,18.67,-128.93,253.12,1
951,18.68,-161.91,-26.84,1
952,18.69,-55.16,121.65,1
953,18.71,-53.23,-118.39,1
954,18.72,13.45,208.28,1
955,18.73,162.29,45.35,1
956,18.75,60.99,76.28,1
957,18.76,72.71,353.71,1
958,18.77,-282.86,317.18,1
959,18.79,-85.95,-33.72,1
960,18.8,-8.61,-13.75,1
961,18.81,200.47,342.36,1
962,18.83,20.27,509.98,1
963,18.84,-77.04,117.26,1
964,18.85,-58.21,40.32,1
965,18.87,-220.44,240.71,1
966,18.88,9.77,199.01,1
967,18.89,-205.48,199.62,1
968,18.91,-134.21,141.4,1
969,18.92,212.11,234.57,1
970,18.93,107.58,-180.53,1
971,18.95,215.07,-261.26,1
972,18.96,-15.47,-251.7,1
973,18.97,52.29,337.95,1
974,18.98,-62.6,-144.02,1
975,19.0,91.71,-216.21,1
976,19.01,-109.19,-236.63,1
977,19.02,115.98,234.39,1
978,19.04,153.45,219.56,1
979,19.05,188.35,1.91,1
980,19.07,-0.1,31.21,1
981,19.08,17.23,-12.2,1
982,19.09,-16.27,-186.61,1
983,19.11,-104.39,-338.96,1
984,19.12,68.82,-157.35,1
985,19.13,24.94,-161.03,1
986,19.15,39.37,-189.51,1
987,19.16,55.46,-243.2,1
988,19.17,60.85,-249.1,1
989,19.19,64.46,-221.88,1
990,19.2,46.17,-154.57,1
991,19.21,40.57,-144.18,1
992,19.23,30.95,-114.95,1
993,19.24,26.62,-52.81,1
994,19.25,52.66,-37.07,1
995,19.27,63.01,10.32,1
996,19.28,14.86,69.88,1
997,19.29,-13.36,136.84,1
998,19.31,-22.09,197.52,1
999,19.32,-16.73,225.31,1
1000,19.33,-23.32,214.86,1
1001,19.35,-28.38,205.32,1
1002,19.36,-55.83,194.08,1
1003,19.37,-18.1,169.87,1
1004,19.39,-16.81,144.93,1
1005,19.4,-30.85,124.87,1
1006,19.41,-15.44,93.58,1
1007,19.43,-17.53,81.16,1
1008,19.44,-25.4,64.71,1
1009,19.45,-33.31,32.81,1
1010,19.47,-32.85,25.62,1
1011,19.48,-67.37,23.43,1
1012,19.49,-56.8,-21.02,1
1013,19.51,-36.09,-22.04,1
1014,19.52,-7.91,-34.03,1
1015,19.53,-17.53,-41.48,1
1016,19.55,-16.72,-42.27,1
1017,19.56,-22.85,-42.81,1
1018,19.57,22.42,-36.79,1
1019,19.59,10.94,-43.58,1
1020,19.6,-3.34,-49.41,1
1021,19.61,-15.43,-58.25,1
1022,19.62,-15.98,-62.51,1
1023,19.64,3.42,-69.8,1
1024,19.65,0.41,-71.27,1
1025,19.67,-7.29,-47.87,1
1026,19.68,-15.18,-40.26,1
1027,19.69,-27.66,-39.75,1
1028,19.71,-14.93,-48.27,1
1029,19.72,-12.07,-54.27,1
1030,19.73,14.0,-53.19,1
1031,19.75,-19.31,-76.29,1
1032,19.76,-4.07,-52.21,1
1033,19.77,-7.51,-40.98,1
1034,19.79,0.83,-31.16,1
1035,19.8,-15.59,-40.2,1
1036,19.81,-9.38,-29.44,1
1037,19.83,-7.95,-34.88,1
1038,19.84,12.5,-20.1,1
1039,19.85,2.74,-32.77,1
1040,19.87,1.83,-19.53,1
1041,19.88,2.21,-2.76,1
1042,19.89,-7.16,-9.02,1
1043,19.91,6.99,-0.86,1
1044,19.92,-12.39,3.91,1
1045,19.93,14.58,6.26,1
1046,19.95,-14.05,8.89,1
1047,19.96,4.41,12.24,1
1048,19.97,11.45,14.62,1
1049,19.99,16.07,26.61,1
1050,20.0,-0.71,14.42,1
1051,20.01,-9.31,19.17,1
1052,20.03,-22.06,18.86,1
1053,20.04,-57.77,25.6,1
1054,20.05,16.63,23.97,1
1055,20.07,2.49,27.94,1
1056,20.08,19.83,28.35,1
1057,20.09,40.31,38.74,1
1058,20.11,11.37,17.1,1
1059,20.12,40.24,19.65,1
1060,20.13,5.6,14.62,1
1061,20.15,17.25,15.12,1
1062,20.16,33.69,22.49,1
1063,20.17,4.06,29.07,1
1064,20.19,15.24,39.65,1
1065,20.2,101.45,210.3,1
1066,20.21,232.65,432.6,1
1067,20.23,-160.06,194.08,1
1068,20.24,72.41,76.91,1
1069,20.25,-153.23,-130.16,1
1070,20.26,-38.06,100.51,1
1071,20.28,261.65,-103.98,1
1072,20.29,227.57,-84.3,1
1073,20.3,-165.21,224.98,1
1074,20.32,-79.82,-16.09,1
1075,20.33,-144.27,129.86,1
1076,20.35,-111.53,31.3,1
1077,20.36,29.16,-148.78,1
1078,20.37,-131.96,-557.02,1
1079,20.39,313.93,-539.53,1
1080,20.4,-174.29,-425.6,1
1081,20.41,-48.24,-18.78,1
1082,20.43,46.27,-267.27,1
1083,20.44,-170.57,-159.21,1
1084,20.45,197.18,446.81,1
1085,20.47,-164.75,-117.22,1
1086,20.48,-74.76,-261.79,1
1087,20.49,-3.73,322.18,1
1088,20.51,179.75,-271.92,1
1089,20.52,0.53,125.83,1
1090,20.53,-340.08,17.44,1
1091,20.55,50.77,160.11,1
1092,20.56,-56.21,-323.88,1
1093,20.57,242.36,-223.61,1
1094,20.59,-163.1,-325.22,1
1095,20.6,-30.04,-17.71,1
1096,20.61,181.15,197.65,1
1097,20.63,109.46,486.12,1
1098,20.64,128.02,-88.55,1
1099,20.65,-214.59,2.42,1
1100,20.67,197.08,301.93,1
1101,20.68,-29.42,354.91,1
1102,20.69,-283.06,98.86,1
1103,20.71,-224.66,156.17,1
1104,20.72,-146.63,322.97,1
1105,20.73,43.68,-314.93,1
1106,20.75,-261.18,-112.88,1
1107,20.76,-95.23,-38.11,1
1108,20.77,-36.86,-77.15,1
1109,20.79,368.93,229.96,1
1110,20.8,32.15,162.35,1
1111,20.81,421.99,255.43,1
1112,20.83,-201.62,145.75,1
1113,20.84,-12.55,400.86,1
1114,20.85,11.08,382.9,1
1115,20.87,186.13,398.26,1
1116,20.88,293.31,46.34,1
1117,20.89,-26.25,-428.06,1
1118,20.9,203.56,-312.36,1
1119,20.92,-153.03,114.41,1
1120,20.93,-102.37,357.4,1
1121,20.94,63.54,-170.43,1
1122,20.96,72.7,-534.92,1
1123,20.97,155.01,-179.9,1
1124,20.99,193.02,-11.21,1
1125,21.0,-95.42,-399.84,1
1126,21.01,124.49,68.0,1
1127,21.03,58.95,121.49,1
1128,21.04,-19.74,-34.73,1
1129,21.05,-136.01,-52.58,1
1130,21.07,-251.92,-69.76,1
1131,21.08,13.01,-93.25,1
1132,21.09,-68.76,-80.25,1
1133,21.11,-63.66,-136.99,1
1134,21.12,-53.81,-157.96,1
1135,21.13,-48.49,-111.53,1
1136,21.15,-73.85,-68.21,1
1137,21.16,-25.68,3.12,1
1138,21.17,-25.02,-19.17,1
1139,21.19,-16.92,1.75,1
1140,21.2,-9.02,11.79,1
1141,21.21,-20.59,23.9,1
1142,21.23,-0.9,28.0,1
1143,21.24,-8.45,54.86,1
1144,21.25,-3.08,77.35,1
1145,21.27,-8.58,106.78,1
1146,21.28,19.19,129.63,1
1147,21.29,7.71,102.23,1
1148,21.31,5.92,100.58,1
1149,21.32,7.58,101.98,1
1150,21.33,18.55,72.62,1
1151,21.35,24.18,51.8,1
1152,21.36,12.06,51.78,1
1153,21.37,24.48,38.23,1
1154,21.39,10.39,-3.62,1
1155,21.4,12.52,-16.26,1
1156,21.41,5.86,-36.44,1
1157,21.43,14.16,-35.13,1
1158,21.44,-1.42,-45.54,1
1159,21.45,-9.44,-52.81,1
1160,21.47,-10.65,-53.22,1
1161,21.48,-10.21,-79.42,1
1162,21.49,-3.43,-60.02,1
1163,21.51,-20.6,-53.37,1
1164,21.52,-10.93,-51.58,1
1165,21.53,-3.16,-44.37,1
1166,21.54,13.06,-35.47,1
1167,21.56,-7.23,-34.38,1
1168,21.57,-7.0,-27.47,1
1169,21.58,13.18,-31.4,1
1170,21.6,-0.17,-32.67,1
1171,21.61,1.84,-35.75,1
1172,21.625,-14.45,-35.72,1
1173,21.64,6.42,-21.19,1
1174,21.65,2.9,-14.01,1
1175,21.67,-8.45,-18.17,1
1176,21.68,-7.42,-25.72,1
1177,21.69,11.47,-26.78,1
1178,21.71,-5.23,-12.8,1
1179,21.72,-14.38,-21.39,1
1180,21.73,-19.73,-7.16,1
1181,21.75,2.96,-2.04,1
1182,21.76,11.65,-11.04,1
1183,21.77,4.15,3.07,1
1184,21.79,0.47,8.55,1
1185,21.8,-3.54,6.82,1
1186,21.81,1.29,8.25,1
1187,21.83,3.34,20.72,1
1188,21.84,14.25,31.13,1
1189,21.85,-3.67,20.89,1
1190,21.87,1.17,7.76,1
1191,21.88,-3.25,10.84,1
1192,21.89,18.96,2.87,1
1193,21.91,-10.13,27.41,1
1194,21.92,-15.31,28.79,1
1195,21.93,-11.91,30.24,1
1196,21.95,18.25,28.99,1
1197,21.96,2.09,14.74,1
1198,21.97,5.32,13.46,1
1199,21.99,-14.21,9.61,1
1200,22.0,-17.53,-2.35,1
1201,22.01,-2.48,19.48,1
1202,22.03,4.47,21.41,1
1203,22.04,-62.19,34.71,1
1204,22.05,-7.32,25.76,1
1205,22.07,-21.43,-0.26,1
1206,22.08,18.15,13.75,1
1207,22.09,22.14,13.17,1
1208,22.11,28.91,10.52,1
1209,22.12,42.22,21.34,1
1210,22.13,13.78,27.17,1
1211,22.15,18.99,41.66,1
1212,22.16,33.39,41.48,1
1213,22.17,2.66,30.15,1
1214,22.18,8.98,78.08,1
1215,22.2,117.26,98.87,1
1216,22.21,2.69,287.66,1
1217,22.22,-139.19,224.19,1
1218,22.24,35.08,1.79,1
1219,22.25,-77.47,61.17,1
1220,22.26,-326.95,-108.32,1
1221,22.28,-21.34,149.52,1
1222,22.29,338.21,-116.29,1
1223,22.31,222.01,57.64,1
1224,22.32,330.33,128.11,1
1225,22.33,-63.78,-29.76,1
1226,22.35,-35.45,-108.14,1
1227,22.36,-275.66,-143.19,1
1228,22.37,-72.63,-620.01,1
1229,22.39,220.56,-97.82,1
1230,22.4,-11.7,85.7,1
1231,22.41,-159.84,-66.17,1
1232,22.43,42.54,160.82,1
1233,22.44,10.74,-89.15,1
1234,22.45,-17.41,-329.3,1
1235,22.47,-0.15,-155.35,1
1236,22.48,72.37,118.52,1
1237,22.49,-379.98,-205.56,1
1238,22.51,65.14,-275.39,1
1239,22.52,-184.57,-349.33,1
1240,22.53,274.18,-265.97,1
1241,22.55,-421.83,298.39,1
1242,22.56,-162.34,-32.74,1
1243,22.57,7.8,233.7,1
1244,22.59,50.92,-232.17,1
1245,22.6,-35.61,-267.89,1
1246,22.61,92.55,-30.44,1
1247,22.63,155.53,119.99,1
1248,22.64,273.65,-23.92,1
1249,22.65,90.63,222.35,1
1250,22.67,287.21,-47.27,1
1251,22.68,-92.34,46.1,1
1252,22.69,79.16,-69.53,1
1253,22.71,-26.7,-196.99,1
1254,22.72,107.12,129.99,1
1255,22.73,159.95,-193.85,1
1256,22.75,-152.96,54.45,1
1257,22.76,-122.08,422.16,1
1258,22.77,-6.81,392.72,1
1259,22.79,92.66,576.03,1
1260,22.8,-272.88,197.81,1
1261,22.81,-180.73,239.9,1
1262,22.82,-150.53,72.14,1
1263,22.84,-64.5,200.62,1
1264,22.85,-56.7,84.48,1
1265,22.86,64.35,-36.41,1
1266,22.88,1.97,5.1,1
1267,22.89,80.57,-26.05,1
1268,22.9,14.92,345.54,1
1269,22.92,-274.76,-86.45,1
1270,22.93,-86.31,-238.23,1
1271,22.95,-16.94,233.98,1
1272,22.96,-251.33,-249.46,1
1273,22.97,90.64,-130.51,1
1274,22.99,132.98,3.1,1
1275,23.0,52.88,-184.93,1
1276,23.01,80.65,-206.9,1
1277,23.03,140.14,-17.09,1
1278,23.04,-12.37,35.75,1
1279,23.05,47.88,-18.22,1
1280,23.07,39.23,-16.02,1
1281,23.08,-17.09,-105.67,1
1282,23.09,9.44,-98.41,1
1283,23.11,17.71,-123.29,1
1284,23.12,21.08,-56.15,1
1285,23.13,37.77,-57.78,1
1286,23.15,51.58,-31.97,1
1287,23.16,33.2,-45.03,1
1288,23.17,28.91,-15.68,1
1289,23.19,62.03,-1.41,1
1290,23.2,38.85,39.76,1
1291,23.21,33.17,52.9,1
1292,23.23,50.99,79.68,1
1293,23.24,44.98,112.73,1
1294,23.25,53.86,146.98,1
1295,23.27,52.67,156.42,1
1296,23.28,53.92,156.67,1
1297,23.29,43.26,144.72,1
1298,23.31,35.91,144.99,1
1299,23.32,33.9,108.32,1
1300,23.33,28.27,68.12,1
1301,23.35,19.73,56.98,1
1302,23.36,5.32,20.22,1
1303,23.37,12.13,-4.51,1
1304,23.39,14.48,-30.46,1
1305,23.4,-3.33,-31.72,1
1306,23.41,-23.69,-36.9,1
1307,23.43,-30.89,-57.22,1
1308,23.44,-5.67,-58.38,1
1309,23.45,-19.6,-77.24,1
1310,23.46,-32.02,-95.74,1
1311,23.48,-36.12,-88.19,1
1312,23.49,-17.32,-94.24,1
1313,23.5,-33.65,-85.44,1
1314,23.52,-35.63,-78.12,1
1315,23.53,-29.22,-72.57,1
1316,23.54,-24.56,-110.59,1
1317,23.56,-38.12,-77.4,1
1318,23.57,-41.7,-72.97,1
1319,23.59,-41.66,-79.68,1
1320,23.6,-22.87,-61.65,1
1321,23.61,-51.26,-70.87,1
1322,23.63,-32.0,-65.37,1
1323,23.64,-18.06,-60.22,1
1324,23.65,-24.54,-48.96,1
1325,23.67,-22.41,-59.26,1
1326,23.68,-27.1,-42.41,1
1327,23.69,-11.62,-33.5,1
1328,23.71,-27.85,-37.79,1
1329,23.72,-31.23,-21.15,1
1330,23.73,-28.4,-27.62,1
1331,23.75,-0.65,-37.96,1
1332,23.76,-21.51,-28.5,1
1333,23.77,-18.08,6.88,1
1334,23.79,-18.13,-0.04,1
1335,23.8,-0.22,1.3,1
1336,23.81,-10.14,9.36,1
1337,23.83,-11.55,13.47,1
1338,23.84,-7.12,16.39,1
1339,23.85,18.91,19.9,1
1340,23.87,-4.05,37.13,1
1341,23.88,-6.75,31.2,1
1342,23.89,-11.74,30.01,1
1343,23.91,-6.72,39.38,1
1344,23.92,8.06,49.12,1
1345,23.93,0.71,43.43,1
1346,23.95,12.54,38.12,1
1347,23.96,24.93,63.08,1
1348,23.97,11.04,107.95,1
1349,23.99,30.48,65.99,1
1350,24.0,35.1,146.77,1
1351,24.01,-16.66,268.69,1
1352,24.03,43.98,233.21,1
1353,24.04,-71.75,98.84,1
1354,24.05,-15.62,315.19,1
1355,24.07,38.35,195.54,1
1356,24.08,267.55,168.26,1
1357,24.09,174.75,-2.33,1
1358,24.1,8.39,-256.25,1
1359,24.12,21.06,-227.33,1
1360,24.13,-171.24,5.18,1
1361,24.14,11.04,23.91,1
1362,24.16,-280.92,-133.53,1
1363,24.17,73.5,-394.29,1
1364,24.18,20.22,-350.76,1
1365,24.2,291.81,-324.16,1
1366,24.21,-118.85,268.56,1
1367,24.22,-130.91,-53.41,1
1368,24.24,-18.4,-240.45,1
1369,24.25,-206.78,-239.88,1
1370,24.27,225.11,17.62,1
1371,24.28,-40.03,-544.77,1
1372,24.29,-33.81,-48.18,1
1373,24.31,246.93,-376.54,1
1374,24.32,67.6,-11.56,1
1375,24.33,199.48,-188.81,1
1376,24.35,-168.39,397.29,1
1377,24.36,10.64,-162.35,1
1378,24.37,-29.65,342.18,1
1379,24.39,-208.78,-48.14,1
1380,24.4,-330.86,-123.58,1
1381,24.41,-32.0,33.88,1
1382,24.43,-210.29,36.82,1
1383,24.44,-45.9,262.12,1
1384,24.45,-153.83,54.6,1
1385,24.47,-14.41,129.93,1
1386,24.48,260.97,68.89,1
1387,24.49,335.78,469.07,1
1388,24.51,176.98,743.96,1
1389,24.52,146.0,502.76,1
1390,24.53,98.59,236.1,1
1391,24.55,37.03,52.33,1
1392,24.56,-373.71,-135.97,1
1393,24.57,-47.9,-167.27,1
1394,24.59,-141.08,231.56,1
1395,24.6,118.97,-119.93,1
1396,24.61,7.04,83.74,1
1397,24.63,134.91,-196.13,1
1398,24.64,-33.63,185.16,1
1399,24.65,140.66,129.21,1
1400,24.67,72.62,-91.37,1
1401,24.68,-119.57,-489.81,1
1402,24.69,-164.34,-252.67,1
1403,24.71,-112.77,-17.4,1
1404,24.72,-25.24,396.25,1
1405,24.73,140.3,-224.56,1
1406,24.75,211.17,-42.1,1
1407,24.76,-1.72,-157.28,1
1408,24.77,38.7,24.94,1
1409,24.78,-87.93,578.39,1
1410,24.8,380.81,121.87,1
1411,24.81,-117.25,58.09,1
1412,24.82,41.25,-159.42,1
1413,24.84,-51.77,-237.05,1
1414,24.85,14.59,88.26,1
1415,24.86,-78.26,-131.75,1
1416,24.88,-40.1,-152.69,1
1417,24.89,-30.36,-86.52,1
1418,24.91,-33.19,-136.79,1
1419,24.92,-45.26,-119.74,1
1420,24.93,-37.1,-37.59,1
1421,24.95,-51.73,-110.57,1
1422,24.96,-54.06,-159.68,1
1423,24.97,-49.54,-187.93,1
1424,24.99,-2.23,-183.59,1
1425,25.0,3.61,-146.54,1
1426,25.01,11.79,-97.21,1
1427,25.03,26.08,-71.81,1
1428,25.04,58.08,-61.07,1
1429,25.05,63.72,-48.9,1
1430,25.07,69.17,-16.76,1
1431,25.08,54.39,28.88,1
1432,25.09,39.35,91.76,1
1433,25.11,16.06,115.79,1
1434,25.12,-5.73,133.55,1
1435,25.13,1.11,156.32,1
1436,25.15,-10.1,142.71,1
1437,25.16,-21.34,148.42,1
1438,25.17,-32.65,133.76,1
1439,25.19,-11.65,113.72,1
1440,25.2,-16.7,98.35,1
1441,25.21,-13.11,83.32,1
1442,25.23,-16.29,49.51,1
1443,25.24,-16.99,27.05,1
1444,25.25,-34.55,37.44,1
1445,25.27,-34.84,13.83,1
1446,25.28,-17.35,5.28,1
1447,25.29,-33.09,-1.27,1
1448,25.31,-49.98,-25.24,1
1449,25.32,-36.15,-4.48,1
1450,25.33,-36.27,-30.88,1
1451,25.35,9.05,-41.56,1
1452,25.36,-10.85,-30.53,1
1453,25.37,-2.41,-33.28,1
1454,25.38,-2.54,-45.19,1
1455,25.4,6.87,-38.13,1
1456,25.41,-1.35,-30.45,1
1457,25.42,-3.74,-23.25,1
1458,25.44,-18.67,-13.59,1
1459,25.45,7.08,-13.43,1
1460,25.46,-13.16,-32.56,1
1461,25.48,14.82,-35.91,1
1462,25.49,12.74,-28.18,1
1463,25.5,-9.14,-36.27,1
1464,25.52,0.24,-29.81,1
1465,25.53,-7.91,-18.48,1
1466,25.55,17.25,-24.06,1
1467,25.56,11.81,-18.11,1
1468,25.57,-0.18,-44.24,1
1469,25.59,-15.41,-23.07,1
1470,25.6,17.05,-24.57,1
1471,25.61,18.04,-12.85,1
1472,25.63,1.28,-27.87,1
1473,25.64,0.64,-28.68,1
1474,25.65,22.87,-14.58,1
1475,25.67,9.0,-3.3,1
1476,25.68,17.9,-4.41,1
1477,25.69,1.5,1.04,1
1478,25.71,4.52,-9.18,1
1479,25.72,-6.16,-11.56,1
1480,25.73,-17.29,12.2,1
1481,25.75,-4.23,8.15,1
1482,25.76,11.42,34.2,1
1483,25.77,7.29,18.42,1
1484,25.79,-11.37,14.76,1
1485,25.8,-1.56,14.87,1
1486,25.81,36.18,12.25,1
1487,25.83,11.96,11.63,1
1488,25.84,11.21,10.3,1
1489,25.85,14.13,19.0,1
1490,25.87,9.24,25.97,1
1491,25.88,12.78,18.08,1
1492,25.89,-4.46,18.45,1
1493,25.91,9.14,31.52,1
1494,25.92,-7.74,19.72,1
1495,25.93,-3.85,10.34,1
1496,25.95,1.83,22.67,1
1497,25.96,29.17,16.58,1
1498,25.97,11.75,15.27,1
1499,25.99,-5.16,10.99,1
1500,26.0,-14.22,8.87,1
1501,26.01,2.71,22.7,1
1502,26.02,-1.87,13.0,1
1503,26.04,-4.39,11.33,1
1504,26.05,-51.92,2.5,1
1505,26.06,0.79,11.25,1
1506,26.08,-20.37,-2.65,1
1507,26.09,6.89,12.59,1
1508,26.1,31.76,24.2,1
1509,26.12,20.44,5.4,1
1510,26.13,26.9,232.1,1
1511,26.14,67.98,307.28,1
1512,26.16,-117.08,270.17,1
1513,26.17,70.88,-28.03,1
1514,26.19,-301.78,-7.89,1
1515,26.2,-233.14,255.21,1
1516,26.21,-34.25,90.97,1
1517,26.23,221.42,-99.14,1
1518,26.24,310.89,-453.67,1
1519,26.25,104.27,-325.36,1
1520,26.27,3.28,-326.68,1
1521,26.28,69.83,282.73,1
1522,26.29,90.08,-81.58,1
1523,26.31,63.3,-342.01,1
1524,26.32,282.72,-374.38,1
1525,26.33,-142.39,-165.32,1
1526,26.35,98.33,-77.45,1
1527,26.36,-19.42,173.64,1
1528,26.37,43.83,-83.82,1
1529,26.39,-130.61,80.68,1
1530,26.4,-91.2,6.7,1
1531,26.41,-305.58,180.94,1
1532,26.43,280.96,-186.08,1
1533,26.44,-179.41,143.23,1
1534,26.45,-131.26,-105.37,1
1535,26.47,117.61,-37.57,1
1536,26.48,114.51,291.27,1
1537,26.49,-158.11,40.43,1
1538,26.51,-279.79,248.1,1
1539,26.52,39.43,-17.09,1
1540,26.53,55.59,-25.85,1
1541,26.55,-213.21,100.65,1
1542,26.56,-259.27,15.01,1
1543,26.57,-70.58,-214.77,1
1544,26.59,-300.45,-459.7,1
1545,26.6,83.8,-518.51,1
1546,26.61,110.3,-125.3,1
1547,26.63,36.38,-26.81,1
1548,26.64,43.75,298.44,1
1549,26.65,164.37,228.86,1
1550,26.67,69.19,250.35,1
1551,26.68,277.86,-228.0,1
1552,26.69,52.42,-30.98,1
1553,26.7,-13.38,59.53,1
1554,26.72,157.24,-91.09,1
1555,26.73,155.66,-182.42,1
1556,26.75,-19.65,26.46,1
1557,26.76,-23.79,203.41,1
1558,26.77,-298.08,465.23,1
1559,26.78,-14.82,184.63,1
1560,26.8,-161.96,211.07,1
1561,26.81,-65.15,283.59,1
1562,26.82,-123.1,-120.1,1
1563,26.84,-139.79,-224.86,1
1564,26.85,-53.19,44.43,1
1565,26.87,88.71,-112.24,1
1566,26.88,123.03,285.83,1
1567,26.89,186.99,57.82,1
1568,26.91,-159.94,444.5,1
1569,26.92,107.24,-156.69,1
1570,26.93,121.42,-167.53,1
1571,26.95,-8.85,11.79,1
1572,26.96,-18.49,-120.06,1
1573,26.97,-143.03,380.44,1
1574,26.99,167.17,138.26,1
1575,27.0,-15.02,-166.06,1
1576,27.01,-61.13,33.85,1
1577,27.03,140.49,-175.37,1
1578,27.04,118.39,-105.99,1
1579,27.05,154.59,-161.72,1
1580,27.07,98.65,-133.38,1
1581,27.08,78.21,-85.52,1
1582,27.09,70.05,-84.33,1
1583,27.11,47.81,-132.76,1
1584,27.12,14.6,-109.81,1
1585,27.13,3.45,-108.18,1
1586,27.15,25.3,-72.31,1
1587,27.16,9.41,-54.04,1
1588,27.17,10.47,-25.18,1
1589,27.19,-6.48,1.89,1
1590,27.2,15.34,32.78,1
1591,27.21,-16.51,56.56,1
1592,27.23,-9.88,90.07,1
1593,27.24,-1.72,105.5,1
1594,27.25,9.66,137.36,1
1595,27.27,-16.42,138.96,1
1596,27.28,-27.54,164.22,1
1597,27.29,-23.52,137.5,1
1598,27.3,-14.61,128.03,1
1599,27.32,-30.92,106.28,1
1600,27.33,-27.16,111.03,1
1601,27.34,-46.5,70.64,1
1602,27.36,-31.74,45.5,1
1603,27.37,-43.7,19.67,1
1604,27.38,-45.18,21.55,1
1605,27.4,-14.38,0.72,1
1606,27.41,-17.73,-36.62,1
1607,27.42,-52.68,-40.97,1
1608,27.44,-22.71,-46.82,1
1609,27.45,0.74,-56.2,1
1610,27.46,-5.33,-59.06,1
1611,27.48,-55.94,-52.75,1
1612,27.49,-44.24,-49.63,1
1613,27.51,-27.89,-42.35,1
1614,27.52,-35.74,-56.71,1
1615,27.53,-40.23,-49.0,1
1616,27.55,-51.18,-54.92,1
1617,27.56,-15.4,-57.33,1
1618,27.57,-37.27,-87.73,1
1619,27.59,-23.59,-68.48,1
1620,27.6,-22.02,-53.56,1
1621,27.61,-8.31,-77.53,1
1622,27.63,-41.17,-58.73,1
1623,27.64,-27.64,-65.77,1
1624,27.65,-15.75,-65.84,1
1625,27.67,10.9,-47.64,1
1626,27.68,-4.7,-30.3,1
1627,27.69,11.77,-33.24,1
1628,27.71,-1.04,-37.47,1
1629,27.72,27.49,-49.27,1
1630,27.73,3.57,-20.29,1
1631,27.75,3.06,-38.53,1
1632,27.76,21.12,-16.29,1
1633,27.77,-3.42,-36.26,1
1634,27.79,24.82,-0.21,1
1635,27.8,16.57,-6.58,1
1636,27.81,25.37,-5.13,1
1637,27.83,16.94,-4.51,1
1638,27.84,11.23,5.53,1
1639,27.85,33.66,6.53,1
1640,27.87,41.74,0.11,1
1641,27.88,14.81,14.08,1
1642,27.89,10.37,14.78,1
1643,27.91,4.22,5.96,1
1644,27.92,32.0,16.67,1
1645,27.93,7.1,-2.13,1
1646,27.94,6.37,27.71,1
1647,27.96,-0.7,26.37,1
1648,27.97,25.26,14.06,1
1649,27.98,21.65,16.44,1
1650,28.0,5.59,27.08,1
1651,28.01,12.57,30.03,1
1652,28.02,11.34,16.41,1
1653,28.04,11.67,25.13,1
1654,28.05,-46.83,41.84,1
1655,28.06,9.0,34.09,1
1656,28.08,-7.5,28.08,1
1657,28.09,3.0,29.57,1
1658,28.1,23.77,29.38,1
1659,28.12,27.34,26.57,1
1660,28.13,43.72,16.39,1
1661,28.15,11.64,18.19,1
1662,28.16,8.59,32.09,1
1663,28.17,35.15,37.62,1
1664,28.19,-23.62,49.03,1
1665,28.2,-7.67,59.66,1
1666,28.21,-9.02,149.81,1
1667,28.23,-12.29,243.31,1
1668,28.24,17.31,337.12,1
1669,28.25,72.37,89.76,1
1670,28.27,292.86,-92.0,1
1671,28.28,-100.77,292.01,1
1672,28.29,4.48,9.8,1
1673,28.31,-68.26,118.14,1
1674,28.32,-314.64,-104.5,1
1675,28.33,103.36,-409.14,1
1676,28.35,-62.69,-231.38,1
1677,28.36,-142.65,192.49,1
1678,28.37,-37.44,2.36,1
1679,28.39,30.62,-8.23,1
1680,28.4,55.64,-180.65,1
1681,28.41,-155.53,-180.27,1
1682,28.43,323.5,77.21,1
1683,28.44,268.91,-142.46,1
1684,28.45,100.66,-193.89,1
1685,28.47,235.46,15.02,1
1686,28.48,-3.87,-303.92,1
1687,28.49,-40.97,-587.21,1
1688,28.51,-109.79,-504.63,1
1689,28.52,75.41,-79.4,1
1690,28.53,-168.44,-278.52,1
1691,28.55,-141.28,-157.51,1
1692,28.56,-362.49,-247.58,1
1693,28.57,-191.93,-218.83,1
1694,28.58,-168.43,-215.48,1
1695,28.6,-163.64,110.31,1
1696,28.61,-336.13,176.73,1
1697,28.62,-21.56,62.63,1
1698,28.64,-104.74,258.73,1
1699,28.65,-75.61,154.62,1
1700,28.67,17.33,67.75,1
1701,28.68,-28.55,75.46,1
1702,28.69,-80.62,547.77,1
1703,28.7,300.31,329.76,1
1704,28.72,48.56,-17.34,1
1705,28.73,118.04,368.16,1
1706,28.75,111.74,460.89,1
1707,28.76,33.01,94.83,1
1708,28.77,-14.27,165.13,1
1709,28.79,-150.98,437.62,1
1710,28.8,288.14,-224.57,1
1711,28.81,398.54,435.39,1
1712,28.83,-21.83,-9.2,1
1713,28.84,333.35,93.48,1
1714,28.85,80.52,192.63,1
1715,28.87,240.58,340.44,1
1716,28.88,319.42,-262.11,1
1717,28.89,-28.72,-10.89,1
1718,28.91,-124.46,-38.07,1
1719,28.92,-98.32,57.18,1
1720,28.93,-48.52,187.21,1
1721,28.95,-19.75,-226.61,1
1722,28.96,-205.64,126.21,1
1723,28.97,-2.0,78.97,1
1724,28.99,-108.19,-67.76,1
1725,29.0,74.56,-154.18,1
1726,29.01,-47.37,-134.7,1
1727,29.03,8.32,-231.44,1
1728,29.04,-47.86,-187.35,1
1729,29.05,-12.72,-226.77,1
1730,29.07,-41.45,-167.49,1
1731,29.08,-37.82,-175.71,1
1732,29.09,-73.46,-209.69,1
1733,29.11,-48.86,-222.36,1
1734,29.12,-22.72,-130.52,1
1735,29.13,-24.53,-128.3,1
1736,29.15,-1.52,-104.31,1
1737,29.16,13.86,-57.32,1
1738,29.17,29.52,-38.04,1
1739,29.19,5.94,-11.98,1
1740,29.2,-4.23,17.48,1
1741,29.21,46.24,33.87,1
1742,29.22,24.72,63.05,1
1743,29.24,19.57,91.88,1
1744,29.25,26.11,81.92,1
1745,29.26,6.14,125.68,1
1746,29.28,11.98,134.08,1
1747,29.29,-7.65,140.71,1
1748,29.3,5.09,116.85,1
1749,29.32,-23.41,108.97,1
1750,29.33,-9.87,91.3,1
1751,29.34,4.46,71.46,1
1752,29.36,3.17,49.85,1
1753,29.37,-6.15,30.73,1
1754,29.38,-13.19,2.81,1
1755,29.4,-28.58,-16.98,1
1756,29.41,2.27,0.65,1
1757,29.42,-0.16,-3.55,1
1758,29.44,-9.11,-26.07,1
1759,29.45,-22.8,-34.52,1
1760,29.47,-7.76,-43.66,1
1761,29.48,-21.73,-44.28,1
1762,29.49,-20.28,-49.24,1
1763,29.51,-20.58,-50.97,1
1764,29.52,-21.9,-49.54,1
1765,29.53,-21.14,-42.0,1
1766,29.55,-29.23,-38.3,1
1767,29.56,-25.04,-35.2,1
1768,29.57,-0.96,-36.55,1
1769,29.59,-22.4,-80.95,1
1770,29.6,-19.98,-88.65,1
1771,29.61,-18.71,-55.82,1
1772,29.63,-3.19,-43.86,1
1773,29.64,-9.59,-17.74,1
1774,29.65,-27.33,-28.04,1
1775,29.67,-15.57,-15.89,1
1776,29.68,-6.91,-8.62,1
1777,29.69,-8.94,-17.23,1
1778,29.71,-10.3,-16.37,1
1779,29.72,14.37,8.09,1
1780,29.73,1.17,5.53,1
1781,29.75,6.24,3.19,1
1782,29.76,3.95,9.68,1
1783,29.77,25.33,-8.31,1
1784,29.79,16.45,-1.04,1
1785,29.8,9.96,-6.64,1
1786,29.81,12.03,-3.66,1
1787,29.83,19.83,-6.73,1
1788,29.84,1.63,13.53,1
1789,29.85,-2.69,8.78,1
1790,29.86,0.68,13.74,1
1791,29.88,36.34,19.93,1
1792,29.89,12.28,18.59,1
1793,29.9,-6.82,1.15,1
1794,29.92,-2.29,9.78,1
1795,29.93,20.82,31.74,1
1796,29.94,5.87,23.6,1
1797,29.96,22.51,-3.64,1
1798,29.97,22.54,37.56,1
1799,29.98,13.3,18.41,1
1800,30.0,4.35,16.4,1
1801,30.01,-0.47,20.0,1
1802,30.02,37.16,31.86,1
1803,30.04,27.67,29.16,1
1804,30.05,-28.78,19.67,1
1805,30.06,-28.61,18.96,1
1806,30.08,-0.75,34.68,1
1807,30.09,27.92,32.77,1
1808,30.11,-12.53,41.48,1
1809,30.12,-30.55,115.81,1
1810,30.13,65.35,194.52,1
1811,30.15,55.03,438.74,1
1812,30.16,126.4,116.41,1
1813,30.17,12.98,-2.52,1
1814,30.19,-24.53,293.72,1
1815,30.2,244.83,34.08,1
1816,30.21,-165.22,-39.69,1
1817,30.23,93.81,6.07,1
1818,30.24,-200.05,-168.15,1
1819,30.25,79.75,-296.43,1
1820,30.27,-47.21,-395.24,1
1821,30.28,61.87,-191.03,1
1822,30.29,-16.24,-435.26,1
1823,30.31,33.53,-108.38,1
1824,30.32,154.43,-145.71,1
1825,30.33,6.59,-362.0,1
1826,30.35,8.59,-340.26,1
1827,30.36,-348.21,-65.49,1
1828,30.37,85.41,226.23,1
1829,30.39,-231.1,-257.64,1
1830,30.4,24.47,291.85,1
1831,30.41,-161.63,267.58,1
1832,30.43,72.76,-34.29,1
1833,30.44,-157.43,-41.72,1
1834,30.45,231.05,123.99,1
1835,30.47,-106.18,19.99,1
1836,30.48,8.93,-180.72,1
1837,30.49,-235.67,39.34,1
1838,30.5,246.05,91.17,1
1839,30.52,-365.89,-11.61,1
1840,30.53,83.19,89.77,1
1841,30.54,-142.05,106.26,1
1842,30.56,-39.33,313.22,1
1843,30.57,-198.27,-88.65,1
1844,30.58,-135.8,352.17,1
1845,30.6,-124.42,306.46,1
1846,30.61,136.97,443.26,1
1847,30.62,108.97,114.92,1
1848,30.64,-2.74,-186.62,1
1849,30.65,96.15,-11.33,1
1850,30.67,-3.52,279.58,1
1851,30.68,161.53,-157.82,1
1852,30.69,170.88,-70.97,1
1853,30.7,85.58,-155.79,1
1854,30.72,210.64,72.77,1
1855,30.73,57.88,179.44,1
1856,30.75,180.41,-168.63,1
1857,30.76,75.72,-11.41,1
1858,30.77,43.55,-370.05,1
1859,30.79,62.59,-175.93,1
1860,30.8,7.85,-374.1,1
1861,30.81,-132.05,-95.98,1
1862,30.83,-81.57,128.95,1
1863,30.84,129.06,-13.57,1
1864,30.85,-85.84,-156.99,1
1865,30.87,307.87,-141.18,1
1866,30.88,-179.36,174.3,1
1867,30.89,-46.62,167.68,1
1868,30.91,104.25,317.46,1
1869,30.92,-48.0,315.81,1
1870,30.93,-17.04,-118.2,1
1871,30.95,60.75,74.96,1
1872,30.96,139.87,252.96,1
1873,30.97,31.83,-117.89,1
1874,30.99,13.4,40.04,1
1875,31.0,-10.06,113.96,1
1876,31.01,-49.57,-51.07,1
1877,31.03,16.43,223.77,1
1878,31.04,-242.77,-187.9,1
1879,31.05,-114.97,-142.45,1
1880,31.07,-50.14,-186.47,1
1881,31.08,-26.23,-186.85,1
1882,31.09,-13.11,50.45,1
1883,31.11,-126.39,-111.49,1
1884,31.12,-5.4,-149.3,1
1885,31.13,91.33,69.91,1
1886,31.14,73.83,-6.74,1
1887,31.16,-90.43,13.43,1
1888,31.17,-33.23,4.36,1
1889,31.18,-27.55,-152.29,1
1890,31.2,138.64,-529.1,1
1891,31.21,177.56,-257.4,1
1892,31.22,-71.01,98.96,1
1893,31.24,-175.13,-3.02,1
1894,31.25,79.83,-78.89,1
1895,31.26,237.96,100.32,1
1896,31.28,-295.24,19.31,1
1897,31.29,-28.33,-4.88,1
1898,31.3,-163.32,-131.98,1
1899,31.32,-75.93,-104.95,1
1900,31.33,-138.23,-64.5,1
1901,31.34,-65.54,-104.39,1
1902,31.36,-133.32,51.07,1
1903,31.37,-37.56,16.84,1
1904,31.39,-50.04,21.26,1
1905,31.4,7.47,63.51,1
1906,31.41,22.75,75.89,1
1907,31.43,86.87,129.97,1
1908,31.44,106.69,154.37,1
1909,31.45,100.04,157.49,1
1910,31.47,91.79,183.29,1
1911,31.48,92.84,216.58,1
1912,31.49,72.67,226.11,1
1913,31.51,75.83,219.49,1
1914,31.52,81.64,213.91,1
1915,31.53,76.8,167.25,1
1916,31.55,57.42,175.31,1
1917,31.56,48.51,155.49,1
1918,31.57,47.09,112.57,1
1919,31.59,20.71,98.98,1
1920,31.6,13.85,68.82,1
1921,31.61,-6.95,40.62,1
1922,31.63,3.83,30.03,1
1923,31.64,-3.76,-12.3,1
1924,31.65,-9.32,-28.58,1
1925,31.67,-19.41,-29.77,1
1926,31.68,-13.2,-45.63,1
1927,31.69,-24.13,-65.82,1
1928,31.71,-43.26,-54.02,1
1929,31.72,-33.13,-80.57,1
1930,31.73,-8.34,-84.21,1
1931,31.75,-33.99,-74.63,1
1932,31.76,-30.34,-91.94,1
1933,31.77,-37.87,-72.23,1
1934,31.78,-11.45,-106.27,1
1935,31.8,-36.38,-101.39,1
1936,31.81,-34.27,-109.59,1
1937,31.82,-24.54,-95.21,1
1938,31.84,-22.73,-89.81,1
1939,31.85,-22.09,-89.33,1
1940,31.86,-15.59,-94.91,1
1941,31.88,-23.39,-99.99,1
1942,31.89,-20.38,-77.05,1
1943,31.9,-30.03,-75.66,1
1944,31.92,-14.87,-71.66,1
1945,31.93,8.98,-74.65,1
1946,31.94,-12.5,-75.79,1
1947,31.96,-20.01,-40.25,1
1948,31.97,-25.03,-39.07,1
1949,31.98,0.58,-33.9,1
1950,32.0,-13.56,-25.49,1
1951,32.01,-9.21,-19.5,1
1952,32.03,1.37,-13.57,1
1953,32.04,6.86,-16.61,1
1954,32.05,-51.67,-3.47,1
1955,32.07,-48.17,-13.95,1
1956,32.08,25.54,4.85,1
1957,32.09,30.91,15.8,1
1958,32.11,34.19,10.45,1
1959,32.12,38.44,-0.11,1
1960,32.13,2.07,65.29,1
1961,32.15,63.97,-45.09,1
1962,32.16,57.93,-109.39,1
1963,32.17,-109.49,316.72,1
1964,32.19,55.39,234.6,1
1965,32.2,-327.37,375.89,1
1966,32.21,34.78,132.35,1
1967,32.23,-267.62,129.0,1
1968,32.24,173.58,-203.54,1
1969,32.25,122.24,-22.62,1
1970,32.27,316.39,-328.4,1
1971,32.28,-4.07,271.36,1
1972,32.29,-3.61,49.59,1
1973,32.31,134.33,-58.29,1
1974,32.32,53.34,123.09,1
1975,32.33,239.87,-57.75,1
1976,32.35,226.64,-80.9,1
1977,32.36,219.17,-523.38,1
1978,32.37,283.15,72.45,1
1979,32.39,183.5,-45.01,1
1980,32.4,-6.62,5.1,1
1981,32.41,-286.07,-335.05,1
1982,32.43,-310.46,-355.97,1
1983,32.44,-264.36,-23.74,1
1984,32.45,-158.68,-193.55,1
1985,32.47,-44.65,-67.0,1
1986,32.48,-215.49,-120.11,1
1987,32.49,-24.87,63.87,1
1988,32.51,-164.72,-70.51,1
1989,32.52,71.01,148.01,1
1990,32.53,-135.01,217.95,1
1991,32.54,127.17,-192.93,1
1992,32.56,-15.23,273.35,1
1993,32.57,12.88,312.07,1
1994,32.59,-147.72,115.2,1
1995,32.6,13.12,518.65,1
1996,32.61,-91.83,114.82,1
1997,32.63,-39.79,394.71,1
1998,32.64,148.85,50.48,1
1999,32.65,-52.2,-133.19,1
2000,32.67,-2.78,-92.29,1
2001,32.68,-147.78,-126.68,1
2002,32.69,138.62,25.49,1
2003,32.71,48.51,142.3,1
2004,32.72,166.32,-58.51,1
2005,32.73,-169.48,201.07,1
2006,32.75,340.0,463.02,1
2007,32.76,139.91,66.07,1
2008,32.77,-240.99,109.77,1
2009,32.79,44.73,173.28,1
2010,32.8,-57.97,158.37,1
2011,32.81,1.23,-286.97,1
2012,32.83,131.87,113.19,1
2013,32.84,37.59,-187.11,1
2014,32.85,-257.53,-276.26,1
2015,32.87,-8.2,-116.0,1
2016,32.88,-182.45,-203.75,1
2017,32.89,47.47,-156.72,1
2018,32.91,-78.74,-167.37,1
2019,32.92,4.52,55.19,1
2020,32.93,-230.67,-12.19,1
2021,32.95,-20.12,-73.49,1
2022,32.96,1.12,-120.03,1
2023,32.97,277.46,-62.05,1
2024,32.99,-98.06,24.57,1
2025,33.0,227.1,-25.87,1
2026,33.01,98.42,-95.87,1
2027,33.03,-7.62,-117.24,1
2028,33.04,-17.03,-106.89,1
2029,33.05,-4.99,-117.96,1
2030,33.06,-1.67,-76.01,1
2031,33.08,-6.72,-22.42,1
2032,33.09,-3.32,-31.29,1
2033,33.11,-3.28,-30.32,1
2034,33.12,28.97,19.11,1
2035,33.13,60.13,3.32,1
2036,33.15,79.13,-7.94,1
2037,33.16,86.49,-28.52,1
2038,33.17,83.85,-21.86,1
2039,33.19,92.56,-0.85,1
2040,33.2,70.57,27.44,1
2041,33.21,53.92,65.79,1
2042,33.22,67.74,85.38,1
2043,33.24,35.88,96.62,1
2044,33.25,38.62,122.87,1
2045,33.27,21.86,142.36,1
2046,33.28,17.76,135.64,1
2047,33.29,8.23,122.25,1
2048,33.31,-1.07,116.51,1
2049,33.32,-8.2,89.35,1
2050,33.33,15.07,68.27,1
2051,33.35,-15.0,33.49,1
2052,33.36,-7.11,43.7,1
2053,33.37,-25.73,71.71,1
2054,33.39,-13.98,3.62,1
2055,33.4,-8.09,-18.65,1
2056,33.41,0.29,6.09,1
2057,33.43,-17.41,5.95,1
2058,33.44,-45.1,-2.6,1
2059,33.45,-55.26,-14.77,1
2060,33.47,-64.64,-17.42,1
2061,33.48,-45.39,-29.29,1
2062,33.49,-71.57,-22.13,1
2063,33.51,-78.22,-25.64,1
2064,33.52,-59.43,-26.57,1
2065,33.53,-46.62,-42.62,1
2066,33.55,-39.2,-39.0,1
2067,33.56,-39.87,-31.3,1
2068,33.57,-62.57,-40.55,1
2069,33.59,-45.36,-57.76,1
2070,33.6,-52.16,-51.46,1
2071,33.61,-42.0,-53.42,1
2072,33.63,-48.79,-47.45,1
2073,33.64,-21.42,-41.02,1
2074,33.65,-28.79,-51.05,1
2075,33.67,-27.66,-40.04,1
2076,33.68,-7.04,-54.88,1
2077,33.69,4.69,-53.69,1
2078,33.71,-24.86,-44.46,1
2079,33.72,-29.2,-13.76,1
2080,33.73,-22.59,-34.02,1
2081,33.75,25.68,-6.22,1
2082,33.76,11.88,-26.24,1
2083,33.77,8.39,-11.56,1
2084,33.79,25.63,-29.86,1
2085,33.8,3.28,-23.01,1
2086,33.81,13.63,-23.39,1
2087,33.83,28.12,-0.89,1
2088,33.84,42.15,-6.36,1
2089,33.85,9.83,9.32,1
2090,33.87,2.67,-0.87,1
2091,33.88,22.56,-2.98,1
2092,33.89,30.47,-2.91,1
2093,33.9,27.87,0.11,1
2094,33.92,8.58,13.81,1
2095,33.93,2.56,22.91,1
2096,33.95,25.29,7.99,1
2097,33.96,19.49,26.77,1
2098,33.97,19.08,32.0,1
2099,33.99,10.18,25.04,1
2100,34.0,27.09,-0.64,1
2101,34.01,16.29,-9.78,1
2102,34.03,18.08,30.76,1
2103,34.04,5.65,6.02,1
2104,34.05,-39.48,8.48,1
2105,34.07,-15.24,22.48,1
2106,34.08,44.29,25.37,1
2107,34.09,-7.74,29.28,1
2108,34.11,32.37,21.4,1
2109,34.12,32.38,28.35,1
2110,34.13,9.96,40.14,1
2111,34.15,58.83,89.31,1
2112,34.16,37.62,181.27,1
2113,34.17,-8.44,197.17,1
2114,34.19,-53.77,156.21,1
2115,34.2,-56.13,250.98,1
2116,34.21,262.03,211.09,1
2117,34.23,309.81,139.91,1
2118,34.24,262.03,142.76,1
2119,34.25,1.16,-163.86,1
2120,34.27,-171.25,-178.76,1
2121,34.28,-21.04,-150.54,1
2122,34.29,-50.85,-776.97,1
2123,34.31,-14.74,-73.0,1
2124,34.32,-40.78,63.67,1
2125,34.33,93.34,-135.23,1
2126,34.35,-236.25,-582.44,1
2127,34.36,-260.52,-12.57,1
2128,34.37,72.77,250.27,1
2129,34.38,-345.39,-133.09,1
2130,34.4,-63.75,78.5,1
2131,34.41,185.92,-153.28,1
2132,34.43,87.11,98.99,1
2133,34.44,154.05,-154.09,1
2134,34.45,-188.42,321.75,1
2135,34.47,12.35,93.22,1
2136,34.48,-393.94,152.18,1
2137,34.49,20.86,-249.67,1
2138,34.51,148.38,184.67,1
2139,34.52,172.94,-303.85,1
2140,34.53,-266.35,45.32,1
2141,34.54,-24.07,8.58,1
2142,34.56,-248.77,231.99,1
2143,34.57,24.23,-142.25,1
2144,34.59,-288.73,139.79,1
2145,34.6,68.23,376.67,1
2146,34.61,-290.7,25.91,1
2147,34.63,26.25,-66.29,1
2148,34.64,203.65,116.18,1
2149,34.65,-83.75,-496.66,1
2150,34.67,233.95,-348.76,1
2151,34.68,85.2,178.96,1
2152,34.69,-94.67,442.79,1
2153,34.71,-81.53,62.22,1
2154,34.72,357.64,-279.93,1
2155,34.73,135.06,134.96,1
2156,34.75,121.24,-144.8,1
2157,34.76,-93.83,-256.58,1
2158,34.77,-76.67,245.54,1
2159,34.79,305.02,314.95,1
2160,34.8,185.19,49.89,1
2161,34.81,34.68,-41.57,1
2162,34.83,21.55,-102.27,1
2163,34.84,7.45,-376.2,1
2164,34.85,-154.67,-24.16,1
2165,34.87,165.5,89.31,1
2166,34.88,-65.72,-148.08,1
2167,34.89,267.4,146.41,1
2168,34.91,-61.8,-71.5,1
2169,34.92,-72.4,-2.5,1
2170,34.93,-56.05,71.56,1
2171,34.95,-94.97,-91.87,1
2172,34.96,-115.42,2.02,1
2173,34.97,-65.29,10.03,1
2174,34.99,-76.09,84.62,1
2175,35.0,-33.75,42.14,1
2176,35.01,3.47,55.77,1
2177,35.03,79.11,81.39,1
2178,35.04,84.8,82.52,1
2179,35.05,103.02,89.2,1
2180,35.06,82.19,115.7,1
2181,35.08,91.27,150.88,1
2182,35.09,64.54,152.13,1
2183,35.11,61.83,168.85,1
2184,35.12,51.1,178.38,1
2185,35.13,44.57,142.68,1
2186,35.15,22.44,114.26,1
2187,35.16,17.21,110.63,1
2188,35.17,23.66,63.87,1
2189,35.19,7.56,50.03,1
2190,35.2,-0.69,26.06,1
2191,35.21,-8.08,-11.68,1
2192,35.22,-40.48,-28.21,1
2193,35.24,-32.67,-69.32,1
2194,35.25,-39.59,-93.98,1
2195,35.27,-25.42,-74.6,1
2196,35.28,-21.52,-81.26,1
2197,35.29,-45.98,-63.85,1
2198,35.31,-48.32,-74.63,1
2199,35.32,-66.67,-81.0,1
2200,35.33,-58.35,-68.7,1
2201,35.35,-58.35,-76.36,1
2202,35.36,-75.38,-75.56,1
2203,35.37,-58.24,-84.16,1
2204,35.39,-41.53,-82.39,1
2205,35.4,-43.86,-87.57,1
2206,35.41,-60.15,-87.18,1
2207,35.43,-64.3,-83.5,1
2208,35.44,-36.77,-70.2,1
2209,35.45,-51.23,-74.71,1
2210,35.47,-37.17,-73.5,1
2211,35.48,-39.02,-59.22,1
2212,35.49,-26.37,-66.41,1
2213,35.51,-20.28,-71.11,1
2214,35.52,-15.37,-66.68,1
2215,35.53,-6.76,-49.5,1
2216,35.55,-16.36,-49.18,1
2217,35.56,-0.85,-39.42,1
2218,35.57,-6.14,-42.67,1
2219,35.59,5.41,-49.38,1
2220,35.6,23.11,-36.33,1
2221,35.61,8.75,-14.84,1
2222,35.63,5.64,-18.87,1
2223,35.64,38.03,-27.51,1
2224,35.65,14.28,10.5,1
2225,35.67,12.93,2.62,1
2226,35.68,-4.0,21.19,1
2227,35.69,29.11,19.75,1
2228,35.71,7.26,7.81,1
2229,35.72,13.88,16.2,1
2230,35.73,11.61,10.58,1
2231,35.75,21.94,18.71,1
2232,35.76,3.03,43.84,1
2233,35.77,-3.0,35.68,1
2234,35.79,7.9,34.19,1
2235,35.8,33.97,23.31,1
2236,35.81,-1.6,51.53,1
2237,35.83,4.07,47.93,1
2238,35.84,26.11,63.23,1
2239,35.85,57.3,40.36,1
2240,35.87,43.48,42.13,1
2241,35.88,14.58,34.99,1
2242,35.89,13.81,48.6,1
2243,35.9,32.68,26.87,1
2244,35.92,26.03,29.24,1
2245,35.93,31.72,32.06,1
2246,35.95,15.83,41.76,1
2247,35.96,22.56,22.93,1
2248,35.97,8.34,26.62,1
2249,35.99,10.18,37.32,1
2250,36.0,-10.51,24.53,1
2251,36.01,16.61,28.27,1
2252,36.03,6.45,33.99,1
2253,36.04,5.28,83.21,1
2254,36.05,-35.25,180.19,1
2255,36.07,-22.5,190.85,1
2256,36.08,-31.01,126.52,1
2257,36.09,-89.88,222.43,1
2258,36.11,-109.1,-33.57,1
2259,36.12,-225.15,200.77,1
2260,36.13,128.32,-237.82,1
2261,36.15,-192.71,26.52,1
2262,36.16,236.25,139.97,1
2263,36.17,190.12,-165.89,1
2264,36.19,83.14,-223.77,1
2265,36.2,294.45,63.2,1
2266,36.21,166.58,99.45,1
2267,36.23,34.19,-148.06,1
2268,36.24,177.69,-195.76,1
2269,36.25,-34.32,-17.6,1
2270,36.27,323.72,-292.31,1
2271,36.28,91.34,-27.74,1
2272,36.29,-150.59,-398.86,1
2273,36.31,-196.46,-155.49,1
2274,36.32,-203.29,-499.64,1
2275,36.33,-95.56,16.06,1
2276,36.35,-252.85,12.95,1
2277,36.36,18.23,-30.79,1
2278,36.37,-253.11,298.18,1
2279,36.38,-150.57,-161.76,1
2280,36.4,-191.12,-334.36,1
2281,36.41,306.58,-216.63,1
2282,36.43,-30.21,-335.1,1
2283,36.44,189.98,-138.75,1
2284,36.45,-118.64,59.66,1
2285,36.47,59.65,38.91,1
2286,36.48,-102.98,-27.58,1
2287,36.49,3.03,317.74,1
2288,36.51,156.01,435.77,1
2289,36.52,-254.43,506.55,1
2290,36.53,243.1,160.25,1
2291,36.54,-180.46,80.02,1
2292,36.56,107.82,2.96,1
2293,36.57,-60.65,21.32,1
2294,36.59,102.19,368.55,1
2295,36.6,-100.9,-312.5,1
2296,36.61,87.0,182.17,1
2297,36.63,-342.08,-196.93,1
2298,36.64,-122.25,220.17,1
2299,36.65,-163.68,322.12,1
2300,36.67,13.63,327.7,1
2301,36.68,115.06,461.39,1
2302,36.69,63.77,151.58,1
2303,36.71,-10.47,-89.09,1
2304,36.72,-178.2,60.39,1
2305,36.73,128.16,378.4,1
2306,36.75,-3.91,3.55,1
2307,36.76,-207.58,-90.5,1
2308,36.77,-270.52,250.68,1
2309,36.79,125.66,-0.6,1
2310,36.8,68.16,-54.73,1
2311,36.81,165.72,-302.69,1
2312,36.83,-185.01,-439.26,1
2313,36.84,-119.61,-480.26,1
2314,36.85,81.7,-351.16,1
2315,36.87,-23.04,-402.71,1
2316,36.88,154.48,-37.05,1
2317,36.89,208.74,58.25,1
2318,36.9,166.32,8.95,1
2319,36.92,-35.73,-305.22,1
2320,36.93,182.07,-3.45,1
2321,36.95,-32.63,-109.56,1
2322,36.96,41.46,-73.76,1
2323,36.97,-59.77,-137.26,1
2324,36.99,-64.07,-60.75,1
2325,37.0,-72.28,-151.3,1
2326,37.01,-69.87,-147.4,1
2327,37.03,-45.49,125.23,1
2328,37.04,28.57,-46.27,1
2329,37.05,24.84,-19.35,1
2330,37.06,90.26,43.91,1
2331,37.08,117.31,50.0,1
2332,37.09,168.02,110.44,1
2333,37.11,167.53,135.56,1
2334,37.12,164.75,170.81,1
2335,37.13,165.68,190.82,1
2336,37.15,140.52,187.66,1
2337,37.16,133.11,198.86,1
2338,37.17,104.22,202.04,1
2339,37.19,110.4,171.43,1
2340,37.2,72.65,145.55,1
2341,37.21,60.32,116.63,1
2342,37.22,30.33,89.75,1
2343,37.24,20.18,89.0,1
2344,37.25,-7.66,66.05,1
2345,37.27,-20.24,27.0,1
2346,37.28,-24.15,21.11,1
2347,37.29,-15.62,10.35,1
2348,37.31,-56.94,0.61,1
2349,37.32,-57.13,-19.55,1
2350,37.33,-64.17,-29.94,1
2351,37.35,-41.86,-46.6,1
2352,37.36,-68.23,-86.11,1
2353,37.37,-93.88,-61.26,1
2354,37.39,-66.1,-41.27,1
2355,37.4,-68.66,-53.29,1
2356,37.41,-82.34,-60.24,1
2357,37.43,-88.61,-70.85,1
2358,37.44,-100.33,-54.33,1
2359,37.45,-74.83,-58.08,1
2360,37.47,-83.65,-63.42,1
2361,37.48,-66.75,-78.13,1
2362,37.49,-55.84,-58.96,1
2363,37.51,-69.19,-40.87,1
2364,37.52,-83.09,-46.58,1
2365,37.53,-86.54,-56.16,1
2366,37.54,-36.75,-57.2,1
2367,37.56,-55.68,-61.39,1
2368,37.57,-62.68,-45.88,1
2369,37.59,-58.51,-21.87,1
2370,37.6,-40.09,-49.35,1
2371,37.61,-24.95,-48.7,1
2372,37.63,-29.3,-39.29,1
2373,37.64,-39.54,-14.04,1
2374,37.65,-8.45,-21.3,1
2375,37.67,-18.01,-21.94,1
2376,37.68,-3.16,-2.24,1
2377,37.69,-13.17,-21.66,1
2378,37.71,17.61,-34.83,1
2379,37.72,16.38,-1.21,1
2380,37.73,5.29,-27.29,1
2381,37.75,4.28,-4.98,1
2382,37.76,32.4,-3.48,1
2383,37.77,11.28,-6.58,1
2384,37.79,10.5,29.97,1
2385,37.8,-0.96,12.06,1
2386,37.81,43.14,-6.95,1
2387,37.83,34.15,26.15,1
2388,37.84,23.06,20.25,1
2389,37.85,31.46,17.5,1
2390,37.87,46.73,22.12,1
2391,37.88,31.79,21.87,1
2392,37.89,23.7,12.07,1
2393,37.91,47.65,20.64,1
2394,37.92,22.92,7.21,1
2395,37.93,31.63,57.88,1
2396,37.95,42.42,26.64,1
2397,37.96,36.47,42.64,1
2398,37.97,39.5,41.55,1
2399,37.99,5.09,41.1,1
2400,38.0,18.65,5.92,1
2401,38.01,46.04,-14.39,1
2402,38.03,26.07,17.65,1
2403,38.04,35.35,31.61,1
2404,38.05,11.72,47.55,1
2405,38.07,1.85,35.1,1
2406,38.08,2.15,66.69,1
2407,38.09,5.72,108.1,1
2408,38.11,40.5,149.81,1
2409,38.12,29.52,288.47,1
2410,38.13,-19.5,352.32,1
2411,38.15,-142.0,188.89,1
2412,38.16,130.71,23.97,1
2413,38.17,-7.75,100.38,1
2414,38.19,78.57,116.19,1
2415,38.2,-208.26,-174.85,1
2416,38.21,422.41,-529.29,1
2417,38.22,49.49,-330.65,1
2418,38.24,93.2,-396.19,1
2419,38.25,-216.25,-21.52,1
2420,38.27,54.66,209.86,1
2421,38.28,44.81,113.88,1
2422,38.29,80.08,33.57,1
2423,38.31,39.97,-256.73,1
2424,38.32,200.08,-287.38,1
2425,38.33,-170.37,-301.83,1
2426,38.35,-52.12,226.49,1
2427,38.36,-472.33,2.13,1
2428,38.37,66.16,-206.13,1
2429,38.38,-80.1,-175.99,1
2430,38.4,215.28,-194.67,1
2431,38.41,-241.38,-49.04,1
2432,38.43,-57.28,137.28,1
2433,38.44,-6.0,104.98,1
2434,38.45,-79.17,2.08,1
2435,38.47,175.32,-240.75,1
2436,38.48,-179.71,-265.88,1
2437,38.49,-140.19,-75.75,1
2438,38.51,-314.04,-274.02,1
2439,38.52,136.36,107.07,1
2440,38.53,9.79,61.24,1
2441,38.55,-98.59,-129.49,1
2442,38.56,-243.32,28.89,1
2443,38.57,3.42,-138.72,1
2444,38.59,16.46,243.85,1
2445,38.6,-137.41,467.96,1
2446,38.61,13.42,210.08,1
2447,38.63,230.23,444.1,1
2448,38.64,199.07,168.17,1
2449,38.65,176.52,442.6,1
2450,38.67,-94.53,-28.29,1
2451,38.68,-214.23,93.27,1
2452,38.69,100.2,207.91,1
2453,38.71,85.44,68.11,1
2454,38.72,-51.57,377.1,1
2455,38.73,26.43,82.69,1
2456,38.75,376.31,162.41,1
2457,38.76,403.41,182.21,1
2458,38.77,124.24,-5.38,1
2459,38.79,123.71,-306.45,1
2460,38.8,-74.03,-321.69,1
2461,38.81,-39.1,-177.38,1
2462,38.83,-349.58,-118.87,1
2463,38.84,44.18,154.31,1
2464,38.85,113.44,222.7,1
2465,38.87,63.3,-199.59,1
2466,38.88,126.08,82.71,1
2467,38.89,-155.75,-168.89,1
2468,38.9,20.19,-96.56,1
2469,38.92,-14.78,-210.59,1
2470,38.93,0.51,-146.49,1
2471,38.95,-122.03,-103.81,1
2472,38.96,-1.34,-64.11,1
2473,38.97,-85.49,-96.41,1
2474,38.99,-29.68,-55.21,1
2475,39.0,-58.88,-45.75,1
2476,39.01,-16.99,-53.92,1
2477,39.03,-23.44,-72.72,1
2478,39.04,25.18,-78.16,1
2479,39.05,9.52,-50.63,1
2480,39.06,5.03,-40.46,1
2481,39.08,6.98,-25.62,1
2482,39.09,30.73,-10.39,1
2483,39.11,20.95,12.15,1
2484,39.12,16.97,44.29,1
2485,39.13,24.36,56.01,1
2486,39.15,33.35,73.11,1
2487,39.16,-7.34,86.85,1
2488,39.17,8.67,96.48,1
2489,39.19,1.37,80.24,1
2490,39.2,18.78,106.96,1
2491,39.21,-5.49,79.66,1
2492,39.23,-25.61,64.16,1
2493,39.24,-18.71,48.32,1
2494,39.25,10.13,37.07,1
2495,39.27,-19.6,50.48,1
2496,39.28,-16.81,1.61,1
2497,39.29,-23.04,-1.72,1
2498,39.31,-2.94,8.91,1
2499,39.32,-27.07,-7.77,1
2500,39.33,-30.32,-7.36,1
2501,39.35,-25.89,-37.82,1
2502,39.36,-30.3,-13.42,1
2503,39.37,-3.21,-30.24,1
2504,39.39,-15.96,-15.04,1
2505,39.4,4.76,-21.52,1
2506,39.41,-21.94,-24.8,1
2507,39.43,-26.15,-18.19,1
2508,39.44,-27.13,-9.29,1
2509,39.45,2.25,-19.08,1
2510,39.47,-17.75,-44.21,1
2511,39.48,-34.87,-30.73,1
2512,39.49,-31.34,-34.73,1
2513,39.51,4.04,-50.23,1
2514,39.52,-16.63,-60.85,1
2515,39.53,-15.62,-22.42,1
2516,39.54,-12.82,-26.75,1
2517,39.56,19.66,-32.29,1
2518,39.57,9.82,-32.33,1
2519,39.59,7.33,-21.73,1
2520,39.6,-19.65,-16.24,1
2521,39.61,12.63,-15.88,1
2522,39.63,-0.35,-7.83,1
2523,39.64,-5.57,-12.54,1
2524,39.65,-3.77,-10.94,1
2525,39.67,29.85,-27.33,1
2526,39.68,-11.42,-18.06,1
2527,39.69,0.04,0.4,1
2528,39.71,3.3,-8.55,1
2529,39.72,27.37,-16.17,1
2530,39.73,20.06,5.52,1
2531,39.75,0.73,14.34,1
2532,39.76,23.1,4.33,1
2533,39.77,1.67,18.21,1
2534,39.79,5.34,25.43,1
2535,39.8,18.36,9.36,1
2536,39.81,10.59,11.96,1
2537,39.83,3.19,19.52,1
2538,39.84,11.17,20.23,1
2539,39.85,6.61,-4.9,1
2540,39.87,14.18,11.17,1
2541,39.88,-1.57,1.22,1
2542,39.89,1.16,10.44,1
2543,39.91,12.58,18.79,1
2544,39.92,28.07,16.62,1
2545,39.93,14.92,9.74,1
2546,39.95,-1.03,10.95,1
2547,39.96,-5.81,7.81,1
2548,39.97,32.98,-7.34,1
2549,39.99,-4.39,26.54,1
2550,40.0,8.17,33.15,1
2551,40.01,10.14,34.14,1
2552,40.03,21.66,67.71,1
2553,40.04,-8.37,241.31,1
2554,40.05,-17.89,322.27,1
2555,40.07,7.13,132.72,1
2556,40.08,207.1,315.94,1
2557,40.09,-178.95,-0.85,1
2558,40.11,211.04,-205.65,1
2559,40.12,217.93,-22.58,1
2560,40.13,-127.45,-9.51,1
2561,40.15,-150.33,39.76,1
2562,40.16,8.89,90.2,1
2563,40.17,81.15,-28.64,1
2564,40.19,-167.96,-99.84,1
2565,40.2,-57.63,-154.56,1
2566,40.21,233.79,-552.71,1
2567,40.22,9.65,-291.29,1
2568,40.24,-52.43,-445.96,1
2569,40.25,-260.71,-202.05,1
2570,40.27,-266.14,129.06,1
2571,40.28,-87.28,-409.89,1
2572,40.29,-93.77,1.26,1
2573,40.31,-146.31,233.22,1
2574,40.32,-32.54,137.12,1
2575,40.33,75.25,-176.95,1
2576,40.35,375.05,-89.01,1
2577,40.36,51.01,33.49,1
2578,40.37,101.35,3.89,1
2579,40.38,-132.69,236.99,1
2580,40.4,61.63,178.95,1
2581,40.41,8.3,-70.8,1
2582,40.43,23.67,108.18,1
2583,40.44,-88.63,-58.22,1
2584,40.45,58.68,-22.17,1
2585,40.47,-19.34,-129.21,1
2586,40.48,-45.17,-43.29,1
2587,40.49,-17.98,-46.95,1
2588,40.51,56.76,224.38,1
2589,40.52,79.29,-122.68,1
2590,40.53,-69.91,78.72,1
2591,40.55,68.02,97.87,1
2592,40.56,69.1,365.08,1
2593,40.57,-0.21,-37.71,1
2594,40.59,7.29,12.43,1
2595,40.6,47.32,-227.99,1
2596,40.61,197.11,467.46,1
2597,40.63,85.79,238.5,1
2598,40.64,-85.36,104.59,1
2599,40.65,-131.2,-157.82,1
2600,40.67,-20.58,205.16,1
2601,40.68,-76.35,137.39,1
2602,40.69,-23.05,-323.16,1
2603,40.71,59.43,-157.03,1
2604,40.72,202.71,-197.38,1
2605,40.73,-294.16,-8.61,1
2606,40.75,-121.98,83.44,1
2607,40.76,-413.87,140.3,1
2608,40.77,107.47,213.85,1
2609,40.79,-62.68,84.8,1
2610,40.8,219.06,573.83,1
2611,40.81,279.95,195.91,1
2612,40.83,-2.84,135.97,1
2613,40.84,90.28,-75.17,1
2614,40.85,-56.51,-69.74,1
2615,40.87,-11.26,-210.15,1
2616,40.88,-210.72,-196.29,1
2617,40.89,-186.56,44.15,1
2618,40.9,-166.99,192.72,1
2619,40.92,-90.87,83.94,1
2620,40.93,77.29,-477.37,1
2621,40.95,80.6,-367.65,1
2622,40.96,119.96,64.07,1
2623,40.97,-190.48,-59.32,1
2624,40.99,109.76,-114.65,1
2625,41.0,0.69,-105.94,1
2626,41.01,113.15,-79.55,1
2627,41.03,-67.26,-33.09,1
2628,41.04,34.9,-89.29,1
2629,41.05,6.37,-87.49,1
2630,41.06,1.66,-107.87,1
2631,41.08,3.67,-117.49,1
2632,41.09,21.39,-113.41,1
2633,41.11,69.28,-103.27,1
2634,41.12,94.05,-67.21,1
2635,41.13,114.75,-79.95,1
2636,41.15,89.51,-54.63,1
2637,41.16,99.94,-1.95,1
2638,41.17,107.99,42.31,1
2639,41.19,58.37,46.43,1
2640,41.2,53.83,69.18,1
2641,41.21,63.95,93.13,1
2642,41.23,45.7,127.22,1
2643,41.24,30.85,149.88,1
2644,41.25,24.35,162.33,1
2645,41.27,54.53,152.95,1
2646,41.28,17.25,137.02,1
2647,41.29,26.03,126.08,1
2648,41.31,-6.07,123.98,1
2649,41.32,-26.15,90.53,1
2650,41.33,-34.11,77.39,1
2651,41.35,-18.45,52.66,1
2652,41.36,-9.3,56.43,1
2653,41.37,-17.7,44.34,1
2654,41.38,-25.62,16.42,1
2655,41.4,-32.58,-3.11,1
2656,41.41,-34.36,22.99,1
2657,41.43,-42.78,2.49,1
2658,41.44,-56.08,-16.48,1
2659,41.45,-64.45,0.81,1
2660,41.47,-37.66,-30.62,1
2661,41.48,-51.67,-43.77,1
2662,41.49,-49.08,-48.98,1
2663,41.51,-62.54,-45.67,1
2664,41.52,-49.63,-59.54,1
2665,41.53,-51.57,-57.59,1
2666,41.54,-32.57,-52.09,1
2667,41.56,-36.0,-67.15,1
2668,41.57,-19.05,-54.47,1
2669,41.59,-49.95,-35.44,1
2670,41.6,-52.33,-55.02,1
2671,41.61,-43.34,-44.04,1
2672,41.63,-30.66,-33.24,1
2673,41.64,-33.04,-31.87,1
2674,41.65,-28.43,-68.91,1
2675,41.67,2.52,-59.76,1
2676,41.68,-0.54,-38.59,1
2677,41.69,-14.09,-40.31,1
2678,41.71,-19.25,-43.41,1
2679,41.72,3.89,-32.57,1
2680,41.73,5.23,-21.9,1
2681,41.75,11.3,-21.21,1
2682,41.76,0.99,-25.22,1
2683,41.77,14.65,-9.95,1
2684,41.79,6.83,-17.49,1
2685,41.8,-11.98,-6.41,1
2686,41.81,-6.33,-4.8,1
2687,41.83,11.07,5.21,1
2688,41.84,-1.03,3.87,1
2689,41.85,9.4,-6.09,1
2690,41.87,-5.57,12.2,1
2691,41.88,16.03,9.18,1
2692,41.89,26.07,13.58,1
2693,41.91,35.85,18.98,1
2694,41.92,33.29,9.13,1
2695,41.93,50.39,6.51,1
2696,41.95,24.83,8.17,1
2697,41.96,10.49,15.25,1
2698,41.97,8.11,27.84,1
2699,41.99,14.52,11.41,1
2700,42.0,23.08,21.85,1
2701,42.01,20.84,2.4,1
2702,42.03,35.97,31.39,1
2703,42.04,38.64,7.15,1
2704,42.05,5.16,20.96,1
2705,42.06,-66.44,19.4,1
2706,42.08,-6.26,11.9,1
2707,42.09,29.26,25.97,1
2708,42.11,-2.97,22.19,1
2709,42.12,2.86,22.73,1
2710,42.13,46.67,21.67,1
2711,42.15,21.59,46.58,1
2712,42.16,33.62,60.38,1
2713,42.17,37.08,96.06,1
2714,42.19,15.53,224.87,1
2715,42.2,23.53,271.29,1
2716,42.21,-4.75,328.67,1
2717,42.22,99.82,218.18,1
2718,42.24,223.25,128.82,1
2719,42.25,21.45,-65.73,1
2720,42.27,-44.07,-320.51,1
2721,42.28,50.87,-159.87,1
2722,42.29,21.37,-38.05,1
2723,42.31,-2.62,-369.23,1
2724,42.32,-199.47,27.96,1
2725,42.33,-20.87,-68.26,1
2726,42.35,-186.21,-417.37,1
2727,42.36,192.49,-151.69,1
2728,42.37,82.93,-23.88,1
2729,42.38,156.68,181.74,1
2730,42.4,14.88,-180.24,1
2731,42.41,-51.87,-289.57,1
2732,42.43,-164.91,82.28,1
2733,42.44,125.55,-285.55,1
2734,42.45,-259.96,-276.84,1
2735,42.47,-128.64,42.68,1
2736,42.48,-326.21,81.72,1
2737,42.49,49.88,66.55,1
2738,42.51,-317.58,90.93,1
2739,42.52,77.25,197.91,1
2740,42.53,-459.68,-69.06,1
2741,42.55,78.86,61.79,1
2742,42.56,-67.71,40.49,1
2743,42.57,-87.29,-251.45,1
2744,42.59,-8.54,59.66,1
2745,42.6,-113.57,198.11,1
2746,42.61,277.98,-97.56,1
2747,42.63,5.39,276.33,1
2748,42.64,276.01,-44.42,1
2749,42.65,156.3,225.51,1
2750,42.67,-4.27,-498.94,1
2751,42.68,-19.66,-158.62,1
2752,42.69,86.83,392.2,1
2753,42.71,270.45,323.56,1
2754,42.72,-130.38,197.25,1
2755,42.73,-211.64,188.0,1
2756,42.75,52.49,18.34,1
2757,42.76,174.75,-35.42,1
2758,42.77,26.16,-60.83,1
2759,42.79,48.21,-119.11,1
2760,42.8,-0.3,-481.46,1
2761,42.81,-125.42,-210.01,1
2762,42.83,-113.85,199.67,1
2763,42.84,223.52,-6.33,1
2764,42.85,-20.56,-70.7,1
2765,42.87,-8.93,106.1,1
2766,42.88,333.79,471.85,1
2767,42.89,37.84,85.63,1
2768,42.9,78.24,228.0,1
2769,42.92,161.92,-252.71,1
2770,42.93,83.28,6.8,1
2771,42.95,32.64,94.83,1
2772,42.96,-68.71,26.72,1
2773,42.97,-78.28,-85.46,1
2774,42.99,52.89,-30.1,1
2775,43.0,-8.78,-8.05,1
2776,43.01,-115.67,233.52,1
2777,43.03,-169.82,314.4,1
2778,43.04,113.98,-216.06,1
2779,43.05,-52.11,-108.8,1
2780,43.06,42.53,96.62,1
2781,43.08,286.92,-4.1,1
2782,43.09,-277.16,13.91,1
2783,43.11,-97.89,-50.93,1
2784,43.12,-77.88,-149.3,1
2785,43.13,8.24,-85.75,1
2786,43.15,-4.03,-36.65,1
2787,43.16,107.55,-59.99,1
2788,43.17,-47.32,-32.67,1
2789,43.19,2.88,-4.03,1
2790,43.2,-44.8,1.87,1
2791,43.21,3.52,-4.46,1
2792,43.23,-34.46,-24.58,1
2793,43.24,-23.61,-12.38,1
2794,43.25,-26.23,-32.54,1
2795,43.27,13.2,-19.95,1
2796,43.28,-12.8,-59.87,1
2797,43.29,9.71,-22.49,1
2798,43.31,12.24,-9.48,1
2799,43.32,30.02,7.21,1
2800,43.33,14.23,20.98,1
2801,43.35,11.62,-8.72,1
2802,43.36,-22.72,5.2,1
2803,43.37,-2.24,35.63,1
2804,43.38,-40.27,77.9,1
2805,43.4,-20.24,105.94,1
2806,43.41,-13.5,116.48,1
2807,43.43,26.12,107.93,1
2808,43.44,5.54,98.38,1
2809,43.45,-12.09,86.46,1
2810,43.47,-9.87,41.91,1
2811,43.48,13.52,30.66,1
2812,43.49,0.42,-0.75,1
2813,43.51,-20.94,-7.54,1
2814,43.52,-16.91,-16.57,1
2815,43.53,-10.18,-41.85,1
2816,43.54,-28.34,-46.87,1
2817,43.56,-35.52,-36.83,1
2818,43.57,-12.81,-31.05,1
2819,43.59,-27.05,-65.88,1
2820,43.6,-26.34,-76.81,1
2821,43.61,-31.76,-73.29,1
2822,43.63,-13.62,-39.88,1
2823,43.64,-37.15,-69.42,1
2824,43.65,-19.97,-48.59,1
2825,43.67,-18.34,-50.06,1
2826,43.68,1.32,-48.61,1
2827,43.69,-14.15,-34.05,1
2828,43.71,1.38,-34.76,1
2829,43.72,-22.91,-50.19,1
2830,43.73,-5.0,-42.43,1
2831,43.75,-16.54,-39.48,1
2832,43.76,-19.69,-21.24,1
2833,43.77,-9.76,-30.83,1
2834,43.79,23.36,-23.34,1
2835,43.8,14.74,-36.72,1
2836,43.81,-14.18,-17.91,1
2837,43.83,-4.22,-15.34,1
2838,43.84,19.4,-3.18,1
2839,43.85,5.86,-26.65,1
2840,43.87,9.45,-8.53,1
2841,43.88,-14.83,-14.23,1
2842,43.89,20.02,-22.98,1
2843,43.91,12.28,12.51,1
2844,43.92,32.3,-4.77,1
2845,43.93,29.48,-9.16,1
2846,43.95,4.44,-18.8,1
2847,43.96,-4.3,20.49,1
2848,43.97,-5.2,32.63,1
2849,43.99,46.88,18.07,1
2850,44.0,14.5,10.94,1
2851,44.01,-1.27,21.5,1
2852,44.03,-0.76,40.36,1
2853,44.04,27.79,39.02,1
2854,44.05,11.05,16.73,1
2855,44.06,-54.52,32.35,1
2856,44.08,-11.27,4.1,1
2857,44.09,22.07,33.39,1
2858,44.11,27.41,20.83,1
2859,44.12,44.56,16.2,1
2860,44.13,14.68,19.22,1
2861,44.15,39.74,13.97,1
2862,44.16,22.51,13.27,1
2863,44.17,-4.0,65.58,1
2864,44.19,5.6,52.48,1
2865,44.2,54.3,113.05,1
2866,44.21,13.23,383.55,1
2867,44.22,123.12,236.63,1
2868,44.24,166.58,203.65,1
2869,44.25,-76.53,36.53,1
2870,44.27,-155.6,-126.08,1
2871,44.28,19.09,200.15,1
2872,44.29,195.73,-123.52,1
2873,44.31,-179.94,-364.4,1
2874,44.32,12.91,-195.53,1
2875,44.33,182.6,-31.73,1
2876,44.35,-8.29,65.91,1
2877,44.36,-46.79,-17.88,1
2878,44.37,-255.73,-449.84,1
2879,44.39,-177.19,-174.57,1
2880,44.4,-20.88,-162.53,1
2881,44.41,-219.87,-566.66,1
2882,44.43,-46.99,-71.12,1
2883,44.44,30.55,-21.0,1
2884,44.45,369.01,150.79,1
2885,44.47,54.87,347.02,1
2886,44.48,205.18,-64.61,1
2887,44.49,-176.24,-88.0,1
2888,44.51,-129.25,-99.83,1
2889,44.52,-14.95,-84.09,1
2890,44.53,88.53,110.42,1
2891,44.55,-5.37,-222.18,1
2892,44.56,-207.83,279.05,1
2893,44.57,8.44,-57.91,1
2894,44.59,254.32,-15.95,1
2895,44.6,-19.41,-209.35,1
2896,44.61,252.32,90.55,1
2897,44.63,169.02,612.96,1
2898,44.64,228.18,95.07,1
2899,44.65,-63.98,221.11,1
2900,44.67,-182.19,32.96,1
2901,44.68,-155.86,455.5,1
2902,44.69,-152.14,314.4,1
2903,44.71,-122.51,44.46,1
2904,44.72,-248.03,-88.26,1
2905,44.73,-152.03,-5.88,1
2906,44.75,-106.77,-16.28,1
2907,44.76,-0.74,303.67,1
2908,44.77,-113.09,-126.57,1
2909,44.79,18.55,-131.86,1
2910,44.8,-18.01,-418.19,1
2911,44.81,-7.26,-155.48,1
2912,44.83,74.56,140.89,1
2913,44.84,-49.95,-269.96,1
2914,44.85,8.88,271.47,1
2915,44.87,190.12,-96.1,1
2916,44.88,-0.43,265.34,1
2917,44.89,0.01,-11.31,1
2918,44.9,55.91,-108.6,1
2919,44.92,76.1,-9.86,1
2920,44.93,363.57,-4.56,1
2921,44.95,118.59,19.72,1
2922,44.96,242.87,-136.1,1
2923,44.97,-69.29,-277.51,1
2924,44.99,242.83,-115.68,1
2925,45.0,-13.48,-61.54,1
2926,45.01,46.23,-83.65,1
2927,45.03,-109.37,-25.04,1
2928,45.04,-192.21,-61.23,1
2929,45.05,-130.48,-78.51,1
2930,45.07,-216.24,-44.19,1
2931,45.08,-237.52,-27.1,1
2932,45.09,-262.21,-47.77,1
2933,45.11,-305.69,-45.33,1
2934,45.12,-254.47,-17.98,1
2935,45.13,-229.18,-79.49,1
2936,45.15,-183.19,-79.81,1
2937,45.16,-121.95,-86.11,1
2938,45.17,-32.14,-35.24,1
2939,45.19,66.01,50.99,1
2940,45.2,172.1,47.89,1
2941,45.21,230.15,73.18,1
2942,45.22,288.94,101.3,1
2943,45.24,271.26,129.88,1
2944,45.25,247.75,151.68,1
2945,45.27,265.01,164.17,1
2946,45.28,249.64,175.48,1
2947,45.29,212.04,164.73,1
2948,45.31,176.78,155.8,1
2949,45.32,147.55,138.7,1
2950,45.33,144.95,150.19,1
2951,45.35,88.59,122.88,1
2952,45.36,75.37,97.22,1
2953,45.37,57.21,49.19,1
2954,45.38,48.83,44.44,1
2955,45.4,10.78,33.85,1
2956,45.41,-3.85,3.3,1
2957,45.43,12.98,-29.48,1
2958,45.44,-37.46,-20.94,1
2959,45.45,-42.25,-8.16,1
2960,45.47,-62.39,-28.34,1
2961,45.48,-49.21,-27.44,1
2962,45.49,-73.59,-39.39,1
2963,45.51,-83.45,-62.73,1
2964,45.52,-87.71,-63.46,1
2965,45.53,-84.91,-52.55,1
2966,45.54,-88.95,-75.67,1
2967,45.56,-87.88,-84.13,1
2968,45.57,-100.88,-52.92,1
2969,45.59,-76.8,-79.41,1
2970,45.6,-94.89,-58.88,1
2971,45.61,-79.0,-64.19,1
2972,45.63,-76.01,-74.6,1
2973,45.64,-59.08,-60.41,1
2974,45.65,-79.14,-60.54,1
2975,45.67,-65.74,-66.22,1
2976,45.68,-56.32,-69.39,1
2977,45.69,-41.96,-42.97,1
2978,45.71,-52.87,-47.47,1
2979,45.72,-47.45,-42.3,1
2980,45.73,-54.04,-51.08,1
2981,45.75,-21.77,-42.28,1
2982,45.76,-27.56,-56.83,1
2983,45.77,-27.64,-14.1,1
2984,45.79,-11.06,-20.83,1
2985,45.8,-29.44,-38.91,1
2986,45.81,-24.71,-5.01,1
2987,45.83,-12.11,6.03,1
2988,45.84,13.75,-20.92,1
2989,45.85,-9.99,-20.81,1
2990,45.87,-6.58,-2.16,1
2991,45.88,-3.82,33.66,1
2992,45.89,6.87,-7.16,1
2993,45.9,17.61,8.75,1
2994,45.92,7.05,5.46,1
2995,45.93,-0.33,11.69,1
2996,45.95,29.91,7.13,1
2997,45.96,27.09,1.34,1
2998,45.97,18.07,20.39,1
2999,45.99,11.46,36.42,1
3000,46.0,41.02,8.36,1
3001,46.01,39.66,20.22,1
3002,46.03,45.89,40.33,1
3003,46.04,38.5,46.69,1
3004,46.05,23.97,48.59,1
3005,46.06,-34.96,41.21,1
3006,46.08,39.35,49.29,1
3007,46.09,-11.68,137.37,1
3008,46.11,59.96,274.76,1
3009,46.12,52.57,86.2,1
3010,46.13,-38.8,-222.84,1
3011,46.15,12.02,78.79,1
3012,46.16,-101.54,56.62,1
3013,46.17,73.22,229.75,1
3014,46.19,-126.11,-115.95,1
3015,46.2,153.32,95.65,1
3016,46.21,-59.28,267.51,1
3017,46.22,-42.88,-5.7,1
3018,46.24,207.91,-212.54,1
3019,46.25,56.2,74.36,1
3020,46.27,55.62,-111.16,1
3021,46.28,322.76,-282.74,1
3022,46.29,-14.13,1.59,1
3023,46.31,270.11,-238.95,1
3024,46.32,192.46,-289.46,1
3025,46.33,152.9,-478.58,1
3026,46.35,93.9,-68.91,1
3027,46.36,-13.73,138.52,1
3028,46.37,-110.45,88.32,1
3029,46.39,-235.43,189.12,1
3030,46.4,181.73,3.2,1
3031,46.41,-355.85,-253.36,1
3032,46.43,13.4,61.57,1
3033,46.44,-114.2,43.78,1
3034,46.45,-104.2,178.2,1
3035,46.47,-229.49,-94.91,1
3036,46.48,-98.96,212.12,1
3037,46.49,60.83,-179.28,1
3038,46.51,74.0,179.68,1
3039,46.52,-225.67,274.31,1
3040,46.53,135.9,147.62,1
3041,46.54,-259.63,-120.59,1
3042,46.56,-174.65,-127.11,1
3043,46.57,-286.37,-56.24,1
3044,46.59,-74.17,-25.99,1
3045,46.6,94.76,-109.71,1
3046,46.61,69.6,383.89,1
3047,46.63,-137.18,-202.6,1
3048,46.64,252.14,256.99,1
3049,46.65,131.65,-52.31,1
3050,46.67,119.6,198.82,1
3051,46.68,-182.55,14.93,1
3052,46.69,-103.23,75.25,1
3053,46.71,-29.77,413.41,1
3054,46.72,98.44,22.24,1
3055,46.73,11.94,77.83,1
3056,46.75,-72.09,-141.09,1
3057,46.76,105.7,58.53,1
3058,46.77,107.8,287.44,1
3059,46.79,126.3,-126.76,1
3060,46.8,397.11,-506.37,1
3061,46.81,5.68,-39.02,1
3062,46.83,-95.82,207.16,1
3063,46.84,76.81,-5.99,1
3064,46.85,103.55,-322.39,1
3065,46.87,-164.24,-1.96,1
3066,46.88,84.46,-417.26,1
3067,46.89,62.36,-237.19,1
3068,46.9,-311.22,178.54,1
3069,46.92,91.31,-30.65,1
3070,46.93,-67.18,-97.19,1
3071,46.95,-119.88,-106.22,1
3072,46.96,-233.45,-157.07,1
3073,46.97,126.06,-173.26,1
3074,46.99,-12.53,-178.14,1
3075,47.0,61.73,-53.78,1
3076,47.01,40.47,-98.48,1
3077,47.03,87.33,-18.82,1
3078,47.04,47.05,24.12,1
3079,47.05,72.84,47.51,1
3080,47.07,55.12,30.23,1
3081,47.08,61.23,46.16,1
3082,47.09,30.12,58.56,1
3083,47.11,44.44,91.58,1
3084,47.12,21.23,100.97,1
3085,47.13,44.44,127.43,1
3086,47.15,20.38,159.3,1
3087,47.16,13.93,185.43,1
3088,47.17,-6.31,193.33,1
3089,47.19,2.27,197.72,1
3090,47.2,-18.82,182.57,1
3091,47.21,-1.49,190.9,1
3092,47.22,-8.23,157.96,1
3093,47.24,-5.52,123.87,1
3094,47.25,-23.14,96.14,1
3095,47.27,-29.39,83.8,1
3096,47.28,-15.59,53.91,1
3097,47.29,-40.93,48.33,1
3098,47.31,-22.6,6.64,1
3099,47.32,-37.52,12.38,1
3100,47.33,-2.35,-13.07,1
3101,47.35,-46.03,-32.91,1
3102,47.36,-41.7,-50.27,1
3103,47.37,-59.68,-51.58,1
3104,47.38,-22.8,-43.29,1
3105,47.4,-25.16,-62.19,1
3106,47.41,-38.25,-58.13,1
3107,47.43,-46.44,-84.08,1
3108,47.44,-7.16,-88.58,1
3109,47.45,-31.96,-68.13,1
3110,47.47,-13.03,-71.13,1
3111,47.48,-32.81,-73.27,1
3112,47.49,-8.24,-75.65,1
3113,47.51,-5.08,-90.3,1
3114,47.52,-20.37,-53.92,1
3115,47.53,-20.11,-77.34,1
3116,47.54,-7.44,-82.51,1
3117,47.56,-17.93,-63.06,1
3118,47.57,-7.78,-76.01,1
3119,47.59,-19.73,-65.93,1
3120,47.6,-2.24,-47.57,1
3121,47.61,-12.75,-43.42,1
3122,47.63,-13.78,-50.7,1
3123,47.64,-4.45,-44.21,1
3124,47.65,20.46,-34.18,1
3125,47.67,7.62,-41.81,1
3126,47.68,10.15,-19.93,1
3127,47.69,30.06,-13.72,1
3128,47.71,12.75,-26.77,1
3129,47.72,22.76,-15.6,1
3130,47.73,2.3,-21.08,1
3131,47.75,12.92,-8.61,1
3132,47.76,7.2,-10.62,1
3133,47.77,10.07,11.2,1
3134,47.79,20.98,1.17,1
3135,47.8,29.88,10.19,1
3136,47.81,11.26,19.46,1
3137,47.83,11.82,9.43,1
3138,47.84,-10.95,36.47,1
3139,47.85,26.52,27.42,1
3140,47.87,17.46,-6.45,1
3141,47.88,7.13,10.79,1
3142,47.89,5.33,17.74,1
3143,47.9,24.74,30.51,1
3144,47.92,27.52,23.25,1
3145,47.93,23.19,27.38,1
3146,47.95,9.23,32.07,1
3147,47.96,25.57,32.56,1
3148,47.97,12.3,18.4,1
3149,47.99,11.88,15.5,1
3150,48.0,-3.2,18.65,1
3151,48.01,23.75,8.57,1
3152,48.03,16.76,46.06,1
3153,48.04,4.84,68.2,1
3154,48.05,18.01,61.06,1
3155,48.06,-35.77,85.33,1
3156,48.08,-40.09,105.01,1
3157,48.09,-69.06,197.8,1
3158,48.11,55.04,196.64,1
3159,48.12,2.05,48.47,1
3160,48.13,87.03,-40.73,1
3161,48.15,124.78,413.12,1
3162,48.16,18.33,68.15,1
3163,48.17,168.83,27.72,1
3164,48.19,-3.92,161.25,1
3165,48.2,23.73,-190.15,1
3166,48.21,5.37,-202.53,1
3167,48.22,-385.18,167.61,1
3168,48.24,42.13,-241.28,1
3169,48.25,-46.22,-540.1,1
3170,48.27,-39.76,-193.18,1
3171,48.28,114.58,123.9,1
3172,48.29,-97.94,-113.45,1
3173,48.31,13.49,221.38,1
3174,48.32,-281.07,-190.84,1
3175,48.33,31.58,-347.1,1
3176,48.35,54.86,51.91,1
3177,48.36,96.05,-252.56,1
3178,48.37,70.55,63.52,1
3179,48.39,-38.86,-105.99,1
3180,48.4,-221.62,-229.98,1
3181,48.41,56.93,-354.26,1
3182,48.43,-117.52,16.42,1
3183,48.44,84.88,122.07,1
3184,48.45,-17.87,-471.32,1
3185,48.47,-213.98,-22.35,1
3186,48.48,-67.12,146.67,1
3187,48.49,-39.93,179.27,1
3188,48.51,181.62,107.93,1
3189,48.52,-215.9,-237.9,1
3190,48.53,-59.77,34.7,1
3191,48.54,187.45,56.63,1
3192,48.56,-40.0,207.14,1
3193,48.57,322.6,84.56,1
3194,48.59,63.68,204.21,1
3195,48.6,373.2,293.81,1
3196,48.61,76.28,-197.53,1
3197,48.63,167.2,370.32,1
3198,48.64,-52.61,-114.22,1
3199,48.65,67.03,133.91,1
3200,48.67,276.4,20.51,1
3201,48.68,-57.19,2.87,1
3202,48.69,16.71,-96.39,1
3203,48.71,-142.84,270.33,1
3204,48.72,-89.4,-49.11,1
3205,48.73,-2.46,136.36,1
3206,48.75,-147.59,468.14,1
3207,48.76,247.6,-99.98,1
3208,48.77,-91.21,367.12,1
3209,48.79,-192.88,-63.71,1
3210,48.8,-398.0,141.61,1
3211,48.81,-160.72,448.24,1
3212,48.83,-252.55,94.75,1
3213,48.84,52.31,-158.5,1
3214,48.85,-43.72,228.35,1
3215,48.87,222.71,-97.52,1
3216,48.88,18.05,213.73,1
3217,48.89,151.53,135.95,1
3218,48.9,-5.96,-32.87,1
3219,48.92,-369.77,-21.73,1
3220,48.93,64.43,-293.03,1
3221,48.95,-12.33,-10.58,1
3222,48.96,145.06,-277.89,1
3223,48.97,-60.93,-357.98,1
3224,48.99,124.41,-353.75,1
3225,49.0,-65.11,-323.09,1
3226,49.01,62.62,-271.27,1
3227,49.03,-45.74,-286.59,1
3228,49.04,-2.14,-236.85,1
3229,49.05,-23.23,-227.13,1
3230,49.06,0.64,-155.92,1
3231,49.08,-12.19,-237.0,1
3232,49.09,3.9,-180.58,1
3233,49.11,-80.49,-185.51,1
3234,49.12,-164.33,-30.6,1
3235,49.13,-171.61,83.0,1
3236,49.15,-129.1,196.01,1
3237,49.16,-70.33,239.16,1
3238,49.17,25.74,275.7,1
3239,49.19,106.26,246.48,1
3240,49.2,142.46,238.09,1
3241,49.21,159.54,236.41,1
3242,49.22,173.1,193.96,1
3243,49.24,167.31,154.13,1
3244,49.25,162.28,127.48,1
3245,49.27,122.33,119.63,1
3246,49.28,126.84,104.75,1
3247,49.29,128.4,69.19,1
3248,49.31,89.38,56.38,1
3249,49.32,65.2,52.56,1
3250,49.33,40.11,19.85,1
3251,49.35,61.37,2.81,1
3252,49.36,18.44,-17.11,1
3253,49.37,7.89,-19.57,1
3254,49.38,-0.1,-28.5,1
3255,49.4,1.14,-18.58,1
3256,49.41,-10.74,-34.52,1
3257,49.43,-39.79,-57.54,1
3258,49.44,-36.39,-43.02,1
3259,49.45,-23.3,-41.75,1
3260,49.47,-48.7,-51.7,1
3261,49.48,-47.11,-67.33,1
3262,49.49,-53.31,-63.49,1
3263,49.51,-43.21,-58.44,1
3264,49.52,-65.07,-35.99,1
3265,49.53,-60.23,-45.83,1
3266,49.54,-32.71,-44.44,1
3267,49.56,-40.56,-27.89,1
3268,49.57,-58.41,-64.32,1
3269,49.59,-51.61,-45.21,1
3270,49.6,-42.78,-30.43,1
3271,49.61,-39.14,-31.42,1
3272,49.63,-38.61,-30.58,1
3273,49.64,-54.34,-30.56,1
3274,49.65,-35.15,-24.48,1
3275,49.67,-51.66,-20.59,1
3276,49.68,-31.94,-30.38,1
3277,49.69,-44.83,-12.35,1
3278,49.71,-14.89,-23.36,1
3279,49.72,-37.97,10.4,1
3280,49.73,-23.36,-0.62,1
3281,49.75,-17.5,-0.14,1
3282,49.76,-11.18,-8.21,1
3283,49.77,-17.6,-9.03,1
3284,49.79,-14.49,-9.41,1
3285,49.8,-13.97,1.6,1
3286,49.81,14.45,12.12,1
3287,49.83,6.1,-24.67,1
3288,49.84,18.75,22.89,1
3289,49.85,-7.25,17.62,1
3290,49.87,20.06,-9.91,1
3291,49.88,10.75,5.52,1
3292,49.89,14.05,4.89,1
3293,49.9,38.27,-2.8,1
3294,49.92,3.86,29.64,1
3295,49.93,14.27,26.1,1
3296,49.95,12.94,22.43,1
3297,49.96,32.25,20.89,1
3298,49.97,18.56,-15.95,1
3299,49.99,9.26,-7.32,1
3300,50.0,0.72,28.89,1
3301,50.01,17.43,7.48,1
3302,50.03,30.83,33.15,1
3303,50.04,31.2,23.83,1
3304,50.05,0.68,13.48,1
3305,50.06,5.23,12.11,1
3306,50.08,-39.16,20.71,1
3307,50.09,5.72,69.91,1
3308,50.11,18.17,89.08,1
3309,50.12,14.0,184.51,1
3310,50.13,36.71,375.17,1
3311,50.15,-4.88,225.51,1
3312,50.16,-61.71,85.76,1
3313,50.17,384.51,150.06,1
3314,50.19,-83.57,-259.49,1
3315,50.2,-33.2,-275.5,1
3316,50.21,-40.61,-45.6,1
3317,50.22,-150.34,200.96,1
3318,50.24,199.89,121.98,1
3319,50.25,49.68,48.61,1
3320,50.27,-14.7,-183.56,1
3321,50.28,281.98,-260.72,1
3322,50.29,-203.67,-369.77,1
3323,50.31,114.62,-242.21,1
3324,50.32,92.85,-458.96,1
3325,50.33,-202.64,54.59,1
3326,50.35,100.11,-44.36,1
3327,50.36,-155.64,-351.7,1
3328,50.37,117.82,307.55,1
3329,50.38,-309.21,-404.94,1
3330,50.4,-155.85,-100.46,1
3331,50.41,258.11,-343.92,1
3332,50.43,-172.24,7.65,1
3333,50.44,-11.49,21.85,1
3334,50.45,-90.63,257.3,1
3335,50.47,-112.29,46.45,1
3336,50.48,-316.94,-138.59,1
3337,50.49,-24.42,448.62,1
3338,50.51,108.64,371.23,1
3339,50.52,-195.49,1.05,1
3340,50.53,126.83,-22.5,1
3341,50.54,35.8,125.39,1
3342,50.56,87.87,516.83,1
3343,50.57,376.98,261.49,1
3344,50.59,19.51,154.99,1
3345,50.6,381.88,376.24,1
3346,50.61,-30.32,65.8,1
3347,50.63,-42.54,-253.84,1
3348,50.64,-6.01,-138.09,1
3349,50.65,-21.93,220.35,1
3350,50.67,82.19,-26.01,1
3351,50.68,244.29,-79.93,1
3352,50.69,-136.41,69.66,1
3353,50.71,179.29,-262.75,1
3354,50.72,-55.72,-49.22,1
3355,50.73,-157.72,-321.62,1
3356,50.75,-162.29,-517.75,1
3357,50.76,-90.64,-130.19,1
3358,50.77,-124.21,16.89,1
3359,50.79,-58.49,296.17,1
3360,50.8,-208.78,-233.04,1
3361,50.81,-138.89,57.28,1
3362,50.83,107.84,91.31,1
3363,50.84,38.5,470.93,1
3364,50.85,-177.13,29.59,1
3365,50.87,-97.79,-261.75,1
3366,50.88,172.04,-124.86,1
3367,50.89,61.63,-16.97,1
3368,50.91,147.83,-83.42,1
3369,50.92,-187.65,-120.52,1
3370,50.93,-17.55,-98.17,1
3371,50.95,57.63,-114.68,1
3372,50.96,35.96,-62.42,1
3373,50.97,75.09,-11.44,1
3374,50.99,14.32,27.47,1
3375,51.0,13.8,48.07,1
3376,51.01,-43.52,14.91,1
3377,51.03,-44.55,25.19,1
3378,51.04,-25.56,34.21,1
3379,51.05,-44.49,53.24,1
3380,51.06,-28.48,77.71,1
3381,51.08,14.0,105.91,1
3382,51.09,38.6,119.98,1
3383,51.11,63.08,149.0,1
3384,51.12,55.67,153.46,1
3385,51.13,50.69,131.6,1
3386,51.15,67.35,122.74,1
3387,51.16,65.58,126.31,1
3388,51.17,10.6,138.45,1
3389,51.19,-2.59,125.52,1
3390,51.2,47.55,104.95,1
3391,51.21,50.42,93.05,1
3392,51.22,45.17,66.2,1
3393,51.24,50.37,60.26,1
3394,51.25,86.27,28.41,1
3395,51.27,43.08,-3.87,1
3396,51.28,30.26,-22.21,1
3397,51.29,-1.51,-17.98,1
3398,51.31,30.08,-33.01,1
3399,51.32,10.31,-57.99,1
3400,51.33,9.85,-60.72,1
3401,51.35,-19.72,-65.31,1
3402,51.36,-0.83,-79.44,1
3403,51.37,-17.58,-87.93,1
3404,51.38,-16.41,-102.64,1
3405,51.4,-17.13,-95.24,1
3406,51.41,-35.47,-112.56,1
3407,51.43,-37.79,-90.53,1
3408,51.44,-44.13,-92.73,1
3409,51.45,0.01,-86.68,1
3410,51.47,-30.94,-88.62,1
3411,51.48,-46.5,-81.13,1
3412,51.49,-58.14,-69.23,1
3413,51.51,-23.9,-67.62,1
3414,51.52,-25.05,-53.13,1
3415,51.53,-34.81,-45.96,1
3416,51.55,-31.84,-57.96,1
3417,51.56,-29.36,-56.97,1
3418,51.57,-44.49,-47.81,1
3419,51.59,-9.35,-23.55,1
3420,51.6,-32.16,-26.86,1
3421,51.61,-12.33,-46.72,1
3422,51.63,-32.57,-32.57,1
3423,51.64,-20.61,-14.23,1
3424,51.65,-7.95,-8.75,1
3425,51.67,-5.0,-13.87,1
3426,51.68,-11.98,-2.38,1
3427,51.69,-26.59,4.44,1
3428,51.71,-15.96,4.54,1
3429,51.72,7.14,4.55,1
3430,51.73,-0.95,5.12,1
3431,51.75,-11.11,-6.64,1
3432,51.76,-16.57,10.93,1
3433,51.77,15.29,23.69,1
3434,51.79,17.91,22.24,1
3435,51.8,6.52,31.79,1
3436,51.81,13.12,22.75,1
3437,51.83,11.27,21.45,1
3438,51.84,4.48,24.54,1
3439,51.85,2.27,45.67,1
3440,51.87,30.63,34.51,1
3441,51.88,-3.5,40.12,1
3442,51.89,-3.04,20.11,1
3443,51.9,-3.65,28.1,1
3444,51.92,28.85,15.53,1
3445,51.93,18.26,27.23,1
3446,51.95,16.5,30.55,1
3447,51.96,8.61,63.05,1
3448,51.97,18.13,52.75,1
3449,51.99,5.98,24.21,1
3450,52.0,8.69,-5.17,1
3451,52.01,9.77,29.28,1
3452,52.03,20.55,12.52,1
3453,52.04,4.66,27.13,1
3454,52.05,1.37,13.36,1
3455,52.06,0.97,35.29,1
3456,52.08,-37.86,36.87,1
3457,52.09,11.75,17.22,1
3458,52.11,-18.65,5.63,1
3459,52.12,-12.84,16.84,1
3460,52.13,64.44,29.42,1
3461,52.15,11.95,207.66,1
3462,52.16,9.83,362.03,1
3463,52.17,52.07,209.4,1
3464,52.19,80.09,19.73,1
3465,52.2,288.82,167.25,1
3466,52.21,113.81,-132.05,1
3467,52.23,-197.73,269.11,1
3468,52.24,10.92,48.37,1
3469,52.25,-242.99,46.2,1
3470,52.27,-21.63,-57.33,1
3471,52.28,204.74,-143.78,1
3472,52.29,1.8,-330.83,1
3473,52.31,134.07,-641.17,1
3474,52.32,188.08,39.86,1
3475,52.33,-115.29,-409.49,1
3476,52.35,-136.02,-513.43,1
3477,52.36,93.16,102.75,1
3478,52.37,-13.04,-260.14,1
3479,52.38,-83.74,-137.31,1
3480,52.4,-41.08,15.81,1
3481,52.41,-263.53,87.34,1
3482,52.43,83.56,-33.64,1
3483,52.44,26.64,-209.43,1
3484,52.45,-251.51,-14.3,1
3485,52.47,-109.99,-58.73,1
3486,52.48,-36.04,-254.66,1
3487,52.49,12.88,36.42,1
3488,52.51,-80.92,298.4,1
3489,52.52,-43.38,-3.03,1
3490,52.53,-146.1,587.07,1
3491,52.54,58.87,175.92,1
3492,52.56,-167.07,-30.7,1
3493,52.57,362.51,231.79,1
3494,52.59,167.21,290.56,1
3495,52.6,80.36,-177.9,1
3496,52.61,-459.1,-214.14,1
3497,52.63,23.09,429.89,1
3498,52.64,-278.38,93.91,1
3499,52.65,-43.85,113.98,1
3500,52.67,43.15,-42.24,1
3501,52.68,135.46,53.07,1
3502,52.69,12.17,-465.64,1
3503,52.71,-10.47,152.14,1
3504,52.72,83.93,-100.12,1
3505,52.73,-89.63,-152.98,1
3506,52.75,194.3,135.06,1
3507,52.76,-125.02,-143.19,1
3508,52.77,-56.28,286.36,1
3509,52.79,194.46,-18.1,1
3510,52.8,62.15,-427.31,1
3511,52.81,301.68,107.75,1
3512,52.83,-14.41,306.58,1
3513,52.84,-173.74,-60.38,1
3514,52.85,-9.37,-210.8,1
3515,52.87,215.87,145.22,1
3516,52.88,85.04,-211.05,1
3517,52.89,-13.62,261.47,1
3518,52.9,123.22,-339.21,1
3519,52.92,215.78,-142.11,1
3520,52.93,134.29,-120.44,1
3521,52.95,-200.39,515.69,1
3522,52.96,-24.72,138.49,1
3523,52.97,-198.24,93.61,1
3524,52.99,-93.79,-234.75,1
3525,53.0,45.66,-26.56,1
3526,53.01,264.96,-182.69,1
3527,53.03,97.69,410.6,1
3528,53.04,73.77,120.19,1
3529,53.05,-103.51,76.6,1
3530,53.06,-72.38,94.1,1
3531,53.08,80.27,293.0,1
3532,53.09,158.23,-227.87,1
3533,53.11,-14.82,87.59,1
3534,53.12,85.45,-154.25,1
3535,53.13,-179.59,-161.09,1
3536,53.15,-34.47,-79.49,1
3537,53.16,-127.71,-87.22,1
3538,53.17,-172.35,-50.68,1
3539,53.19,-238.22,-3.22,1
3540,53.2,-216.96,-18.72,1
3541,53.21,-169.57,15.7,1
3542,53.22,-118.85,-22.46,1
3543,53.24,-12.22,40.04,1
3544,53.25,48.15,41.13,1
3545,53.27,137.86,54.96,1
3546,53.28,151.54,41.38,1
3547,53.29,141.64,50.68,1
3548,53.31,142.62,117.82,1
3549,53.32,107.17,113.24,1
3550,53.33,78.35,103.04,1
3551,53.35,81.92,64.04,1
3552,53.36,74.37,81.76,1
3553,53.37,65.55,63.56,1
3554,53.38,42.17,19.57,1
3555,53.4,21.05,7.81,1
3556,53.41,51.39,-10.93,1
3557,53.43,3.46,-10.81,1
3558,53.44,-4.34,-26.85,1
3559,53.45,-41.93,-31.32,1
3560,53.47,-21.78,-52.3,1
3561,53.48,-18.52,-72.44,1
3562,53.49,-39.76,-75.63,1
3563,53.51,-52.5,-67.61,1
3564,53.52,-29.76,-74.21,1
3565,53.53,-64.63,-84.84,1
3566,53.54,-53.69,-61.68,1
3567,53.56,-59.09,-75.2,1
3568,53.57,-25.69,-65.78,1
3569,53.59,-54.18,-65.45,1
3570,53.6,-59.52,-51.29,1
3571,53.61,-50.03,-55.75,1
3572,53.63,-18.26,-65.84,1
3573,53.64,-47.27,-72.11,1
3574,53.65,-29.77,-42.64,1
3575,53.67,-39.91,-52.9,1
3576,53.68,-34.86,-55.35,1
3577,53.69,-29.78,-29.38,1
3578,53.71,-32.54,-28.42,1
3579,53.72,-5.01,-31.9,1
3580,53.73,-19.47,-14.04,1
3581,53.75,-15.51,-20.91,1
3582,53.76,-0.93,-19.8,1
3583,53.77,-4.34,-21.29,1
3584,53.79,-16.99,-13.65,1
3585,53.8,-16.33,3.92,1
3586,53.81,-17.54,15.23,1
3587,53.83,15.15,-1.59,1
3588,53.84,-1.39,3.33,1
3589,53.85,-2.0,9.61,1
3590,53.87,-7.77,10.46,1
3591,53.88,27.01,5.26,1
3592,53.89,4.82,10.96,1
3593,53.9,10.26,21.36,1
3594,53.92,17.47,23.93,1
3595,53.93,25.16,31.72,1
3596,53.95,20.17,3.57,1
3597,53.96,18.62,23.38,1
3598,53.97,18.41,50.13,1
3599,53.99,16.0,40.58,1
3600,54.0,22.9,28.75,1
3601,54.01,18.04,23.92,1
3602,54.03,26.58,16.31,1
3603,54.04,35.9,34.31,1
3604,54.05,25.95,48.11,1
3605,54.06,0.89,59.97,1
3606,54.08,-29.17,60.99,1
3607,54.09,28.45,33.21,1
3608,54.11,0.34,36.62,1
3609,54.12,52.38,27.2,1
3610,54.13,30.97,81.51,1
3611,54.15,19.54,309.84,1
3612,54.16,57.36,246.63,1
3613,54.17,8.96,-37.36,1
3614,54.19,102.68,190.19,1
3615,54.2,-49.3,239.4,1
3616,54.21,213.59,-32.21,1
3617,54.22,240.35,-81.21,1
3618,54.24,10.11,69.32,1
3619,54.25,34.91,-89.42,1
3620,54.27,142.71,111.91,1
3621,54.28,-241.56,-66.62,1
3622,54.29,-88.2,-172.78,1
3623,54.31,-9.69,-37.18,1
3624,54.32,-27.21,-273.6,1
3625,54.33,-4.84,-513.77,1
3626,54.35,-343.72,-641.14,1
3627,54.36,-70.52,-257.13,1
3628,54.37,5.39,102.16,1
3629,54.38,84.24,-490.48,1
3630,54.4,86.42,-91.68,1
3631,54.41,-189.24,-122.65,1
3632,54.43,253.17,294.5,1
3633,54.44,-13.26,74.81,1
3634,54.45,-135.67,-283.67,1
3635,54.47,-321.76,196.34,1
3636,54.48,-166.61,194.97,1
3637,54.49,209.77,365.95,1
3638,54.51,-128.68,259.58,1
3639,54.52,-86.2,42.88,1
3640,54.53,-136.41,-380.12,1
3641,54.54,23.48,3.04,1
3642,54.56,6.12,90.34,1
3643,54.57,232.85,-123.29,1
3644,54.59,3.84,-270.1,1
3645,54.6,108.65,-43.13,1
3646,54.61,-211.97,88.93,1
3647,54.63,-94.14,507.48,1
3648,54.64,-232.11,252.56,1
3649,54.65,-252.76,436.92,1
3650,54.67,287.82,-201.09,1
3651,54.68,-122.15,-1.62,1
3652,54.69,217.24,-246.68,1
3653,54.71,-19.05,-9.13,1
3654,54.72,96.6,25.22,1
3655,54.73,-163.18,657.95,1
3656,54.75,-24.95,131.9,1
3657,54.76,-18.05,387.18,1
3658,54.77,276.05,425.41,1
3659,54.79,255.1,242.64,1
3660,54.8,-158.02,-142.26,1
3661,54.81,222.49,-150.0,1
3662,54.83,173.88,199.45,1
3663,54.84,178.21,-513.6,1
3664,54.85,-78.76,-513.21,1
3665,54.87,46.75,-113.4,1
3666,54.88,204.05,205.51,1
3667,54.89,362.37,-270.15,1
3668,54.9,37.99,112.38,1
3669,54.92,-221.81,103.66,1
3670,54.93,59.13,-99.98,1
3671,54.95,121.58,-227.97,1
3672,54.96,255.65,-280.0,1
3673,54.97,176.06,78.93,1
3674,54.99,95.2,-58.08,1
3675,55.0,149.22,-83.07,1
3676,55.01,-123.32,-68.22,1
3677,55.03,-81.01,-71.21,1
3678,55.04,-301.05,-123.13,1
3679,55.05,-248.09,-28.1,1
3680,55.06,-298.52,-20.11,1
3681,55.08,-293.01,30.87,1
3682,55.09,-373.08,5.69,1
3683,55.11,-330.01,26.75,1
3684,55.12,-289.28,-5.35,1
3685,55.13,-209.72,13.21,1
3686,55.15,-114.26,24.21,1
3687,55.16,6.23,40.07,1
3688,55.17,90.82,36.4,1
3689,55.19,118.11,29.09,1
3690,55.2,149.12,41.64,1
3691,55.21,151.57,72.23,1
3692,55.22,144.06,72.94,1
3693,55.24,114.4,94.18,1
3694,55.25,127.65,103.29,1
3695,55.27,132.93,93.84,1
3696,55.28,101.69,71.05,1
3697,55.29,91.63,48.12,1
3698,55.31,89.36,44.52,1
3699,55.32,89.35,50.23,1
3700,55.33,62.44,47.14,1
3701,55.35,51.49,30.6,1
3702,55.36,37.64,6.53,1
3703,55.37,45.45,-33.38,1
3704,55.38,28.26,-22.82,1
3705,55.4,16.47,-16.0,1
3706,55.41,7.21,-2.45,1
3707,55.43,7.05,-15.81,1
3708,55.44,-16.97,-27.49,1
3709,55.45,-9.65,-8.97,1
3710,55.47,-27.33,-13.64,1
3711,55.48,3.09,-41.53,1
3712,55.49,-23.83,-40.62,1
3713,55.51,-43.2,-56.33,1
3714,55.52,-42.52,-60.27,1
3715,55.53,-22.16,-59.88,1
3716,55.54,-44.38,-65.8,1
3717,55.56,-39.05,-70.89,1
3718,55.57,-26.57,-22.91,1
3719,55.59,-24.43,-47.25,1
3720,55.6,-25.71,-32.19,1
3721,55.61,-33.01,-65.06,1
3722,55.63,-28.56,-37.7,1
3723,55.64,-41.95,-36.29,1
3724,55.65,-34.4,-27.53,1
3725,55.67,-33.54,-28.19,1
3726,55.68,-14.66,-41.35,1
3727,55.69,-25.71,-33.26,1
3728,55.71,-37.1,-22.19,1
3729,55.72,-21.72,-1.99,1
3730,55.73,7.24,-8.36,1
3731,55.75,-23.61,1.95,1
3732,55.76,-30.26,0.49,1
3733,55.77,-25.27,-1.38,1
3734,55.79,4.43,7.02,1
3735,55.8,-11.88,15.67,1
3736,55.81,-13.58,8.82,1
3737,55.83,-23.44,9.53,1
3738,55.84,11.63,2.76,1
3739,55.85,6.56,15.7,1
3740,55.87,-0.1,15.0,1
3741,55.88,12.11,9.22,1
3742,55.89,7.83,9.94,1
3743,55.9,11.65,7.25,1
3744,55.92,11.86,9.39,1
3745,55.93,19.59,3.58,1
3746,55.95,6.27,20.4,1
3747,55.96,2.45,15.0,1
3748,55.97,10.19,24.7,1
3749,55.99,19.64,1.47,1
3750,56.0,8.56,24.92,1
3751,56.01,2.14,23.6,1
3752,56.03,-6.88,16.81,1
3753,56.04,24.08,28.85,1
3754,56.05,10.21,27.99,1
3755,56.06,36.65,32.14,1
3756,56.08,-20.95,32.55,1
3757,56.09,5.53,67.81,1
3758,56.11,-0.31,142.76,1
3759,56.12,26.61,204.13,1
3760,56.13,-9.33,295.7,1
3761,56.15,32.29,38.69,1
3762,56.16,45.68,-107.27,1
3763,56.17,270.79,-170.0,1
3764,56.19,144.41,-131.4,1
3765,56.2,179.67,419.35,1
3766,56.21,56.76,147.03,1
3767,56.22,-41.81,85.96,1
3768,56.24,-154.52,-48.36,1
3769,56.25,-81.95,-203.3,1
3770,56.27,205.79,-293.5,1
3771,56.28,-111.91,-252.29,1
3772,56.29,-42.21,-305.77,1
3773,56.31,-185.68,-155.02,1
3774,56.32,-116.4,226.3,1
3775,56.33,-22.15,79.26,1
3776,56.35,85.03,173.39,1
3777,56.36,-57.02,-15.48,1
3778,56.37,-200.28,21.11,1
3779,56.38,-147.79,-142.88,1
3780,56.4,-161.88,-48.88,1
3781,56.41,97.26,-377.78,1
3782,56.43,54.7,-98.36,1
3783,56.44,-32.07,-329.67,1
3784,56.45,-34.31,-20.12,1
3785,56.47,68.45,-292.06,1
3786,56.48,13.52,173.79,1
3787,56.49,25.52,316.55,1
3788,56.51,-153.05,-55.78,1
3789,56.52,-37.34,-60.69,1
3790,56.53,-68.63,92.82,1
3791,56.54,61.54,89.84,1
3792,56.56,189.89,-305.36,1
3793,56.57,13.17,177.7,1
3794,56.59,-124.99,328.51,1
3795,56.6,-16.57,151.39,1
3796,56.61,-192.63,-166.7,1
3797,56.63,-42.15,90.52,1
3798,56.64,-133.91,92.85,1
3799,56.65,-38.71,54.17,1
3800,56.67,-166.24,215.14,1
3801,56.68,223.56,-299.08,1
3802,56.69,242.59,-236.31,1
3803,56.71,96.42,2.03,1
3804,56.72,233.31,471.72,1
3805,56.73,53.86,159.63,1
3806,56.75,-162.96,0.84,1
3807,56.76,-10.18,129.15,1
3808,56.77,-135.7,-128.88,1
3809,56.79,9.86,50.23,1
3810,56.8,-106.76,-519.92,1
3811,56.81,148.55,-218.26,1
3812,56.83,17.48,91.4,1
3813,56.84,-35.01,451.91,1
3814,56.85,453.27,-88.18,1
3815,56.87,121.84,-303.34,1
3816,56.88,216.93,2.4,1
3817,56.89,138.13,274.99,1
3818,56.9,139.08,343.72,1
3819,56.92,344.5,89.42,1
3820,56.93,60.35,168.43,1
3821,56.95,-54.64,-115.15,1
3822,56.96,-72.66,70.12,1
3823,56.97,-121.32,121.73,1
3824,56.99,-151.17,-345.68,1
3825,57.0,-188.05,157.26,1
3826,57.01,-12.75,-158.96,1
3827,57.03,51.83,-146.57,1
3828,57.04,-267.91,201.82,1
3829,57.05,-199.94,-106.98,1
3830,57.06,-306.71,-5.97,1
3831,57.08,50.43,-61.68,1
3832,57.09,-70.14,-37.76,1
3833,57.11,46.45,-65.79,1
3834,57.12,-45.73,-57.39,1
3835,57.13,17.1,-8.99,1
3836,57.15,-7.69,-5.21,1
3837,57.16,5.18,1.56,1
3838,57.17,46.11,-15.19,1
3839,57.19,3.4,10.54,1
3840,57.2,25.41,3.44,1
3841,57.21,1.61,23.54,1
3842,57.22,38.07,29.69,1
3843,57.24,28.48,32.37,1
3844,57.25,23.44,23.35,1
3845,57.27,12.01,86.43,1
3846,57.28,31.71,73.24,1
3847,57.29,14.84,113.02,1
3848,57.31,-1.55,103.27,1
3849,57.32,10.16,87.49,1
3850,57.33,24.96,86.14,1
3851,57.35,17.6,59.02,1
3852,57.36,3.75,21.83,1
3853,57.37,-5.55,22.68,1
3854,57.38,15.44,-1.16,1
3855,57.4,14.12,-7.32,1
3856,57.41,10.92,-20.73,1
3857,57.43,22.15,-31.12,1
3858,57.44,-12.72,-29.74,1
3859,57.45,-3.33,-58.62,1
3860,57.47,-14.61,-53.49,1
3861,57.48,-5.68,-73.88,1
3862,57.49,-18.47,-51.43,1
3863,57.51,-24.53,-39.24,1
3864,57.52,-43.6,-45.37,1
3865,57.53,-2.05,-44.33,1
3866,57.54,-18.89,-37.46,1
3867,57.56,-26.66,-69.01,1
3868,57.57,-31.75,-68.41,1
3869,57.59,-4.63,-39.08,1
3870,57.6,-19.36,-60.57,1
3871,57.61,-18.36,-62.77,1
3872,57.63,-26.03,-44.79,1
3873,57.64,-13.29,-43.36,1
3874,57.65,-16.96,-48.49,1
3875,57.67,-10.67,-45.51,1
3876,57.68,2.88,-41.66,1
3877,57.69,2.26,-22.22,1
3878,57.71,2.18,-27.21,1
3879,57.72,-15.25,-21.12,1
3880,57.73,-16.4,-25.27,1
3881,57.75,2.64,-24.68,1
3882,57.76,4.05,-21.45,1
3883,57.77,-5.61,-10.62,1
3884,57.79,2.73,-23.71,1
3885,57.8,5.38,-7.04,1
3886,57.81,-11.06,9.45,1
3887,57.83,16.54,-3.42,1
3888,57.84,30.35,-16.65,1
3889,57.85,15.97,11.75,1
3890,57.87,6.2,3.0,1
3891,57.88,-21.41,29.75,1
3892,57.89,3.13,7.88,1
3893,57.9,2.51,29.62,1
3894,57.92,-0.42,28.84,1
3895,57.93,5.06,22.41,1
3896,57.95,15.07,-2.07,1
3897,57.96,0.13,18.15,1
3898,57.97,23.63,22.47,1
3899,57.99,-2.32,16.89,1
3900,58.0,22.69,33.29,1
3901,58.01,6.33,31.0,1
3902,58.025000000000006,-4.34,37.52,1
3903,58.04,14.8,30.82,1
3904,58.05,27.35,19.31,1
3905,58.06,5.32,41.65,1
3906,58.08,-50.02,35.4,1
3907,58.09,-31.73,38.76,1
3908,58.11,11.19,35.98,1
3909,58.12,27.53,38.61,1
3910,58.13,18.61,298.38,1
3911,58.15,29.53,361.26,1
3912,58.16,16.13,300.14,1
3913,58.17,25.56,168.23,1
3914,58.19,14.06,-0.9,1
3915,58.2,-200.53,-19.39,1
3916,58.21,-245.54,90.63,1
3917,58.22,45.68,-219.19,1
3918,58.24,262.12,-258.2,1
3919,58.25,-82.94,-93.5,1
3920,58.27,213.66,10.58,1
3921,58.28,101.84,-107.95,1
3922,58.29,298.99,-491.87,1
3923,58.31,-12.63,-257.49,1
3924,58.32,-65.87,120.66,1
3925,58.33,-105.12,-51.41,1
3926,58.35,-71.84,-92.77,1
3927,58.36,-192.97,-269.91,1
3928,58.37,-67.54,-86.25,1
3929,58.38,-215.58,-493.44,1
3930,58.4,331.6,148.39,1
3931,58.41,41.52,-220.42,1
3932,58.43,273.02,69.53,1
3933,58.44,-19.84,-261.11,1
3934,58.45,204.22,130.36,1
3935,58.47,-114.66,-154.41,1
3936,58.48,6.04,-35.04,1
3937,58.49,278.12,149.0,1
3938,58.51,148.3,-76.11,1
3939,58.52,107.86,168.53,1
3940,58.53,-281.17,183.07,1
3941,58.54,7.09,0.74,1
3942,58.56,-232.88,-35.31,1
3943,58.57,14.7,132.77,1
3944,58.59,-221.68,-307.68,1
3945,58.6,144.99,75.57,1
3946,58.61,-267.9,101.54,1
3947,58.63,-214.11,214.68,1
3948,58.64,-33.2,76.07,1
3949,58.65,10.27,673.1,1
3950,58.66,-231.6,169.8,1
3951,58.68,-53.25,162.54,1
3952,58.69,-315.12,274.38,1
3953,58.71,16.18,-48.88,1
3954,58.72,-211.4,527.16,1
3955,58.73,-183.28,314.8,1
3956,58.75,217.41,130.45,1
3957,58.76,-88.05,93.59,1
3958,58.77,-98.28,312.36,1
3959,58.79,-64.87,-20.68,1
3960,58.8,-63.0,-46.99,1
3961,58.81,445.93,114.72,1
3962,58.83,106.72,-462.56,1
3963,58.84,124.07,-114.79,1
3964,58.85,-156.7,118.05,1
3965,58.87,-61.03,-172.31,1
3966,58.88,345.77,51.86,1
3967,58.89,83.87,-177.47,1
3968,58.9,-176.05,-434.66,1
3969,58.92,111.82,-143.95,1
3970,58.93,179.5,-227.8,1
3971,58.95,-13.59,-491.77,1
3972,58.96,394.51,-2.23,1
3973,58.97,-61.82,-255.16,1
3974,58.99,-191.93,-17.02,1
3975,59.0,-93.61,-188.7,1
3976,59.01,-10.9,-195.21,1
3977,59.03,167.28,-140.54,1
3978,59.04,126.52,12.2,1
3979,59.05,321.8,-52.15,1
3980,59.06,-161.26,-64.84,1
3981,59.08,66.02,-95.98,1
3982,59.09,-33.91,-28.33,1
3983,59.11,17.15,44.56,1
3984,59.12,-31.51,86.0,1
3985,59.13,47.46,120.64,1
3986,59.15,29.21,100.13,1
3987,59.16,21.01,56.37,1
3988,59.17,17.48,46.66,1
3989,59.19,16.76,54.78,1
3990,59.2,-5.18,41.99,1
3991,59.21,-14.21,109.28,1
3992,59.22,-31.86,55.92,1
3993,59.24,-2.9,82.32,1
3994,59.25,-21.89,70.04,1
3995,59.27,-30.21,98.99,1
3996,59.28,-30.63,115.6,1
3997,59.29,-14.57,122.13,1
3998,59.3,-25.53,131.89,1
3999,59.32,-34.99,117.81,1
4000,59.33,-17.39,92.13,1
4001,59.35,-17.91,102.71,1
4002,59.36,-32.11,81.23,1
4003,59.37,-13.16,59.31,1
4004,59.38,-0.05,38.17,1
4005,59.4,-9.41,33.17,1
4006,59.41,-17.33,12.62,1
4007,59.43,-13.22,-20.75,1
4008,59.44,-9.51,-10.4,1
4009,59.45,-15.38,-29.94,1
4010,59.47,-26.78,-37.75,1
4011,59.48,-22.19,-40.5,1
4012,59.49,9.92,-34.52,1
4013,59.51,-3.21,-23.04,1
4014,59.52,-27.53,-46.25,1
4015,59.53,-19.5,-30.9,1
4016,59.54,-1.4,-39.01,1
4017,59.56,-13.09,-56.79,1
4018,59.57,-5.83,-60.75,1
4019,59.59,-14.54,-67.49,1
4020,59.6,4.6,-54.92,1
4021,59.61,-20.71,-44.24,1
4022,59.63,-19.57,-41.92,1
4023,59.64,-20.79,-41.68,1
4024,59.65,-3.37,-52.74,1
4025,59.67,-13.99,-51.44,1
4026,59.68,-7.92,-53.07,1
4027,59.69,6.77,-42.46,1
4028,59.71,-7.72,-16.65,1
4029,59.72,-1.92,-44.49,1
4030,59.73,-12.36,-28.0,1
4031,59.75,7.63,-52.7,1
4032,59.76,-17.03,-23.31,1
4033,59.77,-14.26,-30.52,1
4034,59.79,-5.66,-22.24,1
4035,59.8,19.72,-17.62,1
4036,59.81,-13.19,-19.72,1
4037,59.83,-9.36,-12.19,1
4038,59.84,-11.47,0.83,1
4039,59.85,10.67,4.92,1
4040,59.87,3.36,-0.73,1
4041,59.88,0.38,6.3,1
4042,59.89,11.45,4.02,1
4043,59.9,21.29,-18.23,1
4044,59.92,-2.79,29.16,1
4045,59.93,-4.74,24.05,1
4046,59.94,-9.34,41.72,1
4047,59.96,16.57,14.81,1
4048,59.97,9.45,10.94,1
4049,59.985,7.6,11.5,1
4050,60.0,0.27,40.03,1
