,Timestamp,Data1,Data2,Label
0,6.0,2.34,-2.51,1
1,6.01,-1.51,11.19,1
2,6.03,-15.39,10.6,1
3,6.04,-4.19,4.12,1
4,6.05,-3.01,-1.4,1
5,6.07,-14.47,-0.91,1
6,6.08,-0.93,-31.39,1
7,6.09,10.78,-19.48,1
8,6.11,13.74,-6.76,1
9,6.12,-2.64,9.1,1
10,6.13,11.43,45.64,1
11,6.15,-9.8,51.11,1
12,6.16,-13.06,64.95,1
13,6.17,51.17,188.97,1
14,6.19,32.4,227.83,1
15,6.2,-166.87,295.25,1
16,6.21,133.55,224.24,1
17,6.23,90.46,165.37,1
18,6.24,92.96,117.88,1
19,6.25,142.08,58.81,1
20,6.27,-34.44,9.57,1
21,6.28,187.26,-34.46,1
22,6.29,-168.93,-71.43,1
23,6.31,254.62,-119.35,1
24,6.32,50.84,-374.8,1
25,6.33,42.27,-773.56,1
26,6.35,-148.95,-388.61,1
27,6.36,-2.64,-96.98,1
28,6.37,64.07,-225.62,1
29,6.39,-350.45,-817.54,1
30,6.4,-168.85,-304.88,1
31,6.41,-215.37,-114.9,1
32,6.43,37.84,-289.97,1
33,6.44,-112.85,-86.93,1
34,6.45,-234.79,211.64,1
35,6.47,3.84,321.14,1
36,6.48,-90.18,-398.2,1
37,6.49,-92.95,-88.4,1
38,6.51,-142.07,-2.54,1
39,6.52,-87.18,403.73,1
40,6.53,182.65,409.54,1
41,6.55,-3.38,-42.27,1
42,6.56,-25.34,190.43,1
43,6.57,-28.72,112.41,1
44,6.59,42.07,535.91,1
45,6.6,-122.12,480.0,1
46,6.61,78.71,-13.74,1
47,6.63,-68.48,284.61,1
48,6.64,72.11,-66.11,1
49,6.65,133.77,564.83,1
50,6.67,-131.71,-73.54,1
51,6.68,69.03,49.11,1
52,6.69,264.46,205.78,1
53,6.71,217.25,32.05,1
54,6.72,21.48,266.62,1
55,6.73,197.94,384.84,1
56,6.75,-113.06,111.66,1
57,6.76,310.03,-15.22,1
58,6.77,153.95,-112.78,1
59,6.79,-80.11,-45.89,1
60,6.8,-127.06,349.85,1
61,6.81,180.29,-303.71,1
62,6.83,-52.12,-28.94,1
63,6.84,55.71,330.98,1
64,6.85,-0.11,223.52,1
65,6.87,77.49,20.73,1
66,6.88,257.96,-341.51,1
67,6.89,-44.81,-181.43,1
68,6.91,-137.96,-46.95,1
69,6.92,67.1,-81.98,1
70,6.93,-168.06,-277.67,1
71,6.95,-121.63,-225.17,1
72,6.96,-361.26,-191.93,1
73,6.97,-122.68,-267.63,1
74,6.99,40.05,-408.05,1
75,7.0,23.8,-99.54,1
76,7.01,72.45,-241.98,1
77,7.03,-9.02,-212.06,1
78,7.04,-24.23,-219.37,1
79,7.05,-93.19,-131.13,1
80,7.07,-63.02,-43.44,1
81,7.08,-58.58,5.31,1
82,7.09,-30.7,105.29,1
83,7.11,-29.45,140.75,1
84,7.12,10.95,78.37,1
85,7.13,79.05,-171.23,1
86,7.15,122.43,-177.28,1
87,7.16,125.01,-147.01,1
88,7.17,131.38,-177.42,1
89,7.19,116.52,-57.99,1
90,7.2,119.08,-44.55,1
91,7.21,132.5,17.4,1
92,7.23,86.63,60.71,1
93,7.24,78.21,73.92,1
94,7.25,34.38,116.59,1
95,7.27,46.11,137.11,1
96,7.28,29.47,172.58,1
97,7.29,26.42,164.79,1
98,7.31,3.31,158.67,1
99,7.32,-6.01,174.21,1
100,7.33,-25.05,182.32,1
101,7.35,-40.16,167.78,1
102,7.36,-52.62,125.95,1
103,7.37,-59.79,97.33,1
104,7.39,-38.32,124.41,1
105,7.4,-64.91,77.39,1
106,7.41,-64.67,75.07,1
107,7.43,-79.43,46.01,1
108,7.44,-79.29,30.22,1
109,7.45,-82.68,20.69,1
110,7.47,-65.04,17.19,1
111,7.48,-63.23,24.91,1
112,7.49,-70.35,-7.73,1
113,7.51,-56.61,-6.87,1
114,7.52,-67.2,-11.09,1
115,7.53,-70.94,-18.95,1
116,7.55,-51.18,-41.43,1
117,7.56,-48.14,-32.48,1
118,7.57,-40.54,-20.6,1
119,7.59,-41.6,-16.78,1
120,7.6,-35.99,-21.66,1
121,7.61,-44.03,-27.65,1
122,7.63,-14.04,-35.43,1
123,7.64,-8.83,-47.36,1
124,7.65,-12.3,-36.8,1
125,7.67,-19.71,-47.97,1
126,7.68,2.84,-64.22,1
127,7.69,3.79,-30.48,1
128,7.71,2.88,-32.72,1
129,7.72,1.68,-41.68,1
130,7.73,1.19,-30.19,1
131,7.75,25.4,-34.33,1
132,7.76,23.74,-45.33,1
133,7.77,34.25,-21.29,1
134,7.79,3.56,-23.18,1
135,7.8,3.36,-38.01,1
136,7.81,-0.27,-17.2,1
137,7.83,4.06,-24.47,1
138,7.84,18.27,-8.89,1
139,7.85,26.74,1.09,1
140,7.87,26.49,-35.55,1
141,7.88,42.27,-37.93,1
142,7.89,31.88,-13.82,1
143,7.91,36.98,4.91,1
144,7.92,38.71,4.5,1
145,7.93,31.58,-5.28,1
146,7.95,34.58,-43.8,1
147,7.96,32.89,-28.34,1
148,7.97,20.48,59.5,1
149,7.99,36.93,-17.07,1
150,8.0,5.12,12.27,1
151,8.01,-5.49,0.33,1
152,8.03,28.77,7.58,1
153,8.04,20.14,32.4,1
154,8.05,18.4,16.93,1
155,8.07,35.15,22.31,1
156,8.08,20.76,-17.43,1
157,8.09,20.08,-16.21,1
158,8.11,11.3,21.55,1
159,8.12,7.53,27.63,1
160,8.13,25.66,57.74,1
161,8.15,2.91,128.87,1
162,8.16,-141.67,128.66,1
163,8.17,123.95,46.07,1
164,8.19,256.2,288.76,1
165,8.2,88.41,265.24,1
166,8.21,6.26,-4.43,1
167,8.23,-16.43,-72.13,1
168,8.24,147.15,313.99,1
169,8.25,35.18,-15.33,1
170,8.27,-11.0,-214.61,1
171,8.28,120.4,-165.13,1
172,8.29,64.15,-208.8,1
173,8.31,145.96,-50.03,1
174,8.32,-71.85,29.64,1
175,8.33,41.35,-182.64,1
176,8.35,-184.09,-610.94,1
177,8.36,-43.68,-458.82,1
178,8.37,-252.45,-84.44,1
179,8.39,-262.97,42.87,1
180,8.4,-274.85,-368.04,1
181,8.41,-93.66,-84.26,1
182,8.43,-121.67,203.32,1
183,8.44,-294.35,31.65,1
184,8.45,46.94,187.17,1
185,8.47,-167.37,313.72,1
186,8.48,-155.98,41.12,1
187,8.49,-135.96,237.58,1
188,8.51,-161.65,36.38,1
189,8.52,-4.49,-300.38,1
190,8.53,57.9,271.48,1
191,8.55,-37.08,252.7,1
192,8.56,23.04,-53.29,1
193,8.57,53.79,45.39,1
194,8.59,103.22,189.87,1
195,8.6,-201.16,210.91,1
196,8.61,226.93,24.95,1
197,8.63,201.5,-151.37,1
198,8.64,265.39,-61.82,1
199,8.65,34.26,150.18,1
200,8.67,118.62,-347.96,1
201,8.68,63.8,495.72,1
202,8.69,41.93,-16.98,1
203,8.71,71.44,66.87,1
204,8.72,30.64,-83.86,1
205,8.73,136.6,63.93,1
206,8.75,64.14,-364.0,1
207,8.76,239.05,68.16,1
208,8.77,368.65,-301.27,1
209,8.79,-15.92,-152.76,1
210,8.8,251.38,446.6,1
211,8.81,-146.53,2.74,1
212,8.83,-111.91,89.7,1
213,8.84,-158.22,-33.02,1
214,8.85,90.42,160.81,1
215,8.87,187.01,118.72,1
216,8.88,36.27,-148.38,1
217,8.89,130.92,199.43,1
218,8.91,-19.28,-136.93,1
219,8.92,-120.64,57.45,1
220,8.93,-192.55,52.05,1
221,8.95,-61.73,63.83,1
222,8.96,-77.12,233.09,1
223,8.97,-243.53,27.8,1
224,8.99,144.21,-173.28,1
225,9.0,-163.24,-244.54,1
226,9.01,-165.41,-276.59,1
227,9.03,-166.03,-275.9,1
228,9.04,125.75,-219.84,1
229,9.05,-111.91,215.83,1
230,9.07,-5.82,-105.24,1
231,9.08,-92.29,74.31,1
232,9.09,36.53,-223.86,1
233,9.11,-14.41,-154.36,1
234,9.12,-24.96,-182.83,1
235,9.13,-76.85,-208.46,1
236,9.15,-46.76,-77.21,1
237,9.16,-94.97,-209.0,1
238,9.17,-94.43,16.65,1
239,9.19,-94.85,60.04,1
240,9.2,-64.33,91.74,1
241,9.21,-46.46,248.61,1
242,9.23,43.17,162.12,1
243,9.24,66.65,216.13,1
244,9.25,77.09,178.29,1
245,9.27,105.72,11.11,1
246,9.28,113.6,-32.57,1
247,9.29,111.49,-84.44,1
248,9.31,111.0,-88.75,1
249,9.32,107.03,-91.09,1
250,9.33,104.82,-60.08,1
251,9.35,82.26,-2.67,1
252,9.36,91.6,92.06,1
253,9.37,72.61,128.61,1
254,9.39,64.53,116.39,1
255,9.4,27.87,162.95,1
256,9.41,15.85,126.85,1
257,9.43,1.27,182.28,1
258,9.44,-9.26,189.27,1
259,9.45,-9.59,154.77,1
260,9.47,-14.01,112.64,1
261,9.48,-23.99,109.25,1
262,9.49,-18.26,88.7,1
263,9.51,-31.85,28.1,1
264,9.52,-30.46,24.42,1
265,9.53,-39.1,15.69,1
266,9.55,-32.71,7.1,1
267,9.56,-29.41,5.71,1
268,9.57,-44.02,5.25,1
269,9.59,-60.84,-8.12,1
270,9.6,-46.69,-3.12,1
271,9.61,-39.51,-37.27,1
272,9.63,-30.57,-51.3,1
273,9.64,-37.26,-18.69,1
274,9.65,-34.35,-26.29,1
275,9.67,-21.1,-37.09,1
276,9.68,-23.7,-61.33,1
277,9.69,-22.92,-70.66,1
278,9.71,-21.1,-66.39,1
279,9.72,-18.03,-87.31,1
280,9.73,-28.28,-88.01,1
281,9.75,-14.68,-68.68,1
282,9.76,-11.06,-114.13,1
283,9.77,-16.56,-93.66,1
284,9.79,-9.03,-63.66,1
285,9.8,-11.3,-75.81,1
286,9.81,-13.83,-65.29,1
287,9.83,-13.99,-26.65,1
288,9.84,-13.03,-39.31,1
289,9.85,-3.7,-54.21,1
290,9.87,6.34,-18.86,1
291,9.88,-5.62,-36.47,1
292,9.89,10.93,-7.88,1
293,9.91,23.12,-8.21,1
294,9.92,5.97,-39.74,1
295,9.93,11.93,-48.27,1
296,9.95,4.1,-23.47,1
297,9.96,-4.82,-33.61,1
298,9.97,10.35,-33.03,1
299,9.99,14.19,18.93,1
300,10.0,12.24,-4.23,1
301,10.01,-3.46,-11.39,1
302,10.03,14.05,2.06,1
303,10.04,5.93,58.11,1
304,10.05,30.92,29.57,1
305,10.07,25.25,-5.91,1
306,10.08,12.5,3.68,1
307,10.09,43.25,32.88,1
308,10.11,14.2,24.76,1
309,10.12,12.32,42.88,1
310,10.13,7.98,57.09,1
311,10.15,12.09,43.11,1
312,10.16,23.76,105.09,1
313,10.17,111.28,138.37,1
314,10.19,-113.59,292.84,1
315,10.2,124.52,196.52,1
316,10.21,54.09,-100.69,1
317,10.23,248.01,218.55,1
318,10.24,-58.0,76.69,1
319,10.25,35.01,-77.93,1
320,10.27,75.04,259.7,1
321,10.28,178.14,32.63,1
322,10.29,-113.7,37.55,1
323,10.31,-105.53,-237.07,1
324,10.32,5.38,-546.69,1
325,10.33,-41.97,-91.43,1
326,10.35,72.55,-639.79,1
327,10.36,-222.13,-263.86,1
328,10.37,98.03,-194.11,1
329,10.39,-350.1,-471.32,1
330,10.4,-2.07,149.92,1
331,10.41,-46.81,20.07,1
332,10.43,-154.23,-45.81,1
333,10.44,25.01,329.59,1
334,10.45,-233.04,300.84,1
335,10.47,-66.42,-95.15,1
336,10.48,-79.94,115.71,1
337,10.49,21.8,207.13,1
338,10.51,-102.14,-348.11,1
339,10.52,229.98,-24.83,1
340,10.53,172.89,-141.05,1
341,10.55,-190.85,185.73,1
342,10.56,-82.35,23.9,1
343,10.57,-74.16,28.03,1
344,10.59,85.1,328.0,1
345,10.6,80.97,-306.84,1
346,10.61,-129.06,112.04,1
347,10.63,216.57,-12.5,1
348,10.64,93.95,399.44,1
349,10.65,214.14,161.88,1
350,10.67,-94.27,291.04,1
351,10.68,71.43,206.06,1
352,10.69,77.27,-0.85,1
353,10.71,78.34,-144.96,1
354,10.72,-4.94,-120.26,1
355,10.73,67.34,105.07,1
356,10.75,-125.27,313.86,1
357,10.76,90.99,448.77,1
358,10.77,-73.63,67.39,1
359,10.79,50.49,-290.23,1
360,10.8,-85.02,317.23,1
361,10.81,249.22,-264.21,1
362,10.83,-138.11,-275.17,1
363,10.84,202.05,66.02,1
364,10.85,120.73,-259.69,1
365,10.87,-75.39,138.21,1
366,10.88,-115.75,147.84,1
367,10.89,-71.69,-37.21,1
368,10.91,-200.71,-394.86,1
369,10.92,-8.3,-211.01,1
370,10.93,32.92,-20.89,1
371,10.95,66.93,14.73,1
372,10.96,175.28,-30.12,1
373,10.97,191.27,37.87,1
374,10.99,-285.85,110.13,1
375,11.0,78.04,162.85,1
376,11.01,63.88,297.78,1
377,11.03,-121.28,-236.93,1
378,11.04,-154.89,50.29,1
379,11.05,-221.98,-153.33,1
380,11.07,-197.21,-106.18,1
381,11.08,-234.65,-248.99,1
382,11.09,-248.03,12.95,1
383,11.11,-173.48,63.41,1
384,11.12,-93.08,185.68,1
385,11.13,-8.05,163.79,1
386,11.15,91.79,169.97,1
387,11.16,133.94,27.39,1
388,11.17,167.68,-178.68,1
389,11.19,178.1,-198.96,1
390,11.2,194.45,-277.38,1
391,11.21,213.2,-241.07,1
392,11.23,201.2,-174.24,1
393,11.24,165.49,-123.49,1
394,11.25,119.71,-59.66,1
395,11.27,95.11,-7.07,1
396,11.28,94.3,-19.4,1
397,11.29,100.57,26.99,1
398,11.31,79.98,37.94,1
399,11.32,79.94,77.76,1
400,11.33,38.88,152.32,1
401,11.35,61.34,109.54,1
402,11.36,-0.18,115.38,1
403,11.37,22.21,97.31,1
404,11.39,-6.2,92.46,1
405,11.4,-25.45,122.08,1
406,11.41,-23.06,111.93,1
407,11.43,-39.5,81.96,1
408,11.44,-38.65,60.14,1
409,11.45,-63.25,19.62,1
410,11.47,-58.6,-15.48,1
411,11.48,-75.71,-4.17,1
412,11.49,-63.89,-47.12,1
413,11.51,-53.24,-25.3,1
414,11.52,-83.36,-49.2,1
415,11.53,-81.18,-74.06,1
416,11.55,-77.17,-49.46,1
417,11.56,-69.42,-37.29,1
418,11.57,-72.79,-40.73,1
419,11.59,-52.78,-0.85,1
420,11.6,-52.11,-30.74,1
421,11.61,-86.29,-12.27,1
422,11.63,-69.43,-37.12,1
423,11.64,-61.07,-5.32,1
424,11.65,-59.25,-42.69,1
425,11.67,-35.49,-19.98,1
426,11.68,-25.58,-23.87,1
427,11.69,-16.88,-20.01,1
428,11.71,-13.93,-13.15,1
429,11.72,-19.5,-40.84,1
430,11.73,-23.21,-26.82,1
431,11.75,-30.7,-11.07,1
432,11.76,2.03,0.43,1
433,11.77,8.83,-3.85,1
434,11.79,0.07,28.44,1
435,11.8,14.17,5.71,1
436,11.81,19.45,36.08,1
437,11.83,1.54,26.66,1
438,11.84,-9.9,6.98,1
439,11.85,16.36,-13.99,1
440,11.87,26.49,38.43,1
441,11.88,22.17,15.22,1
442,11.89,25.97,51.86,1
443,11.91,18.05,14.3,1
444,11.92,35.7,24.34,1
445,11.93,32.92,-2.66,1
446,11.95,28.35,18.56,1
447,11.96,24.85,2.1,1
448,11.97,12.66,17.73,1
449,11.99,22.38,17.65,1
450,12.0,16.85,6.22,1
451,12.01,5.39,32.89,1
452,12.03,10.34,7.78,1
453,12.04,14.99,11.5,1
454,12.05,20.39,12.4,1
455,12.07,16.41,4.92,1
456,12.08,21.81,-2.88,1
457,12.09,24.04,15.01,1
458,12.11,27.15,22.88,1
459,12.12,14.21,-12.69,1
460,12.13,-56.34,76.99,1
461,12.15,-62.73,191.91,1
462,12.16,-160.65,15.5,1
463,12.17,-202.63,-376.12,1
464,12.19,123.77,38.34,1
465,12.2,337.54,25.94,1
466,12.21,175.19,241.04,1
467,12.23,91.04,241.2,1
468,12.24,271.87,-45.4,1
469,12.25,178.85,-50.01,1
470,12.27,131.72,42.61,1
471,12.28,223.57,-150.72,1
472,12.29,53.98,-105.43,1
473,12.31,115.53,-379.58,1
474,12.32,-162.87,-113.93,1
475,12.33,-149.5,-312.75,1
476,12.35,-328.05,-358.01,1
477,12.36,-183.83,-107.67,1
478,12.37,-120.81,29.42,1
479,12.39,-167.78,207.67,1
480,12.4,-248.34,-189.87,1
481,12.41,-231.78,295.35,1
482,12.43,123.86,52.43,1
483,12.44,-99.16,-158.16,1
484,12.45,170.08,295.25,1
485,12.47,24.68,-236.66,1
486,12.48,-177.03,-6.39,1
487,12.49,-275.16,44.65,1
488,12.51,174.48,-294.09,1
489,12.52,-127.23,-115.66,1
490,12.53,-43.47,27.03,1
491,12.55,-38.28,479.19,1
492,12.56,-86.89,442.77,1
493,12.57,-5.12,121.85,1
494,12.59,113.08,209.65,1
495,12.6,181.22,168.69,1
496,12.61,-145.36,-201.79,1
497,12.63,-100.31,-57.57,1
498,12.64,47.82,273.63,1
499,12.65,77.51,258.86,1
500,12.67,156.48,258.05,1
501,12.68,-69.22,170.9,1
502,12.69,-29.11,-49.59,1
503,12.71,125.99,-270.92,1
504,12.72,57.72,-15.01,1
505,12.73,73.97,422.64,1
506,12.75,156.15,-118.24,1
507,12.76,140.09,-82.6,1
508,12.77,23.68,-228.05,1
509,12.79,290.31,-123.09,1
510,12.8,-73.89,-48.13,1
511,12.81,-206.07,-76.73,1
512,12.83,-86.77,251.34,1
513,12.84,-82.28,58.81,1
514,12.85,-31.39,-120.82,1
515,12.87,398.6,82.38,1
516,12.88,121.43,-67.06,1
517,12.89,90.94,12.34,1
518,12.91,81.39,-179.39,1
519,12.92,67.68,46.2,1
520,12.93,-195.16,72.55,1
521,12.95,99.59,-125.77,1
522,12.96,-0.4,-233.91,1
523,12.97,-59.04,-11.3,1
524,12.99,75.81,-310.03,1
525,13.0,-39.5,-151.78,1
526,13.01,17.49,-255.63,1
527,13.03,-22.98,-317.65,1
528,13.04,-50.05,-227.39,1
529,13.05,-98.55,-102.17,1
530,13.07,-102.91,2.03,1
531,13.08,-45.66,153.06,1
532,13.09,-72.69,133.78,1
533,13.11,-69.59,140.19,1
534,13.12,-34.1,27.31,1
535,13.13,-44.15,94.88,1
536,13.15,1.44,-26.8,1
537,13.16,22.66,-124.88,1
538,13.17,25.41,-110.94,1
539,13.19,15.54,-64.26,1
540,13.2,11.8,-50.75,1
541,13.21,5.22,-15.49,1
542,13.23,17.78,2.31,1
543,13.24,2.13,33.03,1
544,13.25,-0.12,20.67,1
545,13.27,10.73,105.62,1
546,13.28,-7.92,70.23,1
547,13.29,11.67,107.89,1
548,13.31,-0.25,155.0,1
549,13.32,-16.23,139.26,1
550,13.33,-9.93,104.13,1
551,13.35,-14.55,80.36,1
552,13.36,-24.51,65.39,1
553,13.37,-31.31,101.38,1
554,13.39,-26.72,60.08,1
555,13.4,-15.25,67.1,1
556,13.41,-16.71,41.46,1
557,13.43,-22.44,68.5,1
558,13.44,-25.97,64.5,1
559,13.45,-23.16,68.37,1
560,13.47,-21.33,35.35,1
561,13.48,-17.9,42.91,1
562,13.49,-16.84,-10.5,1
563,13.51,-11.29,-5.08,1
564,13.52,-17.48,25.36,1
565,13.53,-14.44,-2.78,1
566,13.55,-20.95,15.25,1
567,13.56,-15.57,24.29,1
568,13.57,-14.07,2.78,1
569,13.59,-17.37,-14.78,1
570,13.6,-6.57,-29.96,1
571,13.61,6.75,-11.07,1
572,13.63,5.0,-28.68,1
573,13.64,3.54,-29.07,1
574,13.65,13.21,-24.99,1
575,13.67,13.84,-41.05,1
576,13.68,7.66,-36.69,1
577,13.69,22.61,-64.69,1
578,13.71,7.45,-14.84,1
579,13.72,7.29,-51.27,1
580,13.73,7.81,-30.68,1
581,13.75,15.61,-34.39,1
582,13.76,9.17,-0.38,1
583,13.77,0.47,-53.44,1
584,13.79,10.54,-42.61,1
585,13.8,5.71,-22.88,1
586,13.81,14.63,-47.13,1
587,13.83,17.7,-49.58,1
588,13.84,3.34,-43.65,1
589,13.85,19.36,-12.9,1
590,13.87,18.85,-23.04,1
591,13.88,2.13,5.62,1
592,13.89,6.53,-1.4,1
593,13.91,2.99,2.08,1
594,13.92,11.81,0.8,1
595,13.93,19.62,23.6,1
596,13.95,1.75,-8.29,1
597,13.96,27.22,-11.67,1
598,13.97,2.63,-2.38,1
599,13.99,17.44,-5.49,1
600,14.0,9.19,-18.61,1
601,14.01,24.22,9.83,1
602,14.03,3.41,-2.19,1
603,14.04,-0.83,20.1,1
604,14.05,-2.32,11.88,1
605,14.07,6.83,7.82,1
606,14.08,14.19,25.78,1
607,14.09,9.22,5.44,1
608,14.11,16.42,4.35,1
609,14.12,-3.38,27.13,1
610,14.13,10.55,159.99,1
611,14.15,73.24,253.59,1
612,14.16,-38.41,382.61,1
613,14.17,37.53,246.43,1
614,14.19,165.31,46.9,1
615,14.2,-173.07,-338.85,1
616,14.21,96.18,-77.21,1
617,14.23,-8.66,53.1,1
618,14.24,-95.61,-255.89,1
619,14.25,3.14,255.68,1
620,14.27,109.85,60.57,1
621,14.28,261.61,-39.23,1
622,14.29,79.18,-219.75,1
623,14.31,195.14,-189.0,1
624,14.32,-49.95,-705.63,1
625,14.33,-67.59,-299.38,1
626,14.35,-227.16,-278.96,1
627,14.36,0.63,194.32,1
628,14.37,-221.19,-40.89,1
629,14.39,-144.4,-405.98,1
630,14.4,-326.38,-274.38,1
631,14.41,-243.8,-332.54,1
632,14.43,-124.82,39.26,1
633,14.44,-117.6,-29.95,1
634,14.45,26.79,1.06,1
635,14.47,-22.81,424.7,1
636,14.48,-119.33,-20.72,1
637,14.49,91.66,438.0,1
638,14.51,103.32,-59.37,1
639,14.52,-106.28,-9.51,1
640,14.53,-44.14,-77.94,1
641,14.55,-178.32,408.31,1
642,14.56,368.16,451.73,1
643,14.57,26.75,-138.43,1
644,14.59,134.79,89.73,1
645,14.6,2.27,-21.54,1
646,14.61,84.01,553.48,1
647,14.63,228.78,455.85,1
648,14.64,88.71,85.22,1
649,14.65,97.77,-6.0,1
650,14.67,16.66,-163.33,1
651,14.68,-100.89,56.11,1
652,14.69,28.77,267.79,1
653,14.71,-142.36,29.91,1
654,14.72,-12.5,181.3,1
655,14.73,176.32,378.65,1
656,14.75,267.06,39.52,1
657,14.76,-202.44,-577.82,1
658,14.77,-84.62,-141.27,1
659,14.79,150.93,194.28,1
660,14.8,18.13,-138.91,1
661,14.81,167.59,-219.24,1
662,14.83,33.34,-19.72,1
663,14.84,-73.27,256.41,1
664,14.85,130.59,-11.21,1
665,14.87,52.84,169.78,1
666,14.88,4.99,198.93,1
667,14.89,-76.7,-41.91,1
668,14.91,-54.82,185.33,1
669,14.92,-49.82,-114.56,1
670,14.93,19.01,141.42,1
671,14.95,-213.31,-197.02,1
672,14.96,-94.08,-141.31,1
673,14.97,-176.02,-404.41,1
674,14.99,23.95,-315.69,1
675,15.0,-25.14,-309.79,1
676,15.01,-31.97,-267.64,1
677,15.03,-13.23,-216.07,1
678,15.04,-82.92,-221.69,1
679,15.05,-62.92,-148.52,1
680,15.07,-67.53,-14.84,1
681,15.08,-3.86,80.76,1
682,15.09,-8.98,94.06,1
683,15.11,-2.5,-21.01,1
684,15.12,-29.01,-7.13,1
685,15.13,13.58,-1.81,1
686,15.15,42.1,-80.64,1
687,15.16,99.83,-110.96,1
688,15.17,104.22,-106.18,1
689,15.19,105.65,-148.08,1
690,15.2,133.0,-30.19,1
691,15.21,105.05,31.25,1
692,15.23,105.71,78.61,1
693,15.24,90.16,67.48,1
694,15.25,71.62,76.56,1
695,15.27,57.51,105.51,1
696,15.28,39.28,73.98,1
697,15.29,41.36,27.22,1
698,15.31,21.79,64.11,1
699,15.32,-47.05,45.69,1
700,15.33,-35.48,81.51,1
701,15.35,-34.91,89.35,1
702,15.36,-4.57,105.41,1
703,15.37,-21.35,97.39,1
704,15.39,6.99,88.14,1
705,15.4,-21.85,81.18,1
706,15.41,-18.8,87.94,1
707,15.43,-22.59,35.45,1
708,15.44,-36.96,40.44,1
709,15.45,-33.49,51.01,1
710,15.47,-37.49,64.27,1
711,15.48,-34.13,38.42,1
712,15.49,-34.71,13.7,1
713,15.51,-43.54,59.12,1
714,15.52,-36.53,48.53,1
715,15.53,-37.42,40.62,1
716,15.55,-43.99,56.56,1
717,15.56,-42.1,42.21,1
718,15.57,-40.21,15.09,1
719,15.59,-48.51,23.5,1
720,15.6,-28.35,9.15,1
721,15.61,-42.27,14.3,1
722,15.63,-37.3,19.49,1
723,15.64,-37.55,5.33,1
724,15.65,-26.02,-12.11,1
725,15.67,-14.33,11.07,1
726,15.68,-26.34,-17.87,1
727,15.69,-14.67,-37.42,1
728,15.71,-21.48,-41.71,1
729,15.72,-11.21,-38.8,1
730,15.73,-3.48,-36.41,1
731,15.75,-8.67,-62.49,1
732,15.76,1.97,-48.56,1
733,15.77,3.58,-47.15,1
734,15.79,-2.42,-41.36,1
735,15.8,-2.33,-53.37,1
736,15.81,-5.41,-21.15,1
737,15.83,-7.03,-31.1,1
738,15.84,25.92,-12.42,1
739,15.85,11.19,-44.25,1
740,15.87,23.75,-51.07,1
741,15.88,16.23,-14.27,1
742,15.89,18.21,-27.73,1
743,15.91,17.92,-5.7,1
744,15.92,25.22,-16.59,1
745,15.93,24.51,-16.3,1
746,15.95,25.25,-33.3,1
747,15.96,15.39,9.87,1
748,15.97,12.81,-5.88,1
749,15.99,29.91,-3.59,1
750,16.0,24.36,-11.46,1
751,16.01,17.38,-13.21,1
752,16.03,-3.81,3.67,1
753,16.04,10.39,-22.58,1
754,16.05,16.27,-1.29,1
755,16.07,18.84,-3.65,1
756,16.08,25.11,-17.42,1
757,16.09,25.3,-10.64,1
758,16.11,15.91,-26.86,1
759,16.12,5.68,-20.61,1
760,16.13,23.08,7.82,1
761,16.15,-4.43,-65.46,1
762,16.16,3.9,4.77,1
763,16.17,23.87,423.92,1
764,16.19,-53.29,161.93,1
765,16.2,118.49,-40.83,1
766,16.21,-6.32,431.1,1
767,16.23,48.27,176.12,1
768,16.24,72.87,143.71,1
769,16.25,-202.63,10.25,1
770,16.27,163.38,53.74,1
771,16.28,58.12,-142.4,1
772,16.29,338.98,-190.33,1
773,16.31,68.8,-585.91,1
774,16.32,105.43,-730.73,1
775,16.33,97.93,-412.11,1
776,16.35,-29.51,-99.86,1
777,16.36,-383.93,-64.83,1
778,16.37,77.59,-195.19,1
779,16.39,-362.45,-240.47,1
780,16.4,54.13,239.4,1
781,16.41,-70.68,122.24,1
782,16.42,-225.73,491.59,1
783,16.44,-207.34,337.38,1
784,16.45,-90.88,301.38,1
785,16.47,43.74,59.01,1
786,16.48,-15.27,-118.32,1
787,16.49,70.51,-55.3,1
788,16.51,81.47,-125.63,1
789,16.52,-110.16,-290.96,1
790,16.53,-68.55,-79.76,1
791,16.55,-120.82,-98.01,1
792,16.56,-232.05,-315.63,1
793,16.57,-5.98,-109.55,1
794,16.59,97.46,136.65,1
795,16.6,240.51,-74.45,1
796,16.61,13.04,138.38,1
797,16.63,139.49,597.12,1
798,16.64,-120.84,375.65,1
799,16.65,5.77,78.8,1
800,16.67,8.59,244.88,1
801,16.68,89.38,220.12,1
802,16.69,16.76,66.2,1
803,16.71,90.16,69.07,1
804,16.72,-14.49,-135.43,1
805,16.73,-121.55,-192.03,1
806,16.75,-103.11,84.35,1
807,16.76,127.54,-213.88,1
808,16.77,17.75,117.22,1
809,16.79,115.16,-264.11,1
810,16.8,175.09,-167.61,1
811,16.81,-135.04,22.27,1
812,16.83,171.04,-153.75,1
813,16.84,-325.15,-44.76,1
814,16.85,-15.36,133.74,1
815,16.87,-256.13,157.35,1
816,16.88,59.13,219.12,1
817,16.89,-129.99,-48.24,1
818,16.91,121.19,342.75,1
819,16.92,96.43,486.65,1
820,16.93,141.99,57.78,1
821,16.95,38.75,142.66,1
822,16.96,236.75,76.41,1
823,16.97,120.33,-193.6,1
824,16.99,377.7,-158.03,1
825,17.0,87.21,93.42,1
826,17.01,54.85,-32.22,1
827,17.03,16.45,-68.65,1
828,17.04,-24.43,-174.87,1
829,17.05,-47.85,-99.3,1
830,17.06,-125.45,-111.92,1
831,17.08,-124.27,-78.07,1
832,17.09,-130.29,23.61,1
833,17.11,-94.51,115.37,1
834,17.12,-98.88,44.91,1
835,17.13,-8.87,-39.3,1
836,17.15,-14.8,1.48,1
837,17.16,-2.78,-91.47,1
838,17.17,21.03,-198.78,1
839,17.19,17.8,-117.47,1
840,17.2,36.14,-171.98,1
841,17.21,35.76,-204.63,1
842,17.23,58.32,-220.41,1
843,17.24,34.55,-95.05,1
844,17.25,27.98,-46.62,1
845,17.27,20.67,-6.29,1
846,17.28,14.61,8.85,1
847,17.29,-1.65,50.35,1
848,17.31,-5.52,-11.89,1
849,17.32,-7.41,33.71,1
850,17.33,-14.63,-2.88,1
851,17.35,-18.31,-10.42,1
852,17.36,-21.9,18.13,1
853,17.37,-30.26,-0.42,1
854,17.39,-25.06,32.14,1
855,17.4,-34.67,36.6,1
856,17.41,-28.71,45.21,1
857,17.43,-29.29,26.75,1
858,17.44,-32.73,20.72,1
859,17.45,-28.31,23.74,1
860,17.47,-31.8,29.22,1
861,17.48,-19.71,26.49,1
862,17.49,-38.89,31.31,1
863,17.51,-42.89,13.43,1
864,17.52,-11.72,7.56,1
865,17.53,-20.82,13.25,1
866,17.55,-31.53,40.78,1
867,17.56,-23.86,38.71,1
868,17.57,-13.92,33.3,1
869,17.59,-23.5,18.12,1
870,17.6,-9.9,30.9,1
871,17.61,-21.95,57.71,1
872,17.63,-4.27,-4.37,1
873,17.64,-8.76,17.82,1
874,17.65,13.36,38.66,1
875,17.67,-9.59,4.06,1
876,17.68,-0.75,-8.66,1
877,17.69,1.99,-21.26,1
878,17.7,6.17,17.69,1
879,17.72,-6.15,-27.26,1
880,17.73,-2.1,-24.95,1
881,17.75,-11.9,7.8,1
882,17.76,1.51,-26.55,1
883,17.77,8.0,-51.07,1
884,17.79,17.15,-20.75,1
885,17.8,14.76,21.64,1
886,17.81,5.29,5.25,1
887,17.83,-0.76,26.53,1
888,17.84,1.96,-4.11,1
889,17.85,12.06,-15.72,1
890,17.87,4.86,-26.38,1
891,17.88,12.21,-0.42,1
892,17.89,21.99,27.04,1
893,17.91,17.94,34.12,1
894,17.92,17.01,-0.35,1
895,17.93,30.97,-1.37,1
896,17.95,15.88,14.89,1
897,17.96,14.16,3.68,1
898,17.97,9.2,8.66,1
899,17.99,7.96,-21.87,1
900,18.0,25.5,17.99,1
901,18.01,7.48,11.48,1
902,18.03,-0.45,35.35,1
903,18.04,3.99,35.56,1
904,18.05,-3.95,12.48,1
905,18.07,-5.92,21.44,1
906,18.08,26.55,-17.04,1
907,18.09,29.67,10.95,1
908,18.11,1.36,-17.48,1
909,18.12,-8.63,42.73,1
910,18.13,-26.23,186.88,1
911,18.15,-67.04,372.65,1
912,18.16,-105.51,62.99,1
913,18.17,65.13,-129.51,1
914,18.19,158.16,121.42,1
915,18.2,-3.58,-267.35,1
916,18.21,120.01,176.62,1
917,18.23,56.43,-398.52,1
918,18.24,35.69,121.81,1
919,18.25,221.53,17.53,1
920,18.27,220.27,-156.95,1
921,18.28,139.82,-584.41,1
922,18.29,-148.4,-279.83,1
923,18.31,106.07,-458.18,1
924,18.32,-35.8,-26.74,1
925,18.33,-34.34,-3.32,1
926,18.34,-63.34,-153.11,1
927,18.36,-77.86,-38.44,1
928,18.37,-306.29,119.19,1
929,18.385,-198.94,132.94,1
930,18.4,-194.88,87.05,1
931,18.41,-106.03,163.22,1
932,18.43,-91.93,269.43,1
933,18.44,-107.54,-41.98,1
934,18.45,-158.2,-70.71,1
935,18.47,-251.08,-11.17,1
936,18.48,72.36,45.26,1
937,18.49,183.15,357.19,1
938,18.51,76.12,286.02,1
939,18.52,83.39,163.42,1
940,18.53,-13.72,-94.73,1
941,18.55,160.31,111.79,1
942,18.56,-14.94,111.32,1
943,18.57,-115.86,47.08,1
944,18.59,-65.83,147.19,1
945,18.6,-74.31,361.77,1
946,18.61,-13.35,199.73,1
947,18.63,115.15,-357.93,1
948,18.64,23.6,-231.7,1
949,18.65,-97.21,131.69,1
950,18.67,-53.43,-182.44,1
951,18.68,31.52,-6.11,1
952,18.69,15.62,-138.32,1
953,18.71,97.23,-290.32,1
954,18.72,455.42,-251.88,1
955,18.73,53.74,113.62,1
956,18.75,305.19,-67.22,1
957,18.76,39.83,21.22,1
958,18.77,201.96,275.84,1
959,18.79,-160.47,333.39,1
960,18.8,-22.5,-40.94,1
961,18.81,-170.75,220.09,1
962,18.83,35.67,-226.59,1
963,18.84,46.45,15.35,1
964,18.85,96.67,-272.07,1
965,18.87,-169.2,-88.62,1
966,18.88,98.56,-48.04,1
967,18.89,-164.59,-192.35,1
968,18.91,-56.98,-160.65,1
969,18.92,-113.68,-65.54,1
970,18.93,-89.23,-123.29,1
971,18.95,-133.4,-68.56,1
972,18.96,-44.5,224.58,1
973,18.97,-85.31,217.62,1
974,18.98,-42.84,228.35,1
975,19.0,-61.27,448.58,1
976,19.01,-2.06,85.72,1
977,19.025,25.22,4.51,1
978,19.04,98.37,-33.25,1
979,19.05,102.78,-102.11,1
980,19.07,77.15,-150.5,1
981,19.08,91.57,-133.7,1
982,19.09,76.87,-125.82,1
983,19.11,131.48,-147.28,1
984,19.12,100.72,-110.37,1
985,19.13,65.89,-65.12,1
986,19.15,50.43,-24.59,1
987,19.16,32.86,-5.21,1
988,19.17,14.03,26.3,1
989,19.19,4.13,-6.17,1
990,19.2,22.99,-6.92,1
991,19.21,7.41,-5.06,1
992,19.23,4.8,-8.06,1
993,19.24,-7.47,18.89,1
994,19.25,-12.77,14.83,1
995,19.27,-21.58,17.18,1
996,19.28,-38.21,80.32,1
997,19.29,-43.13,64.2,1
998,19.31,-40.53,69.41,1
999,19.32,-67.63,37.72,1
1000,19.33,-68.46,30.84,1
1001,19.35,-75.3,7.52,1
1002,19.36,-56.52,-3.97,1
1003,19.37,-41.21,24.94,1
1004,19.39,-38.99,7.58,1
1005,19.4,-30.28,-11.87,1
1006,19.41,-35.24,-41.6,1
1007,19.43,-26.13,-24.82,1
1008,19.44,-17.43,-14.49,1
1009,19.45,-40.7,-33.2,1
1010,19.47,-28.37,7.59,1
1011,19.48,-14.5,4.73,1
1012,19.49,-18.63,3.95,1
1013,19.51,-7.13,20.87,1
1014,19.52,-6.92,-14.51,1
1015,19.53,1.04,-21.63,1
1016,19.55,-3.29,27.81,1
1017,19.56,5.06,-29.76,1
1018,19.57,-19.92,3.71,1
1019,19.59,11.2,-6.02,1
1020,19.6,-3.01,-16.4,1
1021,19.61,-1.54,-1.05,1
1022,19.62,-2.72,-34.91,1
1023,19.64,11.03,20.93,1
1024,19.65,6.91,11.99,1
1025,19.67,7.83,8.71,1
1026,19.68,-6.75,-3.38,1
1027,19.69,6.08,-26.12,1
1028,19.71,22.88,28.51,1
1029,19.72,-3.67,-20.35,1
1030,19.73,6.57,-3.46,1
1031,19.75,13.22,27.42,1
1032,19.76,-4.14,4.17,1
1033,19.77,-0.91,29.35,1
1034,19.79,8.56,10.57,1
1035,19.8,28.17,6.39,1
1036,19.81,8.4,-4.6,1
1037,19.83,22.73,-25.51,1
1038,19.84,20.64,8.42,1
1039,19.85,6.37,-2.9,1
1040,19.87,21.3,-14.9,1
1041,19.88,10.43,1.77,1
1042,19.89,11.9,-19.58,1
1043,19.91,15.96,11.15,1
1044,19.92,4.07,9.31,1
1045,19.93,-0.77,5.01,1
1046,19.95,13.79,-0.06,1
1047,19.96,1.94,0.01,1
1048,19.97,4.04,-13.3,1
1049,19.99,-5.43,-7.11,1
1050,20.0,25.51,-14.5,1
1051,20.01,1.17,-11.64,1
1052,20.03,0.73,33.53,1
1053,20.04,3.95,12.63,1
1054,20.05,9.07,7.96,1
1055,20.07,-7.12,30.45,1
1056,20.08,15.63,28.04,1
1057,20.09,25.25,8.45,1
1058,20.11,28.92,-11.7,1
1059,20.12,57.08,186.65,1
1060,20.13,-74.55,324.87,1
1061,20.15,126.6,-161.93,1
1062,20.16,114.2,-28.18,1
1063,20.17,-112.4,334.92,1
1064,20.19,-190.67,-110.05,1
1065,20.2,152.11,13.44,1
1066,20.21,-196.63,52.1,1
1067,20.23,96.98,214.38,1
1068,20.24,128.09,-184.63,1
1069,20.25,145.96,-309.76,1
1070,20.26,157.36,67.5,1
1071,20.28,6.35,-229.48,1
1072,20.29,143.75,-488.04,1
1073,20.3,-67.89,-406.7,1
1074,20.32,107.6,-226.76,1
1075,20.33,-181.02,181.0,1
1076,20.35,-143.56,233.35,1
1077,20.36,-153.87,272.55,1
1078,20.37,-65.21,-151.08,1
1079,20.39,-16.28,-7.22,1
1080,20.4,-315.63,135.77,1
1081,20.41,-157.96,-238.05,1
1082,20.43,-137.96,107.05,1
1083,20.44,-134.72,129.16,1
1084,20.45,70.58,156.84,1
1085,20.47,-241.03,-538.78,1
1086,20.48,116.19,-252.89,1
1087,20.49,105.62,96.27,1
1088,20.51,-163.31,288.92,1
1089,20.52,97.23,224.36,1
1090,20.53,31.52,358.65,1
1091,20.55,-4.38,32.36,1
1092,20.56,85.96,103.09,1
1093,20.57,70.72,216.53,1
1094,20.59,111.01,-22.11,1
1095,20.6,-32.72,305.58,1
1096,20.61,186.52,102.04,1
1097,20.63,-37.38,63.86,1
1098,20.64,-145.77,-312.17,1
1099,20.65,95.12,-426.46,1
1100,20.67,373.2,-336.63,1
1101,20.68,-129.29,229.17,1
1102,20.69,245.25,69.87,1
1103,20.71,-78.2,-127.53,1
1104,20.72,54.02,50.39,1
1105,20.73,-111.89,-22.97,1
1106,20.75,-9.92,-143.78,1
1107,20.76,174.86,-377.51,1
1108,20.77,31.27,-494.52,1
1109,20.79,-61.27,-136.13,1
1110,20.8,46.33,201.96,1
1111,20.81,6.48,214.85,1
1112,20.83,63.59,-111.99,1
1113,20.84,-289.18,414.26,1
1114,20.85,101.39,-152.18,1
1115,20.87,-154.97,3.95,1
1116,20.88,81.76,-303.93,1
1117,20.89,1.24,169.43,1
1118,20.9,-4.87,11.14,1
1119,20.92,61.92,-46.92,1
1120,20.93,-33.32,303.4,1
1121,20.94,43.42,-47.13,1
1122,20.96,93.68,178.59,1
1123,20.97,4.63,227.62,1
1124,20.99,71.0,231.99,1
1125,21.0,-62.39,28.0,1
1126,21.01,33.33,39.95,1
1127,21.03,-59.73,51.46,1
1128,21.04,109.34,-13.29,1
1129,21.05,40.73,-25.95,1
1130,21.07,34.17,82.91,1
1131,21.08,-64.03,-41.91,1
1132,21.09,-76.44,68.12,1
1133,21.11,-118.74,190.14,1
1134,21.12,-128.3,150.79,1
1135,21.13,-134.48,300.12,1
1136,21.15,-74.11,337.28,1
1137,21.16,-56.87,307.27,1
1138,21.17,-25.61,-3.75,1
1139,21.19,30.63,-293.91,1
1140,21.2,38.89,-430.94,1
1141,21.21,66.55,-301.58,1
1142,21.23,60.0,-264.32,1
1143,21.24,104.72,-206.42,1
1144,21.25,58.52,-108.95,1
1145,21.27,52.99,-53.27,1
1146,21.28,42.28,-52.22,1
1147,21.29,41.43,-3.17,1
1148,21.31,11.03,7.53,1
1149,21.32,23.23,7.68,1
1150,21.33,-1.3,45.74,1
1151,21.35,11.12,2.79,1
1152,21.36,11.85,21.71,1
1153,21.37,14.03,43.14,1
1154,21.39,-7.75,15.5,1
1155,21.4,-30.33,28.33,1
1156,21.41,-33.03,51.72,1
1157,21.43,-33.93,6.72,1
1158,21.44,-33.09,25.84,1
1159,21.45,-34.14,25.88,1
1160,21.47,-30.81,37.43,1
1161,21.48,-40.16,5.94,1
1162,21.49,-42.06,-4.64,1
1163,21.51,-22.77,6.48,1
1164,21.52,-42.78,3.22,1
1165,21.53,-51.58,-22.34,1
1166,21.54,-60.65,-35.79,1
1167,21.56,-31.04,-38.52,1
1168,21.57,-32.98,-12.15,1
1169,21.58,-31.57,-83.07,1
1170,21.6,-10.46,-23.8,1
1171,21.61,-0.4,10.57,1
1172,21.63,14.36,-9.58,1
1173,21.64,-5.58,-0.98,1
1174,21.65,14.91,-41.97,1
1175,21.67,-12.8,-57.52,1
1176,21.68,-0.81,-10.96,1
1177,21.69,8.18,-51.74,1
1178,21.71,19.21,-45.13,1
1179,21.72,19.16,-21.41,1
1180,21.73,5.72,-46.57,1
1181,21.75,11.23,-18.94,1
1182,21.76,2.0,-36.22,1
1183,21.77,13.48,10.31,1
1184,21.79,15.02,-18.71,1
1185,21.8,15.09,-6.16,1
1186,21.81,14.07,-15.29,1
1187,21.83,14.3,-16.46,1
1188,21.84,12.57,27.69,1
1189,21.85,20.02,-16.69,1
1190,21.87,6.77,36.55,1
1191,21.88,2.99,20.64,1
1192,21.89,4.59,17.43,1
1193,21.91,14.45,-27.03,1
1194,21.92,3.33,-11.32,1
1195,21.93,16.06,32.35,1
1196,21.95,11.71,-12.53,1
1197,21.96,21.53,8.46,1
1198,21.97,21.77,27.01,1
1199,21.99,0.12,15.16,1
1200,22.0,-5.16,20.17,1
1201,22.01,7.89,27.63,1
1202,22.03,4.0,21.02,1
1203,22.04,-2.12,78.89,1
1204,22.05,5.95,-16.05,1
1205,22.07,2.37,17.52,1
1206,22.08,5.53,53.33,1
1207,22.09,-19.82,70.33,1
1208,22.11,9.79,132.16,1
1209,22.12,-131.5,165.42,1
1210,22.13,-48.35,-49.58,1
1211,22.15,-72.04,83.35,1
1212,22.16,189.35,249.69,1
1213,22.17,375.71,-116.43,1
1214,22.18,266.14,267.93,1
1215,22.2,-68.64,-107.58,1
1216,22.21,22.62,-228.75,1
1217,22.22,80.37,187.0,1
1218,22.24,173.99,150.94,1
1219,22.25,-290.49,-30.34,1
1220,22.26,-307.22,-34.15,1
1221,22.28,255.45,10.19,1
1222,22.29,117.27,-126.13,1
1223,22.31,-179.67,-671.08,1
1224,22.32,-134.26,-378.08,1
1225,22.33,-150.52,-310.59,1
1226,22.35,99.02,-73.68,1
1227,22.36,-30.04,218.55,1
1228,22.37,107.76,-63.31,1
1229,22.39,-348.55,-37.51,1
1230,22.4,-88.27,129.34,1
1231,22.41,-118.16,372.59,1
1232,22.43,-225.51,146.74,1
1233,22.44,-120.93,-8.07,1
1234,22.45,142.21,-554.2,1
1235,22.47,-132.45,-25.38,1
1236,22.48,-68.62,-299.48,1
1237,22.49,63.62,195.25,1
1238,22.51,166.44,-31.31,1
1239,22.52,-45.79,-162.62,1
1240,22.53,123.92,-260.22,1
1241,22.55,-64.93,133.64,1
1242,22.56,-161.31,418.62,1
1243,22.57,166.76,465.93,1
1244,22.59,-3.35,20.88,1
1245,22.6,51.74,-76.3,1
1246,22.61,11.64,-304.88,1
1247,22.63,-88.24,123.66,1
1248,22.64,346.35,506.7,1
1249,22.65,-169.35,106.84,1
1250,22.67,100.84,473.67,1
1251,22.68,-149.83,174.85,1
1252,22.69,-50.72,-64.17,1
1253,22.71,199.59,264.96,1
1254,22.72,34.3,-89.64,1
1255,22.73,210.58,-374.23,1
1256,22.75,87.77,-326.0,1
1257,22.76,103.68,-253.24,1
1258,22.77,100.88,153.91,1
1259,22.79,-55.37,22.6,1
1260,22.8,-187.05,-31.14,1
1261,22.81,47.42,573.97,1
1262,22.82,-112.93,5.56,1
1263,22.84,-151.45,-65.54,1
1264,22.85,161.72,64.1,1
1265,22.86,-116.95,-43.83,1
1266,22.88,-64.24,-42.44,1
1267,22.89,144.61,-28.11,1
1268,22.9,75.37,-485.08,1
1269,22.92,83.84,-269.46,1
1270,22.93,-101.8,65.03,1
1271,22.95,61.37,-17.92,1
1272,22.96,59.87,-112.77,1
1273,22.97,119.02,-102.47,1
1274,22.99,-32.75,-170.37,1
1275,23.0,-47.91,140.49,1
1276,23.01,-21.89,399.8,1
1277,23.03,-130.94,150.58,1
1278,23.04,-63.0,246.98,1
1279,23.05,-94.83,224.69,1
1280,23.07,-40.96,387.9,1
1281,23.08,-17.45,185.94,1
1282,23.09,-37.15,23.44,1
1283,23.11,50.93,-110.28,1
1284,23.12,25.18,-285.25,1
1285,23.13,67.06,-374.26,1
1286,23.15,118.12,-396.25,1
1287,23.16,101.13,-362.3,1
1288,23.17,112.02,-265.1,1
1289,23.19,82.96,-199.57,1
1290,23.2,94.38,-135.46,1
1291,23.21,65.3,-53.72,1
1292,23.23,39.8,19.23,1
1293,23.24,26.82,28.78,1
1294,23.25,13.98,-9.16,1
1295,23.27,8.53,43.92,1
1296,23.28,-15.99,35.34,1
1297,23.29,-18.87,63.41,1
1298,23.31,-46.42,125.78,1
1299,23.32,-40.13,118.07,1
1300,23.33,-31.09,101.92,1
1301,23.35,-45.76,121.31,1
1302,23.36,-37.1,71.55,1
1303,23.37,-66.46,112.74,1
1304,23.39,-67.89,71.57,1
1305,23.4,-52.3,71.93,1
1306,23.41,-65.29,49.02,1
1307,23.43,-56.04,50.77,1
1308,23.44,-54.23,76.97,1
1309,23.45,-41.37,64.28,1
1310,23.46,-46.53,12.84,1
1311,23.48,-55.26,50.45,1
1312,23.49,-55.83,-22.63,1
1313,23.5,-35.69,-14.28,1
1314,23.52,-52.77,-9.24,1
1315,23.53,-36.07,-4.05,1
1316,23.54,-32.46,-16.08,1
1317,23.56,-28.94,-1.93,1
1318,23.57,-25.84,-10.6,1
1319,23.59,-20.53,8.35,1
1320,23.6,-13.96,-42.45,1
1321,23.61,-13.69,-43.32,1
1322,23.63,-12.79,-42.89,1
1323,23.64,-7.5,-41.75,1
1324,23.65,-2.12,-37.7,1
1325,23.67,12.85,33.07,1
1326,23.68,-11.13,-43.26,1
1327,23.69,8.13,-34.15,1
1328,23.71,5.79,-0.95,1
1329,23.72,10.27,-33.28,1
1330,23.73,18.2,32.47,1
1331,23.75,0.28,9.54,1
1332,23.76,16.07,-24.2,1
1333,23.77,12.89,-44.91,1
1334,23.79,38.13,2.61,1
1335,23.8,15.45,-9.63,1
1336,23.81,28.85,-14.57,1
1337,23.83,13.37,-42.31,1
1338,23.84,43.41,-93.34,1
1339,23.85,16.06,41.63,1
1340,23.87,36.02,-13.58,1
1341,23.88,23.01,-23.42,1
1342,23.89,25.58,-26.69,1
1343,23.91,26.46,-36.39,1
1344,23.92,37.8,64.94,1
1345,23.93,8.34,5.26,1
1346,23.95,22.1,15.06,1
1347,23.96,21.11,49.47,1
1348,23.97,16.29,23.94,1
1349,23.99,17.46,80.74,1
1350,24.0,-4.91,-39.76,1
1351,24.01,22.32,-42.46,1
1352,24.03,7.16,16.31,1
1353,24.04,-3.22,18.64,1
1354,24.05,0.56,67.14,1
1355,24.07,13.04,10.43,1
1356,24.08,6.54,-14.55,1
1357,24.09,32.7,44.42,1
1358,24.1,22.0,87.15,1
1359,24.12,49.04,42.47,1
1360,24.13,119.25,113.2,1
1361,24.14,129.86,370.55,1
1362,24.16,3.29,143.13,1
1363,24.17,-150.95,24.87,1
1364,24.18,12.37,-190.47,1
1365,24.2,220.35,-58.6,1
1366,24.21,108.61,-303.55,1
1367,24.22,226.47,295.52,1
1368,24.24,-42.63,-301.22,1
1369,24.25,-61.3,-111.92,1
1370,24.27,126.06,-258.65,1
1371,24.28,-276.19,-78.86,1
1372,24.29,-18.72,-260.58,1
1373,24.31,-60.28,158.9,1
1374,24.32,-80.65,-136.34,1
1375,24.33,-148.81,-133.28,1
1376,24.35,-47.68,-540.46,1
1377,24.36,-54.99,-56.55,1
1378,24.37,-127.18,196.76,1
1379,24.39,-206.1,12.09,1
1380,24.4,-188.87,203.72,1
1381,24.41,-271.8,106.45,1
1382,24.43,-186.49,476.26,1
1383,24.44,-49.96,-103.95,1
1384,24.45,-116.02,134.32,1
1385,24.47,75.73,-43.89,1
1386,24.48,-18.09,81.67,1
1387,24.49,21.39,278.22,1
1388,24.51,8.32,-284.35,1
1389,24.52,-124.96,-24.39,1
1390,24.53,341.51,-5.83,1
1391,24.55,-55.8,70.72,1
1392,24.56,133.57,-9.34,1
1393,24.57,-98.68,218.38,1
1394,24.59,35.42,-353.83,1
1395,24.6,-57.25,-18.54,1
1396,24.61,455.81,71.82,1
1397,24.63,110.99,204.55,1
1398,24.64,159.4,306.35,1
1399,24.65,85.38,184.42,1
1400,24.67,-83.0,-117.47,1
1401,24.68,87.96,338.79,1
1402,24.69,-118.52,-70.81,1
1403,24.71,100.64,-313.66,1
1404,24.72,59.4,-203.05,1
1405,24.73,131.6,-439.52,1
1406,24.75,-37.03,-100.39,1
1407,24.76,-15.3,-214.59,1
1408,24.77,16.82,196.79,1
1409,24.78,90.17,382.13,1
1410,24.8,-46.26,393.48,1
1411,24.81,-103.38,111.79,1
1412,24.82,-15.8,0.46,1
1413,24.84,11.07,-252.65,1
1414,24.85,225.39,-334.99,1
1415,24.86,-89.09,176.23,1
1416,24.88,55.88,71.41,1
1417,24.89,-108.71,318.75,1
1418,24.91,349.42,-186.03,1
1419,24.92,30.7,-80.15,1
1420,24.93,-2.8,-4.08,1
1421,24.95,-155.05,-86.83,1
1422,24.96,-290.83,-186.41,1
1423,24.97,167.38,-20.36,1
1424,24.99,-119.77,-352.94,1
1425,25.0,-65.66,-34.95,1
1426,25.01,-54.58,51.61,1
1427,25.03,-57.26,38.27,1
1428,25.04,92.41,-22.14,1
1429,25.05,-86.09,-34.84,1
1430,25.07,-59.51,-84.94,1
1431,25.08,-102.52,69.28,1
1432,25.09,-69.54,73.01,1
1433,25.11,-130.2,98.03,1
1434,25.12,-114.07,335.66,1
1435,25.13,-138.78,241.09,1
1436,25.15,-103.74,198.05,1
1437,25.16,-65.11,144.9,1
1438,25.17,-26.6,-60.83,1
1439,25.19,23.81,-89.03,1
1440,25.2,57.77,-259.86,1
1441,25.21,92.11,-281.91,1
1442,25.23,129.93,-217.19,1
1443,25.24,128.63,-133.21,1
1444,25.25,138.6,-89.81,1
1445,25.27,121.07,-19.79,1
1446,25.28,106.55,39.88,1
1447,25.29,102.89,47.08,1
1448,25.31,98.49,86.83,1
1449,25.32,78.41,46.57,1
1450,25.33,69.49,54.05,1
1451,25.35,46.59,110.34,1
1452,25.36,37.32,50.53,1
1453,25.37,26.32,59.21,1
1454,25.38,11.25,49.62,1
1455,25.4,-1.57,28.36,1
1456,25.41,-6.26,40.08,1
1457,25.42,-1.76,86.62,1
1458,25.44,-16.21,21.17,1
1459,25.45,-8.59,37.58,1
1460,25.46,-22.21,76.76,1
1461,25.48,-40.94,9.61,1
1462,25.49,-56.2,17.87,1
1463,25.5,-49.56,14.17,1
1464,25.52,-32.65,1.42,1
1465,25.53,-35.37,14.2,1
1466,25.55,-37.3,19.06,1
1467,25.56,-36.74,19.75,1
1468,25.57,-27.98,-8.28,1
1469,25.59,-26.2,-21.95,1
1470,25.6,-30.48,-1.55,1
1471,25.61,-25.29,-26.45,1
1472,25.63,-26.88,-32.6,1
1473,25.64,-28.54,-33.94,1
1474,25.65,-28.28,-46.54,1
1475,25.67,-29.59,-47.71,1
1476,25.68,-38.96,-30.68,1
1477,25.69,-10.96,-36.37,1
1478,25.71,-30.94,-20.02,1
1479,25.72,-18.17,-85.31,1
1480,25.73,-40.62,-72.06,1
1481,25.75,-25.45,-51.62,1
1482,25.76,-12.95,-10.47,1
1483,25.77,-15.36,-50.06,1
1484,25.79,-25.9,-40.64,1
1485,25.8,-15.87,2.69,1
1486,25.81,-10.19,-43.36,1
1487,25.83,5.74,-27.17,1
1488,25.84,-0.52,-9.0,1
1489,25.85,6.76,-21.71,1
1490,25.87,-4.81,-17.86,1
1491,25.88,3.16,30.17,1
1492,25.89,-10.25,31.71,1
1493,25.91,-1.1,23.01,1
1494,25.92,7.36,-3.86,1
1495,25.93,5.72,0.78,1
1496,25.95,5.93,-24.97,1
1497,25.96,15.07,-7.63,1
1498,25.97,6.95,-7.5,1
1499,25.99,8.24,-25.35,1
1500,26.0,8.58,-12.8,1
1501,26.01,15.48,-1.58,1
1502,26.02,26.46,5.67,1
1503,26.04,25.57,57.6,1
1504,26.05,1.86,34.66,1
1505,26.06,-3.83,7.46,1
1506,26.08,18.45,15.25,1
1507,26.09,27.17,37.77,1
1508,26.1,32.47,71.66,1
1509,26.12,36.44,60.04,1
1510,26.13,11.87,125.69,1
1511,26.14,-8.84,258.17,1
1512,26.16,49.4,223.88,1
1513,26.17,-103.39,19.42,1
1514,26.19,141.83,126.47,1
1515,26.2,3.92,273.1,1
1516,26.21,-137.81,54.64,1
1517,26.23,297.65,-51.54,1
1518,26.24,212.38,167.63,1
1519,26.25,282.05,-2.6,1
1520,26.27,29.59,-9.79,1
1521,26.28,197.92,-17.34,1
1522,26.29,-13.23,-373.25,1
1523,26.31,-133.51,-944.26,1
1524,26.32,-32.82,-452.91,1
1525,26.33,-365.76,-246.32,1
1526,26.35,-281.76,-413.79,1
1527,26.36,-160.73,77.69,1
1528,26.37,-22.46,-34.38,1
1529,26.39,-0.35,-497.56,1
1530,26.4,-352.69,-229.38,1
1531,26.41,-12.65,-92.85,1
1532,26.43,158.48,476.46,1
1533,26.44,194.9,265.91,1
1534,26.45,-57.9,104.98,1
1535,26.47,14.98,285.96,1
1536,26.48,-10.37,2.81,1
1537,26.49,56.69,-3.24,1
1538,26.51,-107.1,398.92,1
1539,26.52,-18.25,31.39,1
1540,26.53,-86.34,281.52,1
1541,26.55,-23.99,224.75,1
1542,26.56,-242.24,515.77,1
1543,26.57,192.28,341.81,1
1544,26.59,-32.48,215.75,1
1545,26.6,167.81,-150.11,1
1546,26.61,-39.63,-325.37,1
1547,26.63,86.76,-276.94,1
1548,26.64,-99.39,-180.33,1
1549,26.65,-40.7,-419.43,1
1550,26.67,54.91,153.66,1
1551,26.68,44.65,232.24,1
1552,26.69,8.84,228.6,1
1553,26.7,94.75,15.96,1
1554,26.72,-25.04,133.24,1
1555,26.73,-99.48,-57.85,1
1556,26.75,315.11,-236.98,1
1557,26.76,-175.62,210.57,1
1558,26.77,50.69,-158.56,1
1559,26.78,-14.14,-98.26,1
1560,26.8,-146.23,253.68,1
1561,26.81,65.51,147.18,1
1562,26.825,-13.1,-194.78,1
1563,26.84,-8.5,53.89,1
1564,26.85,-5.28,-133.14,1
1565,26.87,-147.39,60.34,1
1566,26.88,360.21,-475.98,1
1567,26.89,-52.31,-237.21,1
1568,26.91,-160.71,-18.97,1
1569,26.92,-34.92,-58.31,1
1570,26.93,11.39,152.96,1
1571,26.95,46.74,116.66,1
1572,26.96,149.54,37.92,1
1573,26.97,-58.52,1.13,1
1574,26.99,208.46,-19.66,1
1575,27.0,357.53,-129.46,1
1576,27.01,-21.7,383.93,1
1577,27.03,57.9,19.68,1
1578,27.04,231.47,231.34,1
1579,27.05,69.33,-171.4,1
1580,27.07,-60.42,91.22,1
1581,27.08,-26.5,-3.74,1
1582,27.09,-75.98,-54.19,1
1583,27.11,-43.9,-45.82,1
1584,27.12,-103.48,-88.53,1
1585,27.13,-152.48,-44.04,1
1586,27.15,-209.72,27.88,1
1587,27.16,-218.86,111.74,1
1588,27.17,-196.55,149.09,1
1589,27.19,-193.19,193.47,1
1590,27.2,-168.57,147.12,1
1591,27.21,-107.63,81.42,1
1592,27.23,-28.82,-119.9,1
1593,27.24,41.22,-209.92,1
1594,27.25,66.4,-242.98,1
1595,27.27,153.17,-153.41,1
1596,27.28,143.41,-233.8,1
1597,27.29,174.99,-135.47,1
1598,27.3,157.17,-137.58,1
1599,27.32,102.17,-27.42,1
1600,27.33,104.01,14.08,1
1601,27.34,112.17,-12.39,1
1602,27.36,90.87,19.08,1
1603,27.37,72.67,30.13,1
1604,27.38,60.6,52.87,1
1605,27.4,37.18,68.84,1
1606,27.41,50.32,71.61,1
1607,27.42,-8.4,58.85,1
1608,27.44,12.24,43.06,1
1609,27.45,-24.47,124.85,1
1610,27.46,-23.13,123.04,1
1611,27.48,-22.05,63.49,1
1612,27.49,-26.61,58.24,1
1613,27.51,-22.26,70.15,1
1614,27.52,-28.21,42.28,1
1615,27.53,-41.08,74.88,1
1616,27.55,-62.68,-5.71,1
1617,27.56,-48.02,3.64,1
1618,27.57,-46.75,-42.8,1
1619,27.59,-51.85,-20.83,1
1620,27.6,-69.15,-1.23,1
1621,27.61,-56.95,-10.92,1
1622,27.63,-63.12,-34.05,1
1623,27.64,-50.16,-50.67,1
1624,27.65,-56.59,-46.51,1
1625,27.67,-47.76,-63.28,1
1626,27.68,-36.21,-31.6,1
1627,27.69,-43.26,-44.49,1
1628,27.71,-31.66,-31.88,1
1629,27.72,-35.91,-47.66,1
1630,27.73,-21.95,-62.55,1
1631,27.75,-28.72,-62.78,1
1632,27.76,-16.72,-2.06,1
1633,27.77,-25.73,-41.26,1
1634,27.79,-8.13,-33.01,1
1635,27.8,-10.72,-51.11,1
1636,27.81,11.57,7.37,1
1637,27.83,-8.62,-27.92,1
1638,27.84,-21.85,24.83,1
1639,27.85,-3.55,-20.86,1
1640,27.87,16.05,0.83,1
1641,27.88,17.83,30.05,1
1642,27.89,-0.98,-12.08,1
1643,27.91,0.85,9.03,1
1644,27.92,2.76,27.28,1
1645,27.93,21.72,18.37,1
1646,27.94,27.98,-14.68,1
1647,27.96,30.95,-3.39,1
1648,27.97,25.83,21.11,1
1649,27.98,27.55,44.44,1
1650,28.0,11.63,33.43,1
1651,28.01,13.4,43.98,1
1652,28.02,32.65,20.71,1
1653,28.04,32.67,10.91,1
1654,28.05,21.31,19.96,1
1655,28.06,7.6,-5.28,1
1656,28.08,-1.0,11.51,1
1657,28.09,-4.83,48.75,1
1658,28.1,22.26,19.02,1
1659,28.12,35.17,76.78,1
1660,28.13,46.98,211.84,1
1661,28.15,62.94,280.72,1
1662,28.16,141.51,-0.09,1
1663,28.17,-149.05,223.19,1
1664,28.19,36.32,88.92,1
1665,28.2,328.64,-84.94,1
1666,28.21,-49.77,94.05,1
1667,28.23,-63.08,176.06,1
1668,28.24,305.77,88.57,1
1669,28.25,155.97,38.04,1
1670,28.27,70.47,-246.32,1
1671,28.28,-57.5,-471.1,1
1672,28.29,89.16,-200.06,1
1673,28.31,12.2,-510.07,1
1674,28.32,-124.13,-456.48,1
1675,28.33,-79.62,-203.45,1
1676,28.35,-185.06,-162.94,1
1677,28.36,106.74,-55.66,1
1678,28.37,-265.4,-243.58,1
1679,28.39,-225.34,-220.93,1
1680,28.4,-50.38,-2.83,1
1681,28.41,-345.63,-72.59,1
1682,28.43,-175.97,473.71,1
1683,28.44,-47.8,-269.54,1
1684,28.45,-48.49,37.3,1
1685,28.47,-99.89,-314.87,1
1686,28.48,21.1,213.89,1
1687,28.49,31.41,650.24,1
1688,28.51,130.34,384.19,1
1689,28.52,30.44,470.32,1
1690,28.53,-195.96,229.85,1
1691,28.55,-14.77,499.22,1
1692,28.56,111.21,38.4,1
1693,28.57,-63.63,5.3,1
1694,28.58,-21.13,91.98,1
1695,28.6,217.56,-282.74,1
1696,28.61,-44.6,176.35,1
1697,28.62,-23.07,263.23,1
1698,28.64,-74.82,-97.28,1
1699,28.65,-182.11,-404.61,1
1700,28.67,-26.17,-289.18,1
1701,28.68,77.05,-468.36,1
1702,28.69,-187.44,97.32,1
1703,28.7,130.7,338.83,1
1704,28.72,341.48,201.38,1
1705,28.73,129.54,-188.82,1
1706,28.75,182.5,130.03,1
1707,28.76,14.24,-33.58,1
1708,28.77,111.15,-147.42,1
1709,28.79,139.38,-78.12,1
1710,28.8,193.5,19.11,1
1711,28.81,-96.71,161.75,1
1712,28.83,60.09,-106.07,1
1713,28.84,-204.66,-103.4,1
1714,28.85,-56.88,-103.66,1
1715,28.87,-253.49,400.7,1
1716,28.88,97.91,48.28,1
1717,28.89,95.87,190.99,1
1718,28.91,221.61,-155.6,1
1719,28.92,208.29,-202.33,1
1720,28.93,65.12,-206.08,1
1721,28.95,-45.37,91.33,1
1722,28.96,198.22,-330.68,1
1723,28.97,41.51,-102.12,1
1724,28.99,17.28,-141.52,1
1725,29.0,60.48,-114.76,1
1726,29.01,41.76,41.83,1
1727,29.03,-14.67,143.96,1
1728,29.04,-42.02,-87.53,1
1729,29.05,-96.94,114.31,1
1730,29.07,-69.27,139.4,1
1731,29.08,-55.0,490.46,1
1732,29.09,-195.51,242.96,1
1733,29.11,-136.21,161.13,1
1734,29.12,-148.14,-85.37,1
1735,29.13,-90.79,-272.6,1
1736,29.15,-81.39,-315.0,1
1737,29.16,14.46,-320.05,1
1738,29.17,49.92,-276.6,1
1739,29.19,52.94,-140.8,1
1740,29.2,36.63,-43.0,1
1741,29.21,62.57,6.21,1
1742,29.22,66.54,57.23,1
1743,29.24,48.91,102.53,1
1744,29.25,44.98,130.68,1
1745,29.26,47.88,91.98,1
1746,29.28,26.08,94.21,1
1747,29.29,20.78,74.76,1
1748,29.3,8.5,96.3,1
1749,29.32,-17.67,77.29,1
1750,29.33,-17.77,99.23,1
1751,29.34,-31.46,94.89,1
1752,29.36,-36.69,79.29,1
1753,29.37,-26.24,36.89,1
1754,29.38,-32.06,52.01,1
1755,29.4,-43.49,73.9,1
1756,29.41,-31.21,52.96,1
1757,29.42,-29.61,57.83,1
1758,29.44,-39.1,29.11,1
1759,29.45,-32.51,-22.37,1
1760,29.47,-36.61,-24.98,1
1761,29.48,-18.05,-22.92,1
1762,29.49,-18.17,-36.07,1
1763,29.51,-34.12,-11.99,1
1764,29.52,-36.73,-24.29,1
1765,29.53,-28.03,-26.69,1
1766,29.55,-29.38,-25.04,1
1767,29.56,-45.05,-14.78,1
1768,29.57,-19.27,-35.53,1
1769,29.59,-23.41,-12.31,1
1770,29.6,-8.68,-29.04,1
1771,29.61,-14.54,-45.4,1
1772,29.63,-14.11,-47.48,1
1773,29.64,-16.23,-31.1,1
1774,29.65,-7.0,-28.85,1
1775,29.67,-18.42,-62.23,1
1776,29.68,6.49,-43.47,1
1777,29.69,-8.93,-80.3,1
1778,29.71,-1.33,-25.39,1
1779,29.72,6.4,-17.34,1
1780,29.73,9.84,10.15,1
1781,29.75,2.2,19.09,1
1782,29.76,18.07,-14.72,1
1783,29.77,10.97,-23.0,1
1784,29.79,18.92,1.69,1
1785,29.8,7.6,-5.91,1
1786,29.81,20.1,-34.46,1
1787,29.83,17.57,8.97,1
1788,29.84,33.27,-12.47,1
1789,29.85,10.6,-23.29,1
1790,29.86,21.47,-0.2,1
1791,29.88,-2.04,-16.64,1
1792,29.89,18.63,-12.08,1
1793,29.9,9.43,-15.39,1
1794,29.92,43.49,-16.87,1
1795,29.93,35.67,-18.41,1
1796,29.94,22.21,34.85,1
1797,29.96,31.41,9.07,1
1798,29.97,10.63,10.73,1
1799,29.98,16.05,10.69,1
1800,30.0,16.81,26.64,1
1801,30.01,31.23,40.29,1
1802,30.02,16.5,25.86,1
1803,30.04,-2.87,13.94,1
1804,30.05,-19.19,-9.22,1
1805,30.06,7.94,18.05,1
1806,30.08,-0.2,2.53,1
1807,30.09,22.96,-10.86,1
1808,30.11,7.81,32.74,1
1809,30.12,1.67,69.14,1
1810,30.13,17.63,58.51,1
1811,30.15,-6.5,100.03,1
1812,30.16,15.56,410.8,1
1813,30.17,-111.9,113.11,1
1814,30.19,57.94,119.26,1
1815,30.2,112.58,-276.36,1
1816,30.21,-28.85,56.43,1
1817,30.23,-90.91,241.88,1
1818,30.24,-21.31,42.12,1
1819,30.25,138.38,-21.81,1
1820,30.27,126.42,-76.46,1
1821,30.28,203.02,-378.17,1
1822,30.29,194.1,-11.51,1
1823,30.31,58.16,-492.34,1
1824,30.32,201.91,314.9,1
1825,30.33,-13.9,-302.46,1
1826,30.35,-76.24,-465.61,1
1827,30.36,-111.1,-528.29,1
1828,30.37,-156.08,-383.44,1
1829,30.39,-184.88,-213.39,1
1830,30.4,-129.77,-21.18,1
1831,30.41,-262.47,375.27,1
1832,30.43,-206.08,211.97,1
1833,30.44,15.24,-136.83,1
1834,30.45,-184.53,318.33,1
1835,30.47,41.95,280.32,1
1836,30.48,-239.27,-323.4,1
1837,30.49,19.42,16.23,1
1838,30.5,68.0,97.0,1
1839,30.52,-46.4,-25.89,1
1840,30.53,-70.53,-78.45,1
1841,30.54,-65.22,-39.09,1
1842,30.56,-110.62,164.15,1
1843,30.57,-111.51,365.81,1
1844,30.58,-134.29,159.92,1
1845,30.6,133.34,-178.78,1
1846,30.61,285.0,202.08,1
1847,30.62,301.43,596.38,1
1848,30.64,-71.23,372.23,1
1849,30.65,-112.57,90.37,1
1850,30.67,86.03,-39.8,1
1851,30.68,96.09,4.46,1
1852,30.69,-23.33,609.84,1
1853,30.7,-55.21,31.84,1
1854,30.72,52.7,-68.74,1
1855,30.73,-125.01,30.31,1
1856,30.75,-79.51,189.71,1
1857,30.76,151.77,-504.44,1
1858,30.77,77.77,17.12,1
1859,30.79,20.65,-102.79,1
1860,30.8,236.34,-172.98,1
1861,30.81,120.57,317.07,1
1862,30.83,108.13,-132.79,1
1863,30.84,-58.23,238.06,1
1864,30.85,48.24,-117.15,1
1865,30.87,-259.61,94.67,1
1866,30.88,89.74,223.32,1
1867,30.89,-30.64,-195.5,1
1868,30.91,104.13,-183.19,1
1869,30.92,154.0,211.01,1
1870,30.93,-98.66,-394.2,1
1871,30.95,116.75,-247.61,1
1872,30.96,-188.44,-85.62,1
1873,30.97,33.43,-179.19,1
1874,30.99,54.17,85.43,1
1875,31.0,19.78,-533.1,1
1876,31.01,73.52,-182.43,1
1877,31.03,183.78,-176.77,1
1878,31.04,25.87,-237.0,1
1879,31.05,53.13,-247.99,1
1880,31.07,-11.04,-232.57,1
1881,31.08,-34.54,-104.14,1
1882,31.09,-117.52,-55.66,1
1883,31.11,-77.15,426.36,1
1884,31.12,-82.08,221.01,1
1885,31.13,-118.71,316.27,1
1886,31.14,-98.81,272.24,1
1887,31.16,-77.15,83.72,1
1888,31.17,19.56,-96.2,1
1889,31.18,36.89,-87.44,1
1890,31.2,45.05,-259.3,1
1891,31.21,79.27,-283.01,1
1892,31.22,95.74,-202.68,1
1893,31.24,99.86,-78.41,1
1894,31.25,66.18,-38.6,1
1895,31.26,63.97,41.82,1
1896,31.28,50.73,77.6,1
1897,31.29,44.42,77.14,1
1898,31.3,30.56,82.65,1
1899,31.32,6.08,109.35,1
1900,31.33,8.48,90.61,1
1901,31.34,-10.82,105.96,1
1902,31.36,-10.7,114.21,1
1903,31.37,-24.19,158.25,1
1904,31.39,-36.44,149.84,1
1905,31.4,-33.51,100.15,1
1906,31.41,-31.78,79.55,1
1907,31.43,-42.67,117.85,1
1908,31.44,-56.61,80.24,1
1909,31.45,-60.46,80.64,1
1910,31.47,-52.31,56.27,1
1911,31.48,-60.99,78.68,1
1912,31.49,-33.05,31.2,1
1913,31.51,-59.57,54.91,1
1914,31.52,-55.3,21.79,1
1915,31.53,-66.29,-3.06,1
1916,31.55,-37.41,-26.49,1
1917,31.56,-37.94,-10.94,1
1918,31.57,-38.99,-4.15,1
1919,31.59,-49.33,10.92,1
1920,31.6,-28.28,-0.18,1
1921,31.61,-37.02,-47.46,1
1922,31.63,-23.14,-40.24,1
1923,31.64,-25.39,10.23,1
1924,31.65,-28.67,-43.25,1
1925,31.67,-35.28,-25.0,1
1926,31.68,-15.29,-12.59,1
1927,31.69,-8.02,-28.11,1
1928,31.71,-19.65,-36.41,1
1929,31.72,19.75,-34.89,1
1930,31.73,-3.26,-62.0,1
1931,31.75,1.85,-11.81,1
1932,31.76,3.94,-56.87,1
1933,31.77,22.52,-7.38,1
1934,31.78,17.23,-34.41,1
1935,31.8,17.3,-48.49,1
1936,31.81,5.05,6.29,1
1937,31.82,11.88,-23.41,1
1938,31.84,25.29,-44.49,1
1939,31.85,28.75,-44.9,1
1940,31.86,9.29,-48.94,1
1941,31.88,12.42,-35.32,1
1942,31.89,0.52,-57.93,1
1943,31.9,11.5,-64.09,1
1944,31.92,28.05,-37.51,1
1945,31.93,36.94,19.35,1
1946,31.94,26.64,-7.94,1
1947,31.96,37.65,-20.07,1
1948,31.97,19.49,-31.19,1
1949,31.98,30.43,-20.32,1
1950,32.0,18.45,4.45,1
1951,32.01,25.92,47.47,1
1952,32.03,15.47,-24.91,1
1953,32.04,24.76,-10.83,1
1954,32.05,12.08,17.42,1
1955,32.07,15.43,23.68,1
1956,32.08,21.63,59.54,1
1957,32.09,10.42,97.35,1
1958,32.11,21.48,263.9,1
1959,32.12,44.84,395.69,1
1960,32.13,67.09,228.69,1
1961,32.15,1.75,164.1,1
1962,32.16,-110.16,43.26,1
1963,32.17,-37.0,-321.79,1
1964,32.19,-215.87,-160.97,1
1965,32.2,8.82,242.83,1
1966,32.21,259.54,-169.94,1
1967,32.23,158.51,-358.58,1
1968,32.24,373.05,-172.71,1
1969,32.25,83.45,-404.83,1
1970,32.27,274.24,-410.94,1
1971,32.28,28.41,-16.38,1
1972,32.29,186.24,319.01,1
1973,32.31,-126.69,-273.49,1
1974,32.32,62.32,-297.8,1
1975,32.33,-236.94,-133.76,1
1976,32.35,-135.67,-231.2,1
1977,32.36,-90.06,121.59,1
1978,32.37,-90.34,-243.46,1
1979,32.39,-170.59,292.31,1
1980,32.4,-356.11,354.38,1
1981,32.41,-187.29,627.67,1
1982,32.43,-215.86,426.54,1
1983,32.44,3.01,246.83,1
1984,32.45,-295.43,0.28,1
1985,32.47,-118.81,114.85,1
1986,32.48,-266.64,234.63,1
1987,32.49,-56.92,-13.15,1
1988,32.51,37.11,308.83,1
1989,32.52,18.84,-163.24,1
1990,32.53,-118.54,-631.58,1
1991,32.54,49.62,-228.06,1
1992,32.56,-93.65,11.2,1
1993,32.57,116.48,-439.42,1
1994,32.59,107.16,-175.82,1
1995,32.6,130.91,80.14,1
1996,32.61,33.11,-155.57,1
1997,32.63,239.3,388.88,1
1998,32.64,68.86,-287.53,1
1999,32.65,217.11,282.58,1
2000,32.67,-0.52,345.02,1
2001,32.68,252.6,-83.28,1
2002,32.69,-158.81,-237.24,1
2003,32.71,405.92,-246.52,1
2004,32.72,-10.02,70.49,1
2005,32.73,137.53,244.86,1
2006,32.75,76.88,-64.1,1
2007,32.76,50.43,336.89,1
2008,32.77,144.32,-408.08,1
2009,32.79,-62.75,201.01,1
2010,32.8,146.03,-120.39,1
2011,32.81,38.58,116.24,1
2012,32.83,341.67,399.4,1
2013,32.84,-88.62,87.77,1
2014,32.85,-31.77,-213.22,1
2015,32.87,-106.9,-208.0,1
2016,32.88,103.53,102.36,1
2017,32.89,-116.33,-99.29,1
2018,32.91,-30.3,130.94,1
2019,32.92,-105.41,-63.81,1
2020,32.93,-38.21,-305.02,1
2021,32.95,-109.72,-48.67,1
2022,32.96,8.03,122.36,1
2023,32.97,-119.26,71.65,1
2024,32.99,-135.21,361.77,1
2025,33.0,-132.79,273.46,1
2026,33.01,-112.53,437.04,1
2027,33.03,-109.34,406.1,1
2028,33.04,-163.07,171.23,1
2029,33.05,-177.38,0.45,1
2030,33.06,-205.23,-219.9,1
2031,33.08,-141.66,-241.65,1
2032,33.09,-62.83,-329.32,1
2033,33.11,4.88,-325.11,1
2034,33.12,14.28,-269.25,1
2035,33.13,56.19,-143.18,1
2036,33.15,67.23,-117.11,1
2037,33.16,87.32,9.62,1
2038,33.17,109.53,11.8,1
2039,33.19,111.61,23.38,1
2040,33.2,115.47,28.73,1
2041,33.21,77.99,20.79,1
2042,33.22,72.16,-6.5,1
2043,33.24,57.76,43.19,1
2044,33.25,66.03,44.34,1
2045,33.27,55.32,63.29,1
2046,33.28,59.92,3.22,1
2047,33.29,39.01,38.73,1
2048,33.31,16.5,19.11,1
2049,33.32,40.77,-45.75,1
2050,33.33,25.38,-8.99,1
2051,33.35,23.5,-50.98,1
2052,33.36,2.63,17.01,1
2053,33.37,-2.57,-8.24,1
2054,33.39,-10.22,-39.66,1
2055,33.4,-22.81,-41.19,1
2056,33.41,-12.73,-41.23,1
2057,33.43,-14.87,22.06,1
2058,33.44,-3.32,-17.33,1
2059,33.45,-16.63,-46.02,1
2060,33.47,-51.86,33.08,1
2061,33.48,-26.52,-1.08,1
2062,33.49,-8.86,-17.17,1
2063,33.51,-24.85,-24.72,1
2064,33.52,-14.68,-57.54,1
2065,33.53,-24.19,-5.67,1
2066,33.55,-29.66,-37.21,1
2067,33.56,-10.33,-29.63,1
2068,33.57,-34.52,-47.38,1
2069,33.59,-19.4,-2.58,1
2070,33.6,-16.15,-14.95,1
2071,33.61,-25.19,5.71,1
2072,33.63,-24.4,-9.46,1
2073,33.64,-25.54,-0.09,1
2074,33.65,-9.3,-24.98,1
2075,33.67,-23.3,-8.03,1
2076,33.68,-13.68,-15.81,1
2077,33.69,-7.08,15.03,1
2078,33.71,-0.2,21.34,1
2079,33.72,-14.48,-3.41,1
2080,33.73,-7.87,36.05,1
2081,33.75,-7.4,33.09,1
2082,33.76,2.19,1.36,1
2083,33.77,2.46,-2.32,1
2084,33.79,3.7,18.94,1
2085,33.8,3.66,18.98,1
2086,33.81,11.17,25.35,1
2087,33.83,2.69,4.59,1
2088,33.84,14.59,20.62,1
2089,33.85,15.76,21.83,1
2090,33.87,21.51,0.43,1
2091,33.88,9.87,26.88,1
2092,33.89,10.85,26.3,1
2093,33.9,0.79,31.13,1
2094,33.92,6.03,-1.46,1
2095,33.93,0.86,10.35,1
2096,33.95,9.38,12.69,1
2097,33.96,24.63,14.21,1
2098,33.97,22.36,23.35,1
2099,33.99,-6.39,11.08,1
2100,34.0,17.14,18.79,1
2101,34.01,1.85,8.73,1
2102,34.03,4.24,33.36,1
2103,34.04,1.61,79.12,1
2104,34.05,-19.16,30.44,1
2105,34.07,4.82,-30.53,1
2106,34.08,11.81,41.21,1
2107,34.09,13.02,51.66,1
2108,34.11,19.21,153.61,1
2109,34.12,34.81,221.68,1
2110,34.13,17.51,-143.08,1
2111,34.15,-75.95,185.4,1
2112,34.16,103.89,106.37,1
2113,34.17,90.28,-136.7,1
2114,34.19,89.58,5.51,1
2115,34.2,-110.97,-254.23,1
2116,34.21,-39.2,364.39,1
2117,34.23,79.89,80.54,1
2118,34.24,89.25,-53.06,1
2119,34.25,-0.16,-555.26,1
2120,34.27,41.51,-240.93,1
2121,34.28,173.57,164.91,1
2122,34.29,-25.84,-327.63,1
2123,34.31,-93.27,-396.92,1
2124,34.32,263.67,-569.09,1
2125,34.33,31.26,-380.35,1
2126,34.35,-96.62,-99.4,1
2127,34.36,-187.33,282.14,1
2128,34.37,-176.64,154.95,1
2129,34.38,-248.33,-198.26,1
2130,34.4,-143.27,174.75,1
2131,34.41,-36.35,-27.01,1
2132,34.43,-10.98,279.03,1
2133,34.44,-231.39,180.3,1
2134,34.45,-13.85,425.21,1
2135,34.47,105.96,-14.31,1
2136,34.48,-127.46,699.33,1
2137,34.49,52.19,281.11,1
2138,34.51,-154.67,114.44,1
2139,34.52,-49.35,-75.04,1
2140,34.53,-170.89,135.72,1
2141,34.54,52.72,252.48,1
2142,34.56,169.33,67.69,1
2143,34.57,-13.29,-176.43,1
2144,34.59,-37.45,32.95,1
2145,34.6,125.38,-199.72,1
2146,34.61,-60.63,-77.59,1
2147,34.63,106.59,13.31,1
2148,34.64,63.72,-34.15,1
2149,34.65,116.74,-282.26,1
2150,34.67,-64.63,-156.42,1
2151,34.68,-15.46,-405.27,1
2152,34.69,124.6,-374.18,1
2153,34.71,-55.28,-111.91,1
2154,34.72,88.46,-153.15,1
2155,34.73,101.5,9.36,1
2156,34.75,104.29,353.17,1
2157,34.76,352.43,162.55,1
2158,34.77,143.94,-223.81,1
2159,34.79,-57.0,48.5,1
2160,34.8,180.39,-25.85,1
2161,34.81,-213.01,301.65,1
2162,34.83,153.26,-147.43,1
2163,34.84,20.65,-75.47,1
2164,34.85,-45.23,490.29,1
2165,34.87,60.18,155.07,1
2166,34.88,-115.04,136.32,1
2167,34.89,-133.31,-151.74,1
2168,34.91,61.16,-317.11,1
2169,34.92,-140.49,-24.39,1
2170,34.93,154.16,-281.82,1
2171,34.95,-21.21,-1.32,1
2172,34.96,37.68,-72.01,1
2173,34.97,-12.82,176.51,1
2174,34.99,-5.28,-197.96,1
2175,35.0,-43.27,10.75,1
2176,35.01,58.95,-241.64,1
2177,35.03,-26.67,197.18,1
2178,35.04,-67.51,-46.89,1
2179,35.05,-143.67,128.51,1
2180,35.06,-82.48,184.96,1
2181,35.08,-118.78,390.75,1
2182,35.09,-138.74,348.64,1
2183,35.11,-191.66,369.96,1
2184,35.12,-142.74,241.23,1
2185,35.13,-122.95,1.65,1
2186,35.15,-41.24,-44.59,1
2187,35.16,23.71,-241.62,1
2188,35.17,36.63,-295.73,1
2189,35.19,82.6,-341.11,1
2190,35.2,89.45,-147.56,1
2191,35.21,101.18,-42.99,1
2192,35.22,88.95,-55.92,1
2193,35.24,106.96,-34.17,1
2194,35.25,88.82,27.91,1
2195,35.27,92.17,65.49,1
2196,35.28,90.82,3.28,1
2197,35.29,93.34,22.67,1
2198,35.31,23.54,119.48,1
2199,35.32,37.49,-16.33,1
2200,35.33,-0.81,48.47,1
2201,35.35,24.3,12.73,1
2202,35.36,5.15,30.32,1
2203,35.37,26.57,60.01,1
2204,35.39,-11.22,46.67,1
2205,35.4,-0.0,-5.08,1
2206,35.41,-14.13,13.79,1
2207,35.43,-17.96,37.55,1
2208,35.44,-7.88,11.45,1
2209,35.45,-29.12,31.68,1
2210,35.47,-16.47,52.03,1
2211,35.48,-52.72,-43.99,1
2212,35.49,-26.25,3.53,1
2213,35.51,-28.94,-52.85,1
2214,35.52,-45.36,-6.32,1
2215,35.53,-44.5,-38.0,1
2216,35.55,-43.84,-25.47,1
2217,35.56,-46.74,-7.56,1
2218,35.57,-19.9,-52.66,1
2219,35.59,-43.94,-59.51,1
2220,35.6,-26.24,-39.15,1
2221,35.61,-32.56,-42.8,1
2222,35.63,-38.36,-30.24,1
2223,35.64,-29.62,-16.37,1
2224,35.65,-10.69,-72.33,1
2225,35.67,-20.66,-84.79,1
2226,35.68,-5.87,-89.05,1
2227,35.69,-17.73,-41.85,1
2228,35.71,-6.66,-43.69,1
2229,35.72,-11.57,-56.18,1
2230,35.73,-1.42,-41.71,1
2231,35.75,-6.02,-48.54,1
2232,35.76,8.27,-3.54,1
2233,35.77,7.63,-3.77,1
2234,35.79,16.57,18.44,1
2235,35.8,-3.31,-2.81,1
2236,35.81,30.54,48.12,1
2237,35.83,1.89,2.95,1
2238,35.84,12.19,-8.53,1
2239,35.85,16.5,42.53,1
2240,35.87,8.4,32.16,1
2241,35.88,3.83,2.72,1
2242,35.89,-3.25,38.81,1
2243,35.9,28.5,22.39,1
2244,35.92,20.32,22.86,1
2245,35.93,7.03,11.14,1
2246,35.95,17.97,5.43,1
2247,35.96,-1.45,36.9,1
2248,35.97,21.33,35.4,1
2249,35.99,9.5,30.25,1
2250,36.0,18.56,-5.64,1
2251,36.01,6.49,7.4,1
2252,36.03,17.37,19.23,1
2253,36.04,22.86,0.35,1
2254,36.05,-22.73,18.37,1
2255,36.07,6.07,23.44,1
2256,36.08,16.03,13.42,1
2257,36.09,21.98,30.19,1
2258,36.11,10.7,47.17,1
2259,36.12,17.96,112.42,1
2260,36.13,35.13,282.69,1
2261,36.15,18.35,366.11,1
2262,36.16,121.73,22.61,1
2263,36.17,-97.59,-420.3,1
2264,36.19,88.81,-53.85,1
2265,36.2,54.8,266.51,1
2266,36.21,-14.22,-55.77,1
2267,36.23,-80.64,138.59,1
2268,36.24,78.69,207.86,1
2269,36.25,110.33,121.34,1
2270,36.27,159.19,86.4,1
2271,36.28,130.84,-130.14,1
2272,36.29,95.58,-533.26,1
2273,36.31,170.41,-576.96,1
2274,36.32,-84.73,-28.87,1
2275,36.33,-303.94,-110.62,1
2276,36.35,-231.91,-196.31,1
2277,36.36,-108.11,-165.23,1
2278,36.37,78.47,-161.71,1
2279,36.38,-190.88,78.6,1
2280,36.4,-97.92,101.59,1
2281,36.41,-16.93,-244.13,1
2282,36.43,-132.44,-58.24,1
2283,36.44,109.36,84.5,1
2284,36.45,-161.19,173.54,1
2285,36.47,-104.71,-362.19,1
2286,36.48,-273.96,-35.02,1
2287,36.49,28.26,11.98,1
2288,36.51,-44.42,93.34,1
2289,36.52,-36.55,-241.74,1
2290,36.53,74.82,53.53,1
2291,36.54,-79.41,193.85,1
2292,36.56,37.16,245.26,1
2293,36.57,-12.01,116.79,1
2294,36.59,28.06,-206.53,1
2295,36.6,32.66,530.86,1
2296,36.61,112.5,201.39,1
2297,36.63,-50.01,238.56,1
2298,36.64,30.97,260.22,1
2299,36.65,230.38,123.73,1
2300,36.67,-93.42,-147.81,1
2301,36.68,56.63,52.35,1
2302,36.69,171.28,369.77,1
2303,36.71,322.87,-9.88,1
2304,36.72,138.95,-290.8,1
2305,36.73,-10.33,-101.03,1
2306,36.75,-114.47,138.14,1
2307,36.76,-79.11,-473.49,1
2308,36.77,235.33,-5.11,1
2309,36.79,-102.99,-18.85,1
2310,36.8,-108.93,346.23,1
2311,36.81,68.37,-221.73,1
2312,36.83,174.97,37.71,1
2313,36.84,-83.5,8.76,1
2314,36.85,148.13,67.99,1
2315,36.87,6.4,217.19,1
2316,36.88,-193.05,-40.23,1
2317,36.89,26.37,-468.33,1
2318,36.9,51.52,-47.44,1
2319,36.92,-75.48,-159.49,1
2320,36.93,-162.08,113.45,1
2321,36.95,64.86,-63.16,1
2322,36.96,-35.71,-3.66,1
2323,36.97,-65.16,-95.44,1
2324,36.99,-84.72,41.2,1
2325,37.0,-47.51,49.17,1
2326,37.01,-126.78,109.25,1
2327,37.03,-91.66,293.35,1
2328,37.04,-124.48,209.19,1
2329,37.05,-87.43,108.09,1
2330,37.06,-112.0,236.57,1
2331,37.08,-24.31,-8.59,1
2332,37.09,-10.79,-161.71,1
2333,37.11,43.34,-183.11,1
2334,37.12,107.74,-345.36,1
2335,37.13,156.99,-270.76,1
2336,37.15,126.13,-199.53,1
2337,37.16,132.68,-86.28,1
2338,37.17,110.3,-73.47,1
2339,37.19,122.01,-62.63,1
2340,37.2,65.41,-17.88,1
2341,37.21,51.01,57.19,1
2342,37.22,53.93,97.31,1
2343,37.24,53.71,87.25,1
2344,37.25,41.61,94.09,1
2345,37.27,46.93,79.18,1
2346,37.28,38.58,57.74,1
2347,37.29,24.16,36.28,1
2348,37.31,28.61,42.55,1
2349,37.32,27.33,54.49,1
2350,37.33,-1.35,30.8,1
2351,37.35,-8.69,45.63,1
2352,37.36,-16.55,44.33,1
2353,37.37,-35.6,27.95,1
2354,37.39,-29.33,34.38,1
2355,37.4,-40.27,7.72,1
2356,37.41,-25.98,40.42,1
2357,37.43,-44.09,46.79,1
2358,37.44,-38.39,41.89,1
2359,37.45,-59.45,17.28,1
2360,37.47,-50.09,19.08,1
2361,37.48,-52.32,-35.09,1
2362,37.49,-60.62,-35.78,1
2363,37.51,-53.99,6.59,1
2364,37.52,-37.84,-18.59,1
2365,37.53,-45.89,-54.65,1
2366,37.54,-37.21,-30.32,1
2367,37.56,-32.22,-20.72,1
2368,37.57,-34.98,-20.43,1
2369,37.59,-40.64,-38.56,1
2370,37.6,-38.18,-41.41,1
2371,37.61,-43.6,-28.32,1
2372,37.63,-13.68,-57.66,1
2373,37.64,-7.43,-35.02,1
2374,37.65,-28.71,-24.54,1
2375,37.67,-16.92,-20.39,1
2376,37.68,-22.79,-47.25,1
2377,37.69,-18.0,-25.77,1
2378,37.71,-12.74,6.79,1
2379,37.72,-7.66,-8.5,1
2380,37.73,-13.85,-11.09,1
2381,37.75,-5.14,-11.34,1
2382,37.76,-5.26,0.26,1
2383,37.77,16.27,7.6,1
2384,37.79,29.46,11.27,1
2385,37.8,10.44,-17.7,1
2386,37.81,9.46,29.63,1
2387,37.83,6.53,8.56,1
2388,37.84,24.01,-3.03,1
2389,37.85,22.21,-21.15,1
2390,37.87,16.61,-8.74,1
2391,37.88,17.19,10.3,1
2392,37.89,24.56,-10.07,1
2393,37.91,23.88,2.94,1
2394,37.92,16.52,3.83,1
2395,37.93,45.1,20.3,1
2396,37.95,28.57,-16.96,1
2397,37.96,9.92,-9.16,1
2398,37.97,3.28,26.55,1
2399,37.99,7.94,-10.05,1
2400,38.0,19.01,0.18,1
2401,38.01,12.81,2.8,1
2402,38.03,22.0,37.69,1
2403,38.04,18.46,2.41,1
2404,38.05,13.1,36.44,1
2405,38.07,-13.98,35.7,1
2406,38.08,14.27,18.61,1
2407,38.09,27.26,28.54,1
2408,38.11,-2.91,41.49,1
2409,38.12,24.71,28.48,1
2410,38.13,21.46,185.35,1
2411,38.15,14.91,296.63,1
2412,38.16,7.41,316.68,1
2413,38.17,116.01,221.1,1
2414,38.19,-32.75,166.4,1
2415,38.2,263.71,-42.49,1
2416,38.21,-11.65,-218.7,1
2417,38.22,-116.17,2.88,1
2418,38.24,-171.06,-333.98,1
2419,38.25,71.91,-64.02,1
2420,38.27,-152.76,-512.47,1
2421,38.28,-209.02,-289.06,1
2422,38.29,77.8,-267.96,1
2423,38.31,100.01,71.91,1
2424,38.32,52.46,-468.58,1
2425,38.33,82.72,-126.52,1
2426,38.35,128.96,-553.43,1
2427,38.36,89.39,76.9,1
2428,38.37,-143.04,-2.36,1
2429,38.38,-166.9,-90.65,1
2430,38.4,-42.2,391.16,1
2431,38.41,-102.55,71.0,1
2432,38.43,-164.68,118.44,1
2433,38.44,36.21,-73.8,1
2434,38.45,-108.4,447.38,1
2435,38.47,61.45,246.15,1
2436,38.48,2.1,208.08,1
2437,38.49,-9.72,-152.25,1
2438,38.51,83.37,49.01,1
2439,38.52,-42.06,396.96,1
2440,38.53,49.19,306.81,1
2441,38.55,182.95,62.38,1
2442,38.56,-1.48,-379.01,1
2443,38.57,-12.63,-424.29,1
2444,38.59,-45.38,-271.96,1
2445,38.6,-90.66,84.24,1
2446,38.61,113.09,-107.86,1
2447,38.63,-23.6,-127.39,1
2448,38.64,57.51,306.09,1
2449,38.65,-59.84,-87.45,1
2450,38.67,-28.79,-235.02,1
2451,38.68,74.39,0.58,1
2452,38.69,61.47,413.61,1
2453,38.71,65.58,614.98,1
2454,38.72,104.34,218.07,1
2455,38.73,38.57,181.21,1
2456,38.75,62.04,219.29,1
2457,38.76,-128.99,124.19,1
2458,38.77,295.58,260.38,1
2459,38.79,-163.0,236.91,1
2460,38.8,-175.18,-179.78,1
2461,38.81,-48.26,-141.85,1
2462,38.83,-219.14,38.89,1
2463,38.84,-63.29,-168.2,1
2464,38.85,50.52,153.41,1
2465,38.87,-142.83,-352.51,1
2466,38.88,186.95,-102.06,1
2467,38.89,-72.15,-249.26,1
2468,38.9,6.82,-122.47,1
2469,38.92,-1.58,-212.09,1
2470,38.93,-72.08,-200.73,1
2471,38.95,-62.2,-74.42,1
2472,38.96,-82.04,72.21,1
2473,38.97,-95.95,94.47,1
2474,38.99,-99.05,120.32,1
2475,39.0,-76.0,-16.94,1
2476,39.01,-12.15,17.07,1
2477,39.03,34.11,84.56,1
2478,39.04,14.31,-104.39,1
2479,39.05,54.0,-233.26,1
2480,39.06,94.79,-151.31,1
2481,39.08,105.95,-148.43,1
2482,39.09,45.17,-195.75,1
2483,39.11,41.18,-193.11,1
2484,39.12,50.92,-159.45,1
2485,39.13,80.63,-107.28,1
2486,39.15,85.89,-53.87,1
2487,39.16,93.42,-9.73,1
2488,39.17,108.43,-8.63,1
2489,39.19,81.8,15.57,1
2490,39.2,75.85,44.32,1
2491,39.21,58.5,99.0,1
2492,39.23,67.02,113.74,1
2493,39.24,34.56,143.51,1
2494,39.25,28.83,180.85,1
2495,39.27,18.81,145.26,1
2496,39.28,47.35,98.73,1
2497,39.29,10.31,87.4,1
2498,39.31,-15.04,119.71,1
2499,39.32,-8.36,66.29,1
2500,39.33,-13.96,71.15,1
2501,39.35,-49.02,41.17,1
2502,39.36,-44.56,85.74,1
2503,39.37,-46.05,66.15,1
2504,39.39,-32.79,13.6,1
2505,39.4,-46.28,82.11,1
2506,39.41,-60.91,35.02,1
2507,39.43,-46.83,23.76,1
2508,39.44,-48.03,7.63,1
2509,39.45,-34.49,22.76,1
2510,39.47,-32.62,10.95,1
2511,39.48,-27.5,-1.32,1
2512,39.49,-40.93,-21.93,1
2513,39.51,-47.19,-29.1,1
2514,39.52,-27.54,-30.94,1
2515,39.53,-33.37,-44.24,1
2516,39.54,-22.87,-51.8,1
2517,39.56,-30.95,-8.69,1
2518,39.57,-27.9,-58.25,1
2519,39.59,-36.18,-29.77,1
2520,39.6,-15.01,-25.41,1
2521,39.61,-19.82,-16.1,1
2522,39.63,-10.71,-13.32,1
2523,39.64,-26.21,-26.05,1
2524,39.65,-16.06,-20.32,1
2525,39.67,-7.59,-2.38,1
2526,39.68,21.13,-6.31,1
2527,39.69,-14.51,-42.59,1
2528,39.71,11.66,-27.91,1
2529,39.72,-9.91,-45.28,1
2530,39.73,3.23,-31.35,1
2531,39.75,12.57,-1.49,1
2532,39.76,-4.22,-27.68,1
2533,39.77,12.25,-12.56,1
2534,39.79,0.38,-7.04,1
2535,39.8,7.01,-16.22,1
2536,39.81,-1.27,-54.76,1
2537,39.83,2.7,-21.26,1
2538,39.84,4.3,-58.5,1
2539,39.85,16.9,-39.37,1
2540,39.87,20.57,-24.93,1
2541,39.88,15.95,5.97,1
2542,39.89,22.9,-1.16,1
2543,39.91,4.48,16.79,1
2544,39.92,-1.29,9.01,1
2545,39.93,19.11,-29.31,1
2546,39.95,6.44,-11.43,1
2547,39.96,15.78,12.1,1
2548,39.97,20.69,-3.43,1
2549,39.99,12.74,8.97,1
2550,40.0,23.19,-2.38,1
2551,40.01,6.14,17.4,1
2552,40.03,20.67,50.15,1
2553,40.04,23.37,29.18,1
2554,40.05,13.37,32.36,1
2555,40.07,-0.49,8.06,1
2556,40.08,2.4,115.82,1
2557,40.09,1.24,236.11,1
2558,40.11,20.31,-153.84,1
2559,40.12,45.57,281.29,1
2560,40.13,-52.71,323.78,1
2561,40.15,-160.19,222.35,1
2562,40.16,223.2,65.65,1
2563,40.17,214.89,-283.28,1
2564,40.19,83.94,-246.49,1
2565,40.2,-19.24,117.16,1
2566,40.21,-151.11,-75.03,1
2567,40.22,94.76,-262.18,1
2568,40.24,258.54,-261.38,1
2569,40.25,88.34,-157.83,1
2570,40.27,-15.07,-349.55,1
2571,40.28,-394.97,374.69,1
2572,40.29,126.14,-162.83,1
2573,40.31,12.04,66.23,1
2574,40.32,83.87,-172.81,1
2575,40.33,-102.13,386.46,1
2576,40.35,-8.32,101.23,1
2577,40.36,101.72,-286.86,1
2578,40.37,-419.76,-580.75,1
2579,40.38,-78.0,-88.61,1
2580,40.4,-303.91,178.15,1
2581,40.41,-20.3,-63.37,1
2582,40.43,-132.42,-39.79,1
2583,40.44,-301.8,306.0,1
2584,40.45,-13.41,99.79,1
2585,40.47,12.61,-430.84,1
2586,40.48,-151.52,-27.99,1
2587,40.49,8.06,-374.54,1
2588,40.51,52.47,212.82,1
2589,40.52,-216.53,614.25,1
2590,40.53,219.31,429.32,1
2591,40.55,383.48,362.93,1
2592,40.56,-106.32,78.79,1
2593,40.57,179.53,232.1,1
2594,40.59,68.52,-176.08,1
2595,40.6,123.96,1.82,1
2596,40.61,168.21,-101.89,1
2597,40.63,-74.69,-449.97,1
2598,40.64,127.05,-131.32,1
2599,40.65,-93.78,60.19,1
2600,40.67,-9.93,96.14,1
2601,40.68,285.66,-237.57,1
2602,40.69,-38.93,-14.79,1
2603,40.71,-21.61,34.33,1
2604,40.72,164.02,-48.65,1
2605,40.73,-73.13,367.11,1
2606,40.75,132.81,375.22,1
2607,40.76,52.12,147.97,1
2608,40.77,10.3,354.02,1
2609,40.79,-59.96,-289.37,1
2610,40.8,97.34,-315.39,1
2611,40.81,10.39,-71.64,1
2612,40.83,-87.83,-214.69,1
2613,40.84,44.87,429.26,1
2614,40.85,51.63,225.21,1
2615,40.87,-7.75,212.49,1
2616,40.88,29.63,-375.63,1
2617,40.89,279.29,-245.91,1
2618,40.9,-129.76,87.26,1
2619,40.92,-38.17,46.77,1
2620,40.93,-163.16,-88.62,1
2621,40.95,-352.04,-66.92,1
2622,40.96,30.26,-252.64,1
2623,40.97,-243.25,-198.13,1
2624,40.99,265.52,30.68,1
2625,41.0,-107.29,-33.84,1
2626,41.01,222.54,32.11,1
2627,41.03,-126.61,1.39,1
2628,41.04,0.86,-54.18,1
2629,41.05,-85.08,34.31,1
2630,41.06,-118.2,17.8,1
2631,41.08,-15.67,76.99,1
2632,41.09,-41.82,72.67,1
2633,41.11,-50.23,175.67,1
2634,41.12,-36.84,145.29,1
2635,41.13,-26.57,218.13,1
2636,41.15,-113.21,47.05,1
2637,41.16,-111.25,32.83,1
2638,41.17,-29.21,19.2,1
2639,41.19,7.64,62.21,1
2640,41.2,21.09,-24.55,1
2641,41.21,55.7,-99.82,1
2642,41.23,68.18,-218.09,1
2643,41.24,68.69,-186.65,1
2644,41.25,73.94,-110.46,1
2645,41.27,86.95,-81.39,1
2646,41.28,103.57,-187.04,1
2647,41.29,69.65,-152.2,1
2648,41.31,61.27,-114.1,1
2649,41.32,65.72,-66.02,1
2650,41.33,58.87,-83.44,1
2651,41.35,27.59,-26.0,1
2652,41.36,12.16,3.75,1
2653,41.37,16.25,-6.44,1
2654,41.38,37.59,54.51,1
2655,41.4,19.66,37.4,1
2656,41.41,1.78,47.4,1
2657,41.43,-29.04,44.91,1
2658,41.44,-10.08,41.23,1
2659,41.45,-31.05,67.11,1
2660,41.47,-31.03,68.26,1
2661,41.48,-28.64,109.23,1
2662,41.49,-26.72,95.59,1
2663,41.51,-39.09,96.99,1
2664,41.52,-43.25,45.63,1
2665,41.53,-39.83,22.28,1
2666,41.54,-30.59,28.05,1
2667,41.56,-29.71,53.93,1
2668,41.57,-30.53,-10.27,1
2669,41.59,-26.43,37.82,1
2670,41.6,-40.28,53.88,1
2671,41.61,-29.54,15.82,1
2672,41.63,-24.77,-13.78,1
2673,41.64,-11.58,28.9,1
2674,41.65,-18.18,-1.47,1
2675,41.67,-8.38,-8.84,1
2676,41.68,-13.2,-21.57,1
2677,41.69,-2.4,30.35,1
2678,41.71,5.16,-2.96,1
2679,41.72,-5.33,-32.67,1
2680,41.73,-8.86,-40.59,1
2681,41.75,2.69,-4.54,1
2682,41.76,9.8,-21.64,1
2683,41.77,-18.63,-37.79,1
2684,41.79,5.66,-12.94,1
2685,41.8,-4.76,-22.45,1
2686,41.81,4.02,-9.77,1
2687,41.83,12.79,3.69,1
2688,41.84,13.72,3.69,1
2689,41.85,4.23,-26.19,1
2690,41.87,8.87,-29.69,1
2691,41.88,7.5,-37.55,1
2692,41.89,19.54,-12.52,1
2693,41.91,4.67,-41.01,1
2694,41.92,7.38,-27.59,1
2695,41.93,18.03,-25.09,1
2696,41.95,19.79,5.89,1
2697,41.96,21.64,-7.14,1
2698,41.97,17.55,-8.67,1
2699,41.99,12.33,-5.79,1
2700,42.0,9.55,5.75,1
2701,42.01,-1.51,13.33,1
2702,42.03,17.2,-9.26,1
2703,42.04,-0.24,-15.79,1
2704,42.05,11.24,19.02,1
2705,42.06,-7.38,-6.4,1
2706,42.08,5.99,-16.01,1
2707,42.09,16.68,43.02,1
2708,42.11,9.52,-6.16,1
2709,42.12,7.87,-29.67,1
2710,42.13,17.53,20.14,1
2711,42.15,0.53,-6.77,1
2712,42.16,1.14,242.6,1
2713,42.17,3.8,254.22,1
2714,42.19,4.02,-153.61,1
2715,42.2,-117.5,-217.38,1
2716,42.21,55.43,-269.5,1
2717,42.22,127.88,349.06,1
2718,42.24,-94.52,-15.14,1
2719,42.25,161.6,-45.39,1
2720,42.27,-209.69,475.83,1
2721,42.28,70.46,165.49,1
2722,42.29,-138.54,52.13,1
2723,42.31,285.46,-228.08,1
2724,42.32,-73.14,-221.28,1
2725,42.33,263.16,322.45,1
2726,42.35,-50.14,-219.04,1
2727,42.36,15.51,-480.37,1
2728,42.37,152.45,-438.54,1
2729,42.38,87.46,-277.97,1
2730,42.4,54.73,-61.41,1
2731,42.41,-133.88,200.18,1
2732,42.43,-86.2,235.63,1
2733,42.44,-181.1,-91.79,1
2734,42.45,-72.01,360.29,1
2735,42.47,-224.98,55.57,1
2736,42.48,118.4,105.26,1
2737,42.49,60.12,-418.26,1
2738,42.51,-98.75,177.96,1
2739,42.52,-51.05,-120.76,1
2740,42.53,-58.74,-135.52,1
2741,42.55,-76.83,101.08,1
2742,42.56,-218.85,285.92,1
2743,42.57,-200.98,-361.77,1
2744,42.59,49.15,-100.72,1
2745,42.6,124.24,242.49,1
2746,42.61,-70.74,479.86,1
2747,42.63,-51.92,209.54,1
2748,42.64,292.16,-48.72,1
2749,42.65,3.12,-199.75,1
2750,42.67,-68.46,-314.55,1
2751,42.68,20.77,97.9,1
2752,42.69,128.61,-132.29,1
2753,42.71,-5.8,505.01,1
2754,42.72,81.63,86.68,1
2755,42.73,17.79,159.3,1
2756,42.75,252.53,-516.32,1
2757,42.76,-122.25,-184.92,1
2758,42.77,277.3,125.89,1
2759,42.79,-58.57,-71.62,1
2760,42.8,11.06,-3.75,1
2761,42.81,-266.37,-17.21,1
2762,42.83,18.17,444.27,1
2763,42.84,-108.16,162.31,1
2764,42.85,-75.84,-15.74,1
2765,42.87,99.46,282.12,1
2766,42.88,-133.16,-257.69,1
2767,42.89,37.1,-241.29,1
2768,42.9,-23.04,-140.4,1
2769,42.92,22.97,5.91,1
2770,42.93,-41.01,-22.78,1
2771,42.95,-53.48,-69.83,1
2772,42.96,-17.58,-97.82,1
2773,42.97,-60.19,-78.9,1
2774,42.99,-113.09,-106.57,1
2775,43.0,-97.87,-72.39,1
2776,43.01,-104.07,-68.91,1
2777,43.03,-101.1,-28.71,1
2778,43.04,-128.38,96.6,1
2779,43.05,-107.32,280.93,1
2780,43.06,-70.81,276.56,1
2781,43.08,-10.96,234.08,1
2782,43.09,19.08,59.54,1
2783,43.11,74.62,51.27,1
2784,43.12,141.0,-40.82,1
2785,43.13,144.64,-143.11,1
2786,43.15,175.88,-242.24,1
2787,43.16,191.98,-223.1,1
2788,43.17,176.88,-160.81,1
2789,43.19,175.11,-93.66,1
2790,43.2,168.45,-18.89,1
2791,43.21,147.08,11.07,1
2792,43.23,146.04,22.87,1
2793,43.24,117.8,67.64,1
2794,43.25,110.17,18.37,1
2795,43.27,74.09,27.6,1
2796,43.28,87.36,38.99,1
2797,43.29,42.42,33.73,1
2798,43.31,37.43,42.98,1
2799,43.32,8.61,46.28,1
2800,43.33,22.92,65.41,1
2801,43.35,3.62,7.12,1
2802,43.36,-8.6,53.29,1
2803,43.37,-20.52,74.62,1
2804,43.38,-46.61,79.55,1
2805,43.4,-57.05,41.06,1
2806,43.41,-50.81,145.03,1
2807,43.43,-58.13,79.36,1
2808,43.44,-65.08,39.01,1
2809,43.45,-71.82,54.65,1
2810,43.47,-57.47,17.08,1
2811,43.48,-76.2,16.59,1
2812,43.49,-89.88,-10.63,1
2813,43.51,-71.32,0.37,1
2814,43.52,-78.7,1.62,1
2815,43.53,-61.44,-25.19,1
2816,43.54,-70.63,-18.82,1
2817,43.56,-49.21,-38.24,1
2818,43.57,-64.76,-59.86,1
2819,43.59,-64.86,-26.81,1
2820,43.6,-68.72,-42.6,1
2821,43.61,-56.0,-68.72,1
2822,43.63,-61.51,-45.15,1
2823,43.64,-57.9,-46.29,1
2824,43.65,-26.37,-56.62,1
2825,43.67,-37.44,-20.44,1
2826,43.68,-37.36,-34.31,1
2827,43.69,-28.7,-32.47,1
2828,43.71,-9.24,-9.83,1
2829,43.72,-30.05,-12.62,1
2830,43.73,-21.04,-18.87,1
2831,43.75,-8.03,-66.77,1
2832,43.76,0.49,-66.75,1
2833,43.77,-2.08,-32.18,1
2834,43.79,9.73,-17.33,1
2835,43.8,18.15,-44.77,1
2836,43.81,18.63,-21.52,1
2837,43.83,11.08,-7.2,1
2838,43.84,23.8,-26.74,1
2839,43.85,-5.92,-10.55,1
2840,43.87,24.42,-0.67,1
2841,43.88,13.69,-10.41,1
2842,43.89,20.83,-18.57,1
2843,43.91,6.21,-25.37,1
2844,43.92,10.53,-15.67,1
2845,43.93,9.78,8.0,1
2846,43.95,27.48,31.95,1
2847,43.96,13.84,-7.52,1
2848,43.97,18.72,14.51,1
2849,43.99,33.28,-15.67,1
2850,44.0,24.53,4.63,1
2851,44.01,18.64,17.07,1
2852,44.03,27.56,-20.85,1
2853,44.04,25.02,19.26,1
2854,44.05,15.63,21.08,1
2855,44.06,-2.25,-8.9,1
2856,44.08,19.59,-13.22,1
2857,44.09,21.06,12.87,1
2858,44.11,11.93,54.82,1
2859,44.12,31.46,100.38,1
2860,44.13,20.59,169.68,1
2861,44.15,22.22,225.06,1
2862,44.16,25.7,107.49,1
2863,44.17,53.87,243.44,1
2864,44.19,15.99,173.67,1
2865,44.2,42.03,-250.13,1
2866,44.21,-75.48,-444.91,1
2867,44.22,99.51,-307.18,1
2868,44.24,119.62,-168.21,1
2869,44.25,94.98,537.71,1
2870,44.27,45.22,-31.58,1
2871,44.28,-36.72,-64.76,1
2872,44.29,-125.08,309.93,1
2873,44.31,98.59,-257.13,1
2874,44.32,159.81,-324.47,1
2875,44.33,39.67,-80.96,1
2876,44.35,202.32,-132.25,1
2877,44.36,125.92,149.0,1
2878,44.37,52.16,-366.22,1
2879,44.385000000000005,-287.77,-117.96,1
2880,44.4,-338.7,-199.46,1
2881,44.41,-89.1,-119.18,1
2882,44.43,-244.07,188.53,1
2883,44.44,-123.54,398.0,1
2884,44.45,-93.08,456.77,1
2885,44.47,13.54,161.62,1
2886,44.48,21.37,550.09,1
2887,44.49,-39.9,15.16,1
2888,44.51,38.33,-555.06,1
2889,44.52,-47.52,-255.98,1
2890,44.53,-207.77,50.85,1
2891,44.55,110.67,8.31,1
2892,44.56,8.23,-284.79,1
2893,44.57,-44.82,-92.2,1
2894,44.59,-69.47,-94.58,1
2895,44.6,-138.76,283.6,1
2896,44.61,85.01,-34.86,1
2897,44.63,-224.99,80.18,1
2898,44.64,133.89,419.67,1
2899,44.65,-236.32,106.32,1
2900,44.67,-119.85,277.37,1
2901,44.68,59.82,-266.85,1
2902,44.69,-175.76,-178.14,1
2903,44.71,155.04,37.41,1
2904,44.72,311.71,-21.15,1
2905,44.73,201.59,628.19,1
2906,44.75,-35.6,291.33,1
2907,44.76,216.04,309.53,1
2908,44.77,88.41,195.86,1
2909,44.79,135.11,-106.94,1
2910,44.8,-4.82,-345.13,1
2911,44.81,3.76,-221.38,1
2912,44.83,-75.46,-248.62,1
2913,44.84,-10.71,53.44,1
2914,44.85,258.82,-352.4,1
2915,44.87,160.83,-363.09,1
2916,44.88,28.58,-6.8,1
2917,44.89,188.38,-396.21,1
2918,44.9,-101.72,-113.6,1
2919,44.92,105.46,-131.65,1
2920,44.93,80.79,21.93,1
2921,44.95,-66.63,-36.89,1
2922,44.96,3.18,-13.76,1
2923,44.97,-73.17,20.98,1
2924,44.99,-65.17,134.95,1
2925,45.0,-121.29,269.24,1
2926,45.01,-125.47,268.47,1
2927,45.03,-121.75,240.29,1
2928,45.04,-141.05,130.72,1
2929,45.05,-167.63,54.11,1
2930,45.07,-120.03,47.8,1
2931,45.08,-55.89,-101.4,1
2932,45.09,-16.33,-227.07,1
2933,45.11,36.83,-322.07,1
2934,45.12,87.11,-242.59,1
2935,45.13,115.19,-135.55,1
2936,45.15,113.72,-104.05,1
2937,45.16,113.39,-52.29,1
2938,45.17,93.45,-36.11,1
2939,45.19,105.53,-22.62,1
2940,45.2,93.02,16.23,1
2941,45.21,82.21,33.38,1
2942,45.22,57.6,23.35,1
2943,45.24,36.85,68.57,1
2944,45.25,23.73,35.54,1
2945,45.27,35.82,27.04,1
2946,45.28,-18.34,25.81,1
2947,45.29,-2.85,65.09,1
2948,45.31,-1.08,90.59,1
2949,45.32,-28.02,80.47,1
2950,45.33,-26.25,112.87,1
2951,45.35,-19.92,93.89,1
2952,45.36,-36.85,102.6,1
2953,45.37,-52.36,94.17,1
2954,45.38,-56.58,68.85,1
2955,45.4,-48.2,86.27,1
2956,45.41,-40.2,55.84,1
2957,45.43,-26.72,56.84,1
2958,45.44,-41.54,70.98,1
2959,45.45,-25.39,54.58,1
2960,45.47,-60.05,9.27,1
2961,45.48,-75.75,27.35,1
2962,45.49,-64.12,-7.17,1
2963,45.51,-59.25,-16.57,1
2964,45.52,-39.89,-25.43,1
2965,45.53,-11.35,-12.36,1
2966,45.54,-18.4,-29.54,1
2967,45.56,-20.99,-37.69,1
2968,45.57,-31.25,-44.09,1
2969,45.59,-31.37,-18.7,1
2970,45.6,-6.59,-21.39,1
2971,45.61,-16.77,-55.55,1
2972,45.63,-25.6,13.54,1
2973,45.64,-19.71,-43.75,1
2974,45.65,-13.16,-59.74,1
2975,45.67,5.41,-61.06,1
2976,45.68,4.08,-30.16,1
2977,45.69,-1.14,-31.78,1
2978,45.71,-2.59,18.7,1
2979,45.72,-2.02,-34.13,1
2980,45.73,3.56,-53.45,1
2981,45.75,3.04,-29.06,1
2982,45.76,5.79,-43.38,1
2983,45.77,-6.55,-4.02,1
2984,45.79,-4.21,-37.28,1
2985,45.8,25.44,-5.16,1
2986,45.81,27.89,-27.04,1
2987,45.83,6.36,-1.75,1
2988,45.84,25.81,-22.34,1
2989,45.85,20.59,-15.07,1
2990,45.87,34.35,-42.77,1
2991,45.88,28.56,-45.75,1
2992,45.89,9.36,8.37,1
2993,45.9,7.45,-8.83,1
2994,45.92,13.97,-6.94,1
2995,45.93,19.95,14.37,1
2996,45.95,17.74,12.2,1
2997,45.96,31.57,4.51,1
2998,45.97,7.61,5.28,1
2999,45.99,3.88,18.54,1
3000,46.0,30.73,-8.09,1
3001,46.01,29.23,-1.89,1
3002,46.03,10.3,34.16,1
3003,46.04,5.43,28.92,1
3004,46.05,-11.34,5.55,1
3005,46.06,-0.99,14.6,1
3006,46.08,19.07,26.09,1
3007,46.09,3.9,-1.88,1
3008,46.11,22.13,14.75,1
3009,46.12,-0.02,49.83,1
3010,46.13,-3.72,97.03,1
3011,46.15,44.52,137.43,1
3012,46.16,24.32,48.49,1
3013,46.17,-4.6,294.83,1
3014,46.19,-74.59,66.55,1
3015,46.2,-20.57,-167.03,1
3016,46.21,-146.35,428.58,1
3017,46.22,197.04,131.44,1
3018,46.24,-39.6,57.16,1
3019,46.25,-224.5,-235.15,1
3020,46.27,11.8,-153.63,1
3021,46.28,45.23,-443.83,1
3022,46.29,266.93,-419.54,1
3023,46.31,265.69,-366.09,1
3024,46.32,258.76,-140.82,1
3025,46.33,-19.15,401.73,1
3026,46.35,100.4,-198.22,1
3027,46.36,-55.97,-45.51,1
3028,46.37,110.46,9.44,1
3029,46.39,-219.53,-436.25,1
3030,46.4,92.19,-224.42,1
3031,46.41,-6.43,-219.02,1
3032,46.43,-37.19,-130.41,1
3033,46.44,-186.77,285.74,1
3034,46.45,-133.41,434.85,1
3035,46.47,-144.77,543.36,1
3036,46.48,-101.54,260.47,1
3037,46.49,-127.91,328.87,1
3038,46.51,-354.83,-3.74,1
3039,46.52,176.25,-92.13,1
3040,46.53,-130.22,-400.94,1
3041,46.54,143.21,187.07,1
3042,46.56,-66.22,323.42,1
3043,46.57,257.87,-243.25,1
3044,46.59,-104.34,-127.4,1
3045,46.6,-134.48,200.92,1
3046,46.61,164.49,-194.01,1
3047,46.63,-334.54,223.14,1
3048,46.64,-155.75,167.86,1
3049,46.65,-93.4,310.41,1
3050,46.67,-121.25,61.68,1
3051,46.68,-14.08,133.82,1
3052,46.69,-26.51,-183.89,1
3053,46.71,-56.77,-339.05,1
3054,46.72,-20.02,-70.07,1
3055,46.73,215.11,-189.41,1
3056,46.75,93.47,-299.98,1
3057,46.76,253.84,75.85,1
3058,46.77,150.43,-145.36,1
3059,46.79,64.43,-82.06,1
3060,46.8,27.99,317.37,1
3061,46.81,111.88,136.98,1
3062,46.83,69.53,432.67,1
3063,46.84,96.23,-103.89,1
3064,46.85,-160.42,116.72,1
3065,46.87,36.44,-117.4,1
3066,46.88,37.74,-143.23,1
3067,46.89,-87.22,-259.38,1
3068,46.9,42.55,51.84,1
3069,46.92,21.72,83.16,1
3070,46.93,0.85,505.8,1
3071,46.95,-3.93,145.33,1
3072,46.96,-98.87,180.21,1
3073,46.97,17.08,0.7,1
3074,46.99,-28.86,-20.2,1
3075,47.0,6.19,-209.2,1
3076,47.01,10.13,-246.73,1
3077,47.03,106.14,-205.26,1
3078,47.04,103.25,-162.72,1
3079,47.05,122.07,-140.78,1
3080,47.07,93.48,-95.65,1
3081,47.08,101.3,-79.53,1
3082,47.09,93.94,-67.36,1
3083,47.11,84.19,-72.1,1
3084,47.12,50.68,-106.65,1
3085,47.13,50.91,-45.28,1
3086,47.15,25.38,-29.02,1
3087,47.16,25.69,-20.01,1
3088,47.17,-1.26,-0.09,1
3089,47.19,-14.65,31.04,1
3090,47.2,-40.49,46.25,1
3091,47.21,-39.72,94.39,1
3092,47.22,-40.6,42.19,1
3093,47.24,-39.29,65.99,1
3094,47.25,-49.02,59.6,1
3095,47.27,-40.4,43.24,1
3096,47.28,-46.57,30.7,1
3097,47.29,-61.67,43.21,1
3098,47.31,-54.6,4.45,1
3099,47.32,-73.26,25.96,1
3100,47.33,-73.54,7.63,1
3101,47.35,-56.16,48.19,1
3102,47.36,-50.75,4.02,1
3103,47.37,-70.05,3.74,1
3104,47.38,-69.97,-30.66,1
3105,47.4,-54.84,7.12,1
3106,47.41,-66.98,61.32,1
3107,47.43,-49.0,-19.65,1
3108,47.44,-51.52,57.82,1
3109,47.45,-28.85,12.39,1
3110,47.47,-40.23,1.42,1
3111,47.48,-33.37,3.74,1
3112,47.49,-26.29,53.89,1
3113,47.51,-37.65,-27.38,1
3114,47.52,-13.12,-14.36,1
3115,47.53,-5.42,22.4,1
3116,47.54,10.89,6.17,1
3117,47.56,2.77,13.57,1
3118,47.57,-2.84,-4.72,1
3119,47.59,-7.65,11.74,1
3120,47.6,5.42,-8.59,1
3121,47.61,6.14,-12.2,1
3122,47.63,-1.19,-51.61,1
3123,47.64,18.52,-24.96,1
3124,47.65,6.59,-50.07,1
3125,47.67,15.16,-21.8,1
3126,47.68,7.81,-17.46,1
3127,47.69,15.96,-0.91,1
3128,47.71,13.58,0.77,1
3129,47.72,24.84,-29.47,1
3130,47.73,21.22,-15.12,1
3131,47.75,31.87,-33.53,1
3132,47.76,35.73,35.28,1
3133,47.77,23.31,10.53,1
3134,47.79,35.59,39.55,1
3135,47.8,12.2,-29.11,1
3136,47.81,20.21,20.46,1
3137,47.83,13.34,15.37,1
3138,47.84,28.84,-0.48,1
3139,47.85,34.37,-24.59,1
3140,47.87,32.73,41.88,1
3141,47.88,22.47,-15.88,1
3142,47.89,16.92,-11.73,1
3143,47.9,19.06,-0.6,1
3144,47.92,18.87,43.48,1
3145,47.93,22.52,-29.2,1
3146,47.95,10.02,-42.66,1
3147,47.96,4.18,15.79,1
3148,47.97,0.04,21.66,1
3149,47.99,13.91,18.0,1
3150,48.0,13.67,-4.48,1
3151,48.01,9.95,-18.76,1
3152,48.03,7.86,-6.77,1
3153,48.04,17.3,13.44,1
3154,48.05,9.43,-2.0,1
3155,48.06,-0.76,-17.77,1
3156,48.08,1.08,-9.28,1
3157,48.09,11.89,2.63,1
3158,48.11,2.21,55.3,1
3159,48.12,-8.56,131.83,1
3160,48.13,6.95,306.12,1
3161,48.15,0.86,217.11,1
3162,48.16,68.38,-151.35,1
3163,48.17,27.25,-88.2,1
3164,48.19,50.95,13.1,1
3165,48.2,164.16,-657.38,1
3166,48.21,49.08,-92.0,1
3167,48.22,16.91,206.49,1
3168,48.24,192.42,312.39,1
3169,48.25,-198.38,14.69,1
3170,48.27,7.3,-254.01,1
3171,48.28,-152.73,301.38,1
3172,48.29,-196.49,-421.64,1
3173,48.31,129.91,-229.15,1
3174,48.32,-53.53,-257.3,1
3175,48.33,88.67,-144.99,1
3176,48.35,91.42,-145.03,1
3177,48.36,-249.55,319.53,1
3178,48.37,130.4,122.48,1
3179,48.39,-330.87,-135.72,1
3180,48.4,-96.14,543.57,1
3181,48.41,-195.65,-129.2,1
3182,48.43,-62.57,-210.31,1
3183,48.44,-51.51,-206.99,1
3184,48.45,-165.32,69.77,1
3185,48.47,145.62,-256.79,1
3186,48.48,-170.8,183.54,1
3187,48.49,-263.15,-163.15,1
3188,48.51,-31.56,125.49,1
3189,48.52,-21.51,636.17,1
3190,48.53,136.37,270.34,1
3191,48.54,69.81,283.42,1
3192,48.56,34.07,-21.57,1
3193,48.57,-12.21,354.61,1
3194,48.59,62.72,-141.48,1
3195,48.6,76.74,-151.66,1
3196,48.61,143.56,-37.01,1
3197,48.63,73.87,-2.57,1
3198,48.64,19.29,330.88,1
3199,48.65,101.86,100.7,1
3200,48.67,-107.12,190.47,1
3201,48.68,-158.11,-115.78,1
3202,48.69,77.23,-11.93,1
3203,48.71,-27.3,66.18,1
3204,48.72,154.44,-440.07,1
3205,48.73,105.36,-297.44,1
3206,48.75,143.46,-488.05,1
3207,48.76,75.09,-156.81,1
3208,48.77,177.19,111.07,1
3209,48.79,-152.84,-591.04,1
3210,48.8,254.02,15.07,1
3211,48.81,-6.57,149.6,1
3212,48.83,158.79,-80.18,1
3213,48.84,146.23,472.66,1
3214,48.85,8.11,-300.96,1
3215,48.87,-33.25,208.38,1
3216,48.88,-41.21,355.56,1
3217,48.89,-314.2,69.78,1
3218,48.9,193.65,32.7,1
3219,48.92,-117.24,162.58,1
3220,48.93,37.61,-64.07,1
3221,48.95,-270.45,-89.29,1
3222,48.96,60.79,-22.02,1
3223,48.97,-199.83,-124.56,1
3224,48.99,150.2,-61.52,1
3225,49.0,90.97,-92.99,1
3226,49.01,9.42,-48.19,1
3227,49.03,-4.58,57.71,1
3228,49.04,-60.75,106.67,1
3229,49.05,-40.51,273.86,1
3230,49.06,-74.73,220.55,1
3231,49.08,-64.42,122.09,1
3232,49.09,-81.18,81.21,1
3233,49.11,-76.61,-70.56,1
3234,49.12,-41.88,-233.23,1
3235,49.13,-6.38,-311.92,1
3236,49.15,17.45,-191.5,1
3237,49.16,42.39,-150.87,1
3238,49.17,74.66,-223.7,1
3239,49.19,132.71,-175.98,1
3240,49.2,117.06,-118.34,1
3241,49.21,100.6,-36.4,1
3242,49.22,69.87,-22.47,1
3243,49.24,82.48,-6.89,1
3244,49.25,47.23,41.13,1
3245,49.27,38.59,30.83,1
3246,49.28,18.78,97.37,1
3247,49.29,18.04,93.77,1
3248,49.31,-9.7,79.33,1
3249,49.32,-14.69,80.32,1
3250,49.33,-17.47,103.12,1
3251,49.35,-21.6,62.66,1
3252,49.36,-33.84,119.54,1
3253,49.37,-28.85,124.25,1
3254,49.38,-38.83,85.53,1
3255,49.4,-40.63,70.23,1
3256,49.41,-41.65,83.79,1
3257,49.43,-40.41,84.37,1
3258,49.44,-50.3,89.81,1
3259,49.45,-40.75,62.76,1
3260,49.47,-49.91,50.82,1
3261,49.48,-43.0,70.07,1
3262,49.49,-44.57,37.51,1
3263,49.51,-56.18,19.89,1
3264,49.52,-24.2,36.23,1
3265,49.53,-30.71,-36.57,1
3266,49.54,-38.25,14.68,1
3267,49.56,-40.29,-17.51,1
3268,49.57,-41.59,-31.81,1
3269,49.59,-30.92,-34.55,1
3270,49.6,-30.11,-65.33,1
3271,49.61,-15.7,-25.1,1
3272,49.63,-22.79,-56.42,1
3273,49.64,-18.43,-22.31,1
3274,49.65,-1.11,-69.36,1
3275,49.67,-4.09,-56.64,1
3276,49.68,2.9,-40.65,1
3277,49.69,-3.95,-46.84,1
3278,49.71,-1.28,-59.45,1
3279,49.72,-0.18,-37.93,1
3280,49.73,-24.92,-26.44,1
3281,49.75,-14.84,-29.95,1
3282,49.76,-6.91,-32.22,1
3283,49.77,30.82,-25.19,1
3284,49.79,22.55,8.71,1
3285,49.8,15.95,-10.75,1
3286,49.81,23.75,-17.01,1
3287,49.83,26.43,-49.46,1
3288,49.84,18.74,-18.22,1
3289,49.85,31.04,-12.12,1
3290,49.87,26.97,-40.15,1
3291,49.88,26.55,-8.88,1
3292,49.89,36.17,-20.47,1
3293,49.9,9.86,-13.67,1
3294,49.92,20.93,-16.63,1
3295,49.93,32.46,18.55,1
3296,49.95,23.64,7.23,1
3297,49.96,18.72,-9.35,1
3298,49.97,24.9,35.92,1
3299,49.99,8.69,-12.07,1
3300,50.0,14.37,1.17,1
3301,50.01,12.28,5.49,1
3302,50.03,15.64,-2.67,1
3303,50.04,13.83,5.37,1
3304,50.05,6.98,24.22,1
3305,50.06,-8.38,0.46,1
3306,50.08,-7.57,-13.44,1
3307,50.09,14.36,-3.04,1
3308,50.11,19.89,143.66,1
3309,50.12,19.89,407.53,1
3310,50.13,23.22,125.65,1
3311,50.15,45.38,7.25,1
3312,50.16,-34.23,8.26,1
3313,50.17,-154.4,-361.26,1
3314,50.19,-131.51,-121.57,1
3315,50.2,325.37,20.09,1
3316,50.21,111.17,397.85,1
3317,50.22,37.01,-40.81,1
3318,50.24,59.59,-272.22,1
3319,50.25,99.0,155.46,1
3320,50.27,54.75,-215.94,1
3321,50.28,-123.15,-144.06,1
3322,50.29,-8.4,-430.51,1
3323,50.31,-95.26,242.46,1
3324,50.32,-111.03,157.53,1
3325,50.33,-209.61,217.88,1
3326,50.35,-52.66,-213.38,1
3327,50.36,-180.36,-178.11,1
3328,50.37,51.5,-54.43,1
3329,50.38,-164.89,-159.83,1
3330,50.4,152.85,2.0,1
3331,50.41,-21.71,58.4,1
3332,50.43,114.12,-112.66,1
3333,50.44,30.71,297.81,1
3334,50.45,68.16,-299.95,1
3335,50.47,200.43,-89.18,1
3336,50.48,176.09,-109.66,1
3337,50.49,-50.89,468.96,1
3338,50.51,-233.98,204.91,1
3339,50.52,-147.12,156.71,1
3340,50.53,-110.84,-245.97,1
3341,50.54,-79.82,96.15,1
3342,50.56,176.86,402.49,1
3343,50.57,-255.19,-99.38,1
3344,50.59,-26.46,-590.6,1
3345,50.6,50.92,-23.21,1
3346,50.61,75.62,227.0,1
3347,50.63,-70.29,-437.72,1
3348,50.64,279.22,4.86,1
3349,50.65,153.78,259.08,1
3350,50.67,35.36,459.68,1
3351,50.68,-97.23,114.58,1
3352,50.69,33.92,193.5,1
3353,50.71,49.01,206.34,1
3354,50.72,210.96,115.32,1
3355,50.73,-106.66,-100.03,1
3356,50.75,-118.99,253.7,1
3357,50.76,18.64,-140.74,1
3358,50.77,93.03,-283.53,1
3359,50.79,-72.34,-334.21,1
3360,50.8,193.77,-232.19,1
3361,50.81,-86.19,250.41,1
3362,50.83,120.9,-135.34,1
3363,50.84,-132.24,238.73,1
3364,50.85,172.44,-380.33,1
3365,50.87,-22.09,47.7,1
3366,50.88,63.83,-126.24,1
3367,50.89,-0.42,-102.38,1
3368,50.91,-91.04,96.01,1
3369,50.92,-121.15,-66.59,1
3370,50.93,-72.71,-2.54,1
3371,50.95,-176.31,-31.76,1
3372,50.96,-207.36,55.48,1
3373,50.97,-229.3,85.05,1
3374,50.99,-267.05,132.61,1
3375,51.0,-191.47,164.81,1
3376,51.01,-209.63,221.33,1
3377,51.03,-187.31,93.14,1
3378,51.04,-148.93,100.78,1
3379,51.05,-95.44,-25.15,1
3380,51.06,-35.5,-23.21,1
3381,51.08,59.79,13.72,1
3382,51.09,112.14,-10.12,1
3383,51.11,187.43,-108.11,1
3384,51.12,221.86,-257.88,1
3385,51.13,216.07,-237.1,1
3386,51.15,220.5,-120.02,1
3387,51.16,214.24,-97.42,1
3388,51.17,202.75,-70.49,1
3389,51.19,190.81,-79.02,1
3390,51.2,188.7,-82.86,1
3391,51.21,166.01,-52.7,1
3392,51.22,121.82,-69.8,1
3393,51.24,94.68,-32.04,1
3394,51.25,96.7,-17.56,1
3395,51.27,90.91,5.05,1
3396,51.28,77.08,66.85,1
3397,51.29,55.54,66.4,1
3398,51.31,35.98,106.53,1
3399,51.32,23.02,96.2,1
3400,51.33,21.58,92.83,1
3401,51.35,-18.17,114.12,1
3402,51.36,-37.86,88.61,1
3403,51.37,-26.69,61.33,1
3404,51.38,-32.75,122.14,1
3405,51.4,-45.23,96.33,1
3406,51.41,-59.68,84.06,1
3407,51.43,-59.91,57.29,1
3408,51.44,-59.47,79.11,1
3409,51.45,-100.55,55.85,1
3410,51.47,-116.71,29.7,1
3411,51.48,-101.24,35.01,1
3412,51.49,-77.07,46.08,1
3413,51.51,-85.76,-15.24,1
3414,51.52,-59.35,1.72,1
3415,51.53,-42.74,0.25,1
3416,51.55,-40.31,25.69,1
3417,51.56,-44.37,4.56,1
3418,51.57,-24.57,18.34,1
3419,51.59,-26.42,-14.74,1
3420,51.6,-32.65,-2.54,1
3421,51.61,-51.48,-61.07,1
3422,51.63,-37.74,-62.1,1
3423,51.64,-50.66,-27.23,1
3424,51.65,-23.61,-53.2,1
3425,51.67,-32.05,-46.56,1
3426,51.68,-14.79,-64.83,1
3427,51.69,-19.56,-63.08,1
3428,51.71,-27.71,-40.27,1
3429,51.72,-14.77,-85.51,1
3430,51.73,-21.16,-46.46,1
3431,51.75,-18.5,-46.47,1
3432,51.76,-9.21,-56.5,1
3433,51.77,-11.05,-55.29,1
3434,51.79,5.15,-55.59,1
3435,51.8,-7.26,-57.15,1
3436,51.81,-3.97,-49.88,1
3437,51.83,-8.85,-38.23,1
3438,51.84,23.17,-12.78,1
3439,51.85,23.87,-47.96,1
3440,51.87,-5.49,-25.79,1
3441,51.88,6.41,-28.45,1
3442,51.89,15.03,5.23,1
3443,51.9,17.98,-41.69,1
3444,51.92,5.33,-41.55,1
3445,51.93,16.26,19.8,1
3446,51.95,26.68,13.25,1
3447,51.96,12.82,19.07,1
3448,51.97,15.86,29.62,1
3449,51.99,30.7,20.99,1
3450,52.0,28.44,21.72,1
3451,52.01,25.25,10.17,1
3452,52.03,24.91,37.04,1
3453,52.04,-2.37,21.66,1
3454,52.05,24.55,47.27,1
3455,52.06,20.48,20.85,1
3456,52.08,-0.39,51.09,1
3457,52.09,0.18,64.6,1
3458,52.11,28.07,142.81,1
3459,52.12,36.22,178.36,1
3460,52.13,13.27,275.45,1
3461,52.15,51.3,175.84,1
3462,52.16,103.98,-51.31,1
3463,52.17,179.52,95.64,1
3464,52.19,112.55,-502.05,1
3465,52.2,-23.1,-155.52,1
3466,52.21,173.36,107.65,1
3467,52.23,-158.49,189.17,1
3468,52.24,114.21,-334.23,1
3469,52.25,-65.32,-175.32,1
3470,52.27,-40.48,147.66,1
3471,52.28,-73.86,-392.09,1
3472,52.29,75.19,197.49,1
3473,52.31,-243.07,-166.57,1
3474,52.32,100.53,347.01,1
3475,52.33,-109.68,-406.77,1
3476,52.35,113.66,-160.11,1
3477,52.36,-15.41,42.98,1
3478,52.37,-122.82,-49.21,1
3479,52.38,-244.72,-366.28,1
3480,52.4,62.57,91.27,1
3481,52.41,-156.9,128.96,1
3482,52.43,-78.05,149.98,1
3483,52.44,-15.2,267.9,1
3484,52.45,-260.63,357.62,1
3485,52.47,109.84,140.24,1
3486,52.48,-159.61,-123.78,1
3487,52.49,103.77,-195.02,1
3488,52.51,155.26,-3.68,1
3489,52.52,-37.11,93.78,1
3490,52.53,-74.08,173.22,1
3491,52.54,73.91,-156.82,1
3492,52.56,-0.6,-1.47,1
3493,52.57,193.11,-68.82,1
3494,52.59,-210.37,-9.73,1
3495,52.6,115.56,-246.31,1
3496,52.61,-356.87,18.48,1
3497,52.63,206.76,-117.73,1
3498,52.64,-33.98,319.39,1
3499,52.65,311.48,311.2,1
3500,52.67,-71.82,75.31,1
3501,52.68,-175.9,130.07,1
3502,52.69,277.23,148.63,1
3503,52.71,-181.99,33.54,1
3504,52.72,315.52,164.46,1
3505,52.73,-112.03,-199.98,1
3506,52.75,-239.53,122.15,1
3507,52.76,-67.36,-99.8,1
3508,52.77,73.21,-3.74,1
3509,52.79,157.06,-35.33,1
3510,52.8,49.02,-22.49,1
3511,52.81,23.07,249.97,1
3512,52.83,42.29,220.45,1
3513,52.84,68.31,313.73,1
3514,52.85,-53.02,201.81,1
3515,52.87,-15.28,104.61,1
3516,52.88,-14.43,-234.59,1
3517,52.89,99.76,-237.88,1
3518,52.9,172.25,-518.19,1
3519,52.92,163.07,-432.17,1
3520,52.93,133.1,-305.63,1
3521,52.95,96.61,-211.44,1
3522,52.96,70.95,-90.92,1
3523,52.97,50.96,-56.66,1
3524,52.99,27.29,-25.71,1
3525,53.0,10.28,9.99,1
3526,53.01,-9.37,22.2,1
3527,53.03,-18.08,51.81,1
3528,53.04,-13.95,75.24,1
3529,53.05,-26.79,12.55,1
3530,53.06,-50.48,59.92,1
3531,53.08,-39.76,51.0,1
3532,53.09,-31.3,57.26,1
3533,53.11,-49.59,58.14,1
3534,53.12,-45.93,5.55,1
3535,53.13,-49.79,16.71,1
3536,53.15,-47.87,30.2,1
3537,53.16,-51.35,24.17,1
3538,53.17,-50.19,47.23,1
3539,53.19,-51.55,32.62,1
3540,53.2,-54.03,0.72,1
3541,53.21,-59.62,-6.1,1
3542,53.22,-40.47,-0.74,1
3543,53.24,-52.62,8.5,1
3544,53.25,-36.33,0.3,1
3545,53.27,-39.75,2.22,1
3546,53.28,-37.39,-17.69,1
3547,53.29,-27.81,-40.94,1
3548,53.31,-34.45,-46.11,1
3549,53.32,-25.62,-28.28,1
3550,53.33,-44.28,-12.93,1
3551,53.35,-20.3,-3.94,1
3552,53.36,-36.2,-32.71,1
3553,53.37,-13.89,13.06,1
3554,53.38,-45.54,-18.39,1
3555,53.4,-25.47,4.77,1
3556,53.41,-15.4,14.64,1
3557,53.43,6.5,-28.15,1
3558,53.44,3.6,19.4,1
3559,53.45,0.34,-24.33,1
3560,53.47,-8.52,-10.39,1
3561,53.48,-4.55,-10.4,1
3562,53.49,-0.58,42.9,1
3563,53.51,20.67,3.96,1
3564,53.52,24.29,4.01,1
3565,53.53,20.3,37.41,1
3566,53.54,23.39,30.25,1
3567,53.56,31.1,19.4,1
3568,53.57,16.87,21.88,1
3569,53.59,34.79,17.07,1
3570,53.6,22.46,0.99,1
3571,53.61,22.26,6.07,1
3572,53.63,8.17,-11.59,1
3573,53.64,20.58,14.55,1
3574,53.65,14.37,22.48,1
3575,53.67,24.02,-5.69,1
3576,53.68,25.59,17.29,1
3577,53.69,21.24,-42.11,1
3578,53.71,9.44,26.13,1
3579,53.72,5.81,-5.4,1
3580,53.73,11.71,-17.74,1
3581,53.75,-4.96,46.42,1
3582,53.76,3.73,-5.06,1
3583,53.77,15.12,23.69,1
3584,53.79,15.72,12.58,1
3585,53.8,4.35,6.76,1
3586,53.81,-5.58,30.04,1
3587,53.83,14.26,6.86,1
3588,53.84,19.88,-6.16,1
3589,53.85,15.96,-0.39,1
3590,53.87,12.05,-8.2,1
3591,53.88,-5.0,5.69,1
3592,53.89,0.95,0.19,1
3593,53.9,10.76,15.67,1
3594,53.92,-2.67,-32.96,1
3595,53.93,4.01,-23.69,1
3596,53.95,12.39,5.26,1
3597,53.96,-1.06,-14.94,1
3598,53.97,7.26,-32.61,1
3599,53.99,-1.36,17.73,1
3600,54.0,-5.86,6.87,1
3601,54.01,-12.54,-9.85,1
3602,54.03,10.64,14.35,1
3603,54.04,-5.47,13.27,1
3604,54.05,0.67,8.44,1
3605,54.06,-2.41,-38.17,1
3606,54.08,-31.25,2.04,1
3607,54.09,-7.99,8.86,1
3608,54.11,7.64,28.84,1
3609,54.12,-0.57,-15.78,1
3610,54.13,-10.19,68.71,1
3611,54.15,5.26,148.26,1
3612,54.16,16.2,261.39,1
3613,54.17,21.07,174.39,1
3614,54.19,-9.95,316.25,1
3615,54.2,109.64,35.13,1
3616,54.21,-8.59,-56.3,1
3617,54.22,-119.51,25.23,1
3618,54.24,95.97,-227.58,1
3619,54.25,140.69,194.09,1
3620,54.27,-84.5,-205.68,1
3621,54.28,71.13,-389.73,1
3622,54.29,-133.49,7.72,1
3623,54.31,-181.56,94.54,1
3624,54.32,-201.12,-152.23,1
3625,54.33,-152.8,-317.65,1
3626,54.35,87.79,-70.27,1
3627,54.36,73.61,-740.92,1
3628,54.37,70.62,-520.72,1
3629,54.38,110.73,-488.52,1
3630,54.4,162.01,-248.08,1
3631,54.41,16.38,73.5,1
3632,54.43,90.96,72.19,1
3633,54.44,183.29,-48.67,1
3634,54.45,61.0,-87.78,1
3635,54.47,-28.48,414.02,1
3636,54.48,-306.84,425.66,1
3637,54.49,64.79,140.76,1
3638,54.51,-153.51,371.71,1
3639,54.52,256.08,58.33,1
3640,54.53,-41.47,93.1,1
3641,54.54,-282.8,-144.04,1
3642,54.56,-35.87,149.49,1
3643,54.57,-175.42,506.79,1
3644,54.59,-263.5,31.46,1
3645,54.6,137.62,-1.86,1
3646,54.61,-376.94,641.54,1
3647,54.63,50.64,139.5,1
3648,54.64,-155.34,-328.02,1
3649,54.65,140.52,-52.18,1
3650,54.67,228.38,395.51,1
3651,54.68,97.84,-122.59,1
3652,54.69,41.37,59.65,1
3653,54.71,159.62,167.78,1
3654,54.72,-57.25,-51.4,1
3655,54.73,236.94,-224.62,1
3656,54.75,15.62,-217.45,1
3657,54.76,-207.75,329.11,1
3658,54.77,5.97,199.51,1
3659,54.79,71.01,-339.48,1
3660,54.8,80.76,-420.16,1
3661,54.81,54.72,-77.98,1
3662,54.83,-18.4,276.99,1
3663,54.84,13.41,208.54,1
3664,54.85,62.95,304.76,1
3665,54.87,56.81,-256.1,1
3666,54.88,12.02,-224.6,1
3667,54.89,94.41,-94.03,1
3668,54.9,50.34,-124.07,1
3669,54.92,100.77,-90.08,1
3670,54.93,-65.41,-22.58,1
3671,54.95,156.79,-95.99,1
3672,54.96,18.95,-8.99,1
3673,54.97,-27.37,-16.46,1
3674,54.99,-58.09,18.37,1
3675,55.0,-93.91,217.04,1
3676,55.01,-148.3,252.44,1
3677,55.03,-142.56,231.52,1
3678,55.04,-97.74,83.11,1
3679,55.05,-94.82,157.13,1
3680,55.06,-23.53,-106.28,1
3681,55.08,-7.0,-249.29,1
3682,55.09,66.89,-246.45,1
3683,55.11,78.12,-198.23,1
3684,55.12,79.67,-293.67,1
3685,55.13,63.15,-222.84,1
3686,55.15,51.06,-181.17,1
3687,55.16,51.05,-58.31,1
3688,55.17,46.79,-56.71,1
3689,55.19,42.57,-20.03,1
3690,55.2,35.84,-4.43,1
3691,55.21,25.9,51.99,1
3692,55.22,9.85,80.3,1
3693,55.24,2.02,55.47,1
3694,55.25,14.51,55.69,1
3695,55.27,-3.97,70.92,1
3696,55.28,-33.78,38.58,1
3697,55.29,-17.21,56.94,1
3698,55.31,-24.06,56.0,1
3699,55.32,-25.49,27.87,1
3700,55.33,-32.33,81.86,1
3701,55.35,-32.39,33.93,1
3702,55.36,-40.02,55.72,1
3703,55.37,-45.11,33.01,1
3704,55.38,-39.05,35.14,1
3705,55.4,-41.03,49.07,1
3706,55.41,-29.34,47.47,1
3707,55.43,-25.74,11.98,1
3708,55.44,-33.8,24.94,1
3709,55.45,-39.74,13.12,1
3710,55.47,-27.09,22.0,1
3711,55.48,-31.22,27.89,1
3712,55.49,-30.76,34.23,1
3713,55.51,-25.17,9.89,1
3714,55.52,-24.79,2.78,1
3715,55.53,-23.07,-15.82,1
3716,55.54,-11.97,-9.33,1
3717,55.56,-2.98,-4.74,1
3718,55.57,-13.43,7.96,1
3719,55.59,-9.77,-31.94,1
3720,55.6,-9.64,-13.83,1
3721,55.61,5.84,-35.61,1
3722,55.63,13.45,-2.13,1
3723,55.64,-5.83,5.66,1
3724,55.65,2.36,-22.74,1
3725,55.67,-0.68,-13.73,1
3726,55.68,-9.09,-17.56,1
3727,55.69,-4.8,-32.44,1
3728,55.71,13.29,-52.41,1
3729,55.72,23.51,10.72,1
3730,55.73,19.35,-55.01,1
3731,55.75,20.8,-31.17,1
3732,55.76,32.92,-37.16,1
3733,55.77,17.27,-4.82,1
3734,55.79,24.75,-17.82,1
3735,55.8,9.54,12.21,1
3736,55.81,20.53,-25.72,1
3737,55.83,16.54,9.1,1
3738,55.84,20.11,5.24,1
3739,55.85,11.77,2.49,1
3740,55.87,12.35,-16.92,1
3741,55.88,13.57,-4.98,1
3742,55.89,16.77,-9.02,1
3743,55.9,19.96,-31.85,1
3744,55.92,15.26,22.65,1
3745,55.93,20.16,12.72,1
3746,55.95,13.6,24.07,1
3747,55.96,8.65,-16.0,1
3748,55.97,1.8,36.82,1
3749,55.99,4.58,8.15,1
3750,56.0,4.07,3.24,1
3751,56.01,6.25,-11.83,1
3752,56.03,21.77,10.0,1
3753,56.04,13.19,46.64,1
3754,56.05,0.83,-11.66,1
3755,56.06,12.73,-15.4,1
3756,56.08,-18.97,47.23,1
3757,56.09,4.76,26.48,1
3758,56.11,-6.15,28.56,1
3759,56.12,5.5,45.88,1
3760,56.13,-3.88,288.31,1
3761,56.15,-3.19,374.2,1
3762,56.16,13.36,36.79,1
3763,56.17,-88.2,-281.43,1
3764,56.19,275.59,48.66,1
3765,56.2,12.57,132.22,1
3766,56.21,270.22,235.73,1
3767,56.22,-164.28,130.31,1
3768,56.24,67.53,6.9,1
3769,56.25,19.12,-247.73,1
3770,56.27,-155.13,-197.1,1
3771,56.28,25.39,-26.69,1
3772,56.29,147.06,-80.85,1
3773,56.31,130.11,-192.48,1
3774,56.32,-86.64,-855.64,1
3775,56.33,51.37,-424.53,1
3776,56.35,-109.1,-79.91,1
3777,56.36,-116.08,-91.85,1
3778,56.37,-0.48,-186.69,1
3779,56.38,-226.11,478.97,1
3780,56.4,-120.41,73.22,1
3781,56.41,-223.46,38.54,1
3782,56.43,-105.59,-248.0,1
3783,56.44,-55.4,-126.72,1
3784,56.45,-81.03,-280.15,1
3785,56.47,-47.74,145.36,1
3786,56.48,-137.96,81.64,1
3787,56.49,-181.28,66.29,1
3788,56.51,72.8,-4.55,1
3789,56.52,101.62,-144.69,1
3790,56.53,-169.83,252.51,1
3791,56.54,138.42,185.2,1
3792,56.56,-83.19,387.2,1
3793,56.57,42.09,313.03,1
3794,56.59,93.2,-83.4,1
3795,56.6,47.99,280.72,1
3796,56.61,-230.26,274.64,1
3797,56.63,-86.72,227.36,1
3798,56.64,-203.05,-101.76,1
3799,56.65,165.58,300.32,1
3800,56.67,-13.78,150.92,1
3801,56.68,300.29,106.62,1
3802,56.69,52.76,62.42,1
3803,56.71,135.87,-414.79,1
3804,56.72,165.76,-242.56,1
3805,56.73,226.44,55.94,1
3806,56.75,116.23,-137.5,1
3807,56.76,286.46,322.26,1
3808,56.77,-108.14,-141.81,1
3809,56.79,-113.89,-134.87,1
3810,56.8,88.16,-188.64,1
3811,56.81,-56.32,228.1,1
3812,56.83,143.25,15.76,1
3813,56.84,187.41,307.01,1
3814,56.85,-13.74,-184.91,1
3815,56.87,97.15,-216.99,1
3816,56.88,49.53,-437.83,1
3817,56.89,-86.61,90.08,1
3818,56.9,19.64,-58.79,1
3819,56.92,291.41,-46.25,1
3820,56.93,-322.2,-160.29,1
3821,56.95,54.24,-86.85,1
3822,56.96,-162.86,-108.5,1
3823,56.97,-55.79,49.26,1
3824,56.99,6.51,53.31,1
3825,57.0,31.42,306.5,1
3826,57.01,-41.37,239.66,1
3827,57.03,-16.2,257.36,1
3828,57.04,-46.74,145.73,1
3829,57.05,-65.61,113.46,1
3830,57.06,-102.67,-51.37,1
3831,57.08,-113.21,-100.17,1
3832,57.09,-97.17,-238.51,1
3833,57.11,-105.73,-278.4,1
3834,57.12,-85.23,-233.79,1
3835,57.13,-29.47,-162.38,1
3836,57.15,22.3,-161.46,1
3837,57.16,73.04,-117.34,1
3838,57.17,85.88,-35.63,1
3839,57.19,92.4,-20.81,1
3840,57.2,71.05,16.25,1
3841,57.21,78.03,46.16,1
3842,57.22,76.61,57.73,1
3843,57.24,51.7,132.77,1
3844,57.25,39.6,98.71,1
3845,57.27,25.63,106.65,1
3846,57.28,26.43,93.21,1
3847,57.29,5.58,81.93,1
3848,57.31,8.3,104.37,1
3849,57.32,0.71,83.72,1
3850,57.33,-19.2,84.09,1
3851,57.35,0.3,65.85,1
3852,57.36,-0.64,44.95,1
3853,57.37,-21.93,49.23,1
3854,57.38,-31.04,13.04,1
3855,57.4,-36.75,22.84,1
3856,57.41,-44.2,1.94,1
3857,57.43,-51.43,-19.25,1
3858,57.44,-47.65,-5.86,1
3859,57.45,-43.25,-24.51,1
3860,57.47,-30.96,3.54,1
3861,57.48,-25.93,22.2,1
3862,57.49,-37.22,4.32,1
3863,57.51,-25.23,-11.21,1
3864,57.52,-38.22,-16.2,1
3865,57.53,-28.73,-15.7,1
3866,57.54,-45.89,-14.76,1
3867,57.56,-36.99,-7.92,1
3868,57.57,-20.95,-37.07,1
3869,57.59,-32.94,-26.62,1
3870,57.6,-23.77,-18.12,1
3871,57.61,-16.71,-56.1,1
3872,57.63,-9.2,-66.01,1
3873,57.64,-4.24,-39.96,1
3874,57.65,-3.78,-66.89,1
3875,57.67,-13.61,-39.53,1
3876,57.68,-5.04,-48.21,1
3877,57.69,-7.02,-39.66,1
3878,57.71,-5.97,-57.13,1
3879,57.72,13.28,-32.67,1
3880,57.73,-4.19,-34.23,1
3881,57.75,3.63,-33.88,1
3882,57.76,17.79,-28.6,1
3883,57.77,13.72,7.93,1
3884,57.79,16.22,-2.11,1
3885,57.8,20.69,-6.25,1
3886,57.81,13.74,-22.79,1
3887,57.83,15.79,-39.42,1
3888,57.84,11.18,11.12,1
3889,57.85,11.14,-18.29,1
3890,57.87,22.77,7.08,1
3891,57.88,30.29,8.81,1
3892,57.89,4.97,35.43,1
3893,57.9,30.34,-19.53,1
3894,57.92,16.1,16.35,1
3895,57.93,24.27,26.92,1
3896,57.95,17.2,15.95,1
3897,57.96,2.63,18.99,1
3898,57.97,5.61,12.86,1
3899,57.99,19.52,3.82,1
3900,58.0,20.71,-1.7,1
3901,58.01,24.77,19.84,1
3902,58.025000000000006,11.45,38.46,1
3903,58.04,-3.11,28.18,1
3904,58.05,8.86,24.07,1
3905,58.06,-2.7,15.39,1
3906,58.08,4.84,-14.45,1
3907,58.09,-11.98,32.72,1
3908,58.11,10.33,55.83,1
3909,58.12,26.93,142.64,1
3910,58.13,19.81,162.35,1
3911,58.15,19.43,-37.21,1
3912,58.16,41.6,-118.5,1
3913,58.17,-1.22,215.98,1
3914,58.19,63.66,-168.54,1
3915,58.2,128.18,-19.19,1
3916,58.21,160.14,223.17,1
3917,58.22,-113.01,-277.54,1
3918,58.24,-198.21,67.01,1
3919,58.25,51.56,189.01,1
3920,58.27,-171.91,356.07,1
3921,58.28,199.48,-25.22,1
3922,58.29,-100.9,-221.52,1
3923,58.31,138.43,184.66,1
3924,58.32,-205.62,-253.1,1
3925,58.33,153.74,-146.54,1
3926,58.35,47.95,-397.17,1
3927,58.36,87.37,-68.04,1
3928,58.37,-28.76,-154.87,1
3929,58.38,153.46,-205.81,1
3930,58.4,-132.88,-114.58,1
3931,58.41,-81.62,-138.64,1
3932,58.43,-119.47,-273.6,1
3933,58.44,190.63,-73.89,1
3934,58.45,-166.84,5.31,1
3935,58.47,-17.26,365.22,1
3936,58.48,110.33,-93.21,1
3937,58.49,-126.96,103.55,1
3938,58.51,-85.95,122.3,1
3939,58.52,-23.58,562.73,1
3940,58.53,-178.53,-119.1,1
3941,58.54,83.12,-50.74,1
3942,58.56,-269.19,115.81,1
3943,58.57,13.51,85.94,1
3944,58.59,-99.59,450.96,1
3945,58.6,59.78,37.37,1
3946,58.61,-122.75,-167.78,1
3947,58.63,-7.1,208.34,1
3948,58.64,-104.52,329.9,1
3949,58.65,105.02,435.55,1
3950,58.66,-128.29,230.15,1
3951,58.68,-150.35,-43.71,1
3952,58.69,-117.16,-191.58,1
3953,58.71,143.82,-487.26,1
3954,58.72,99.03,-74.93,1
3955,58.73,-196.35,-22.67,1
3956,58.75,93.07,-46.93,1
3957,58.76,-22.19,-41.87,1
3958,58.77,225.98,148.04,1
3959,58.79,41.36,-67.72,1
3960,58.8,190.94,198.38,1
3961,58.81,52.29,-37.27,1
3962,58.83,256.23,-31.42,1
3963,58.84,-74.44,-290.97,1
3964,58.85,90.96,-4.69,1
3965,58.87,75.31,-544.24,1
3966,58.88,45.34,-208.12,1
3967,58.89,74.38,-144.96,1
3968,58.9,59.29,-127.55,1
3969,58.92,-144.25,-221.84,1
3970,58.93,-9.81,-169.77,1
3971,58.95,24.6,-77.79,1
3972,58.96,-0.49,-36.46,1
3973,58.97,23.38,32.56,1
3974,58.99,-28.12,46.01,1
3975,59.0,-51.46,138.09,1
3976,59.01,-35.9,134.89,1
3977,59.03,-36.0,203.58,1
3978,59.04,-62.97,199.58,1
3979,59.05,-34.35,179.19,1
3980,59.06,-7.37,87.21,1
3981,59.08,26.26,-18.16,1
3982,59.09,26.67,-4.37,1
3983,59.11,85.2,23.56,1
3984,59.12,106.88,7.88,1
3985,59.13,107.67,-96.92,1
3986,59.15,76.05,-126.53,1
3987,59.16,53.38,-132.73,1
3988,59.17,38.35,1.61,1
3989,59.19,33.59,-39.72,1
3990,59.2,22.82,-3.9,1
3991,59.21,14.17,10.73,1
3992,59.22,26.69,51.42,1
3993,59.24,24.06,64.21,1
3994,59.25,-1.15,9.53,1
3995,59.27,-4.91,49.71,1
3996,59.28,-5.3,90.89,1
3997,59.29,-20.7,93.23,1
3998,59.3,-20.02,95.04,1
3999,59.32,-27.04,61.29,1
4000,59.33,-31.78,67.1,1
4001,59.35,-40.87,39.08,1
4002,59.36,-30.49,56.72,1
4003,59.37,-43.44,78.13,1
4004,59.38,-32.17,36.89,1
4005,59.4,-50.7,64.55,1
4006,59.41,-28.67,66.16,1
4007,59.43,-55.94,55.85,1
4008,59.44,-56.83,52.83,1
4009,59.45,-53.61,39.02,1
4010,59.47,-33.03,-2.13,1
4011,59.48,-41.38,2.62,1
4012,59.49,-38.8,17.28,1
4013,59.51,-25.28,25.52,1
4014,59.52,-43.7,-24.05,1
4015,59.53,-47.96,-36.19,1
4016,59.54,-25.52,-19.74,1
4017,59.56,-23.77,-44.49,1
4018,59.57,-27.74,-40.45,1
4019,59.59,-20.08,-45.49,1
4020,59.6,-22.84,-63.07,1
4021,59.61,-17.7,-44.7,1
4022,59.63,-12.72,-48.22,1
4023,59.64,-11.21,-13.05,1
4024,59.65,-7.38,-42.07,1
4025,59.67,-6.62,-28.23,1
4026,59.68,4.26,-6.76,1
4027,59.69,-6.06,-59.66,1
4028,59.71,9.83,-44.22,1
4029,59.72,16.33,-55.15,1
4030,59.73,9.89,-21.81,1
4031,59.75,9.78,-65.96,1
4032,59.76,12.58,-27.16,1
4033,59.77,-2.7,-37.15,1
4034,59.79,34.09,-26.24,1
4035,59.8,33.31,-25.81,1
4036,59.81,31.31,-32.18,1
4037,59.83,7.25,-40.8,1
4038,59.84,2.97,-16.72,1
4039,59.85,17.65,-21.37,1
4040,59.87,15.5,-42.58,1
4041,59.88,2.91,-32.33,1
4042,59.89,3.98,-4.09,1
4043,59.9,38.17,-20.74,1
4044,59.92,12.74,8.48,1
4045,59.93,19.7,-35.37,1
4046,59.94,2.74,0.87,1
4047,59.96,12.08,9.86,1
4048,59.97,25.79,14.74,1
4049,59.99,19.39,1.18,1
4050,60.0,12.98,7.45,1
