,Timestamp,Data1,Data2,Label
0,6.0,6.29,-8.96,1
1,6.01,-6.48,-3.76,1
2,6.03,-17.77,-10.35,1
3,6.04,-10.59,26.26,1
4,6.05,-7.0,16.18,1
5,6.07,-3.45,0.86,1
6,6.08,-10.6,-6.32,1
7,6.09,9.21,2.1,1
8,6.11,16.24,8.66,1
9,6.12,20.45,5.15,1
10,6.13,5.11,7.87,1
11,6.15,-13.5,60.88,1
12,6.16,11.77,76.24,1
13,6.17,66.05,148.92,1
14,6.19,180.87,159.3,1
15,6.2,-72.44,333.91,1
16,6.21,-12.89,280.45,1
17,6.23,233.84,214.38,1
18,6.24,129.33,65.46,1
19,6.25,-125.71,-96.57,1
20,6.27,218.0,35.58,1
21,6.28,41.32,46.48,1
22,6.29,170.68,-5.73,1
23,6.31,6.99,-36.87,1
24,6.32,-17.71,-72.88,1
25,6.33,-138.52,-97.99,1
26,6.35,-209.08,-120.9,1
27,6.36,-326.77,-138.47,1
28,6.37,-268.64,-150.45,1
29,6.39,-140.14,-158.07,1
30,6.4,-204.4,-226.83,1
31,6.41,-131.2,-272.11,1
32,6.43,9.9,-126.59,1
33,6.44,72.12,-243.78,1
34,6.45,-142.36,-138.07,1
35,6.47,212.7,-76.5,1
36,6.48,-361.58,-251.02,1
37,6.49,-49.56,-607.17,1
38,6.51,-128.0,-654.68,1
39,6.52,-8.59,-150.03,1
40,6.53,119.05,53.31,1
41,6.55,-89.94,-284.84,1
42,6.56,73.38,373.43,1
43,6.57,44.1,13.85,1
44,6.59,34.1,1.08,1
45,6.6,2.24,-72.99,1
46,6.61,-3.42,-151.43,1
47,6.63,201.8,331.63,1
48,6.64,71.56,363.08,1
49,6.65,160.64,108.79,1
50,6.67,10.82,-174.75,1
51,6.68,2.35,311.35,1
52,6.69,109.57,517.66,1
53,6.71,50.65,216.09,1
54,6.72,77.04,337.45,1
55,6.73,118.26,-102.18,1
56,6.75,-135.36,500.49,1
57,6.76,82.95,239.48,1
58,6.77,213.87,-186.11,1
59,6.79,33.84,112.85,1
60,6.8,-24.45,466.42,1
61,6.81,53.65,264.3,1
62,6.83,81.49,234.66,1
63,6.84,-143.0,-41.55,1
64,6.85,192.08,73.54,1
65,6.87,144.91,82.24,1
66,6.88,-7.78,-186.66,1
67,6.89,64.32,-369.82,1
68,6.91,46.2,-20.17,1
69,6.92,55.36,-227.57,1
70,6.93,-68.51,-134.83,1
71,6.95,63.67,-98.57,1
72,6.96,9.39,-212.06,1
73,6.97,-78.82,-219.64,1
74,6.99,-142.46,-143.94,1
75,7.0,-107.0,-83.23,1
76,7.01,-80.04,39.46,1
77,7.03,-37.88,145.47,1
78,7.04,20.97,120.95,1
79,7.05,23.65,145.58,1
80,7.07,21.69,75.69,1
81,7.08,15.27,98.09,1
82,7.09,44.49,158.06,1
83,7.11,45.6,236.51,1
84,7.12,45.94,220.84,1
85,7.13,27.22,213.41,1
86,7.15,23.93,244.15,1
87,7.16,24.03,229.7,1
88,7.17,14.82,207.63,1
89,7.19,8.44,119.26,1
90,7.2,-8.31,88.07,1
91,7.21,5.31,39.73,1
92,7.23,-35.4,16.77,1
93,7.24,-30.02,-38.89,1
94,7.25,-41.08,-57.86,1
95,7.27,-44.77,-90.19,1
96,7.28,-40.41,-133.86,1
97,7.29,-39.69,-156.9,1
98,7.31,-51.88,-138.37,1
99,7.32,-76.5,-146.74,1
100,7.33,-24.94,-169.38,1
101,7.35,-47.26,-160.78,1
102,7.36,-41.9,-169.71,1
103,7.37,-48.31,-168.52,1
104,7.39,-53.43,-182.82,1
105,7.4,-52.64,-142.6,1
106,7.41,-59.67,-137.79,1
107,7.43,-49.13,-114.2,1
108,7.44,-39.31,-158.02,1
109,7.45,-45.46,-122.41,1
110,7.47,-24.8,-107.22,1
111,7.48,-47.11,-89.52,1
112,7.49,-28.99,-96.05,1
113,7.51,-29.69,-85.34,1
114,7.52,-36.42,-87.39,1
115,7.53,-23.43,-60.59,1
116,7.55,-3.78,-46.77,1
117,7.56,-9.85,-39.36,1
118,7.57,-1.82,-19.54,1
119,7.59,2.46,-60.06,1
120,7.6,14.53,-46.38,1
121,7.61,5.35,-27.84,1
122,7.63,18.02,-33.9,1
123,7.64,10.04,-6.56,1
124,7.65,18.1,10.89,1
125,7.67,19.15,0.65,1
126,7.68,20.55,10.79,1
127,7.69,23.76,10.43,1
128,7.71,36.83,4.23,1
129,7.72,64.96,11.54,1
130,7.73,48.61,34.44,1
131,7.75,34.86,59.49,1
132,7.76,34.58,35.14,1
133,7.77,15.01,40.56,1
134,7.79,3.94,63.2,1
135,7.8,5.76,51.0,1
136,7.81,12.77,57.57,1
137,7.83,13.81,63.77,1
138,7.84,19.44,63.15,1
139,7.85,19.98,89.9,1
140,7.87,3.97,82.02,1
141,7.88,18.22,67.5,1
142,7.89,6.24,89.66,1
143,7.91,13.03,64.89,1
144,7.92,0.08,41.84,1
145,7.93,7.15,68.74,1
146,7.95,19.59,80.52,1
147,7.96,31.0,45.91,1
148,7.97,31.0,43.07,1
149,7.99,14.47,48.08,1
150,8.0,5.55,22.26,1
151,8.01,-10.64,23.46,1
152,8.03,12.32,74.99,1
153,8.04,5.09,20.93,1
154,8.05,32.21,28.67,1
155,8.07,20.4,34.33,1
156,8.08,11.35,1.12,1
157,8.09,10.01,8.62,1
158,8.11,13.39,26.04,1
159,8.12,-1.16,13.52,1
160,8.13,9.34,10.24,1
161,8.15,-9.68,14.61,1
162,8.16,21.51,11.73,1
163,8.17,53.69,96.77,1
164,8.19,-1.9,275.01,1
165,8.2,16.79,318.45,1
166,8.21,-246.25,40.84,1
167,8.23,150.4,-414.81,1
168,8.24,77.92,-77.78,1
169,8.25,199.26,182.47,1
170,8.27,169.63,-147.66,1
171,8.28,48.23,377.79,1
172,8.29,81.8,91.79,1
173,8.31,58.89,161.72,1
174,8.32,61.6,-30.85,1
175,8.33,-45.24,-152.57,1
176,8.35,-10.03,29.16,1
177,8.36,-447.78,-83.49,1
178,8.37,-239.6,-52.23,1
179,8.39,-71.35,-126.3,1
180,8.4,-82.89,-161.98,1
181,8.41,-220.78,-365.04,1
182,8.43,-153.94,-251.41,1
183,8.44,-227.89,-306.57,1
184,8.45,-119.52,-430.45,1
185,8.47,-96.73,53.37,1
186,8.48,-55.27,-202.78,1
187,8.49,155.81,-229.58,1
188,8.51,180.4,-53.21,1
189,8.52,51.69,-536.43,1
190,8.53,162.58,-182.98,1
191,8.55,52.13,-318.97,1
192,8.56,45.64,-17.53,1
193,8.57,95.38,-92.91,1
194,8.59,205.21,-77.29,1
195,8.6,-162.74,-63.17,1
196,8.61,58.94,315.47,1
197,8.63,-50.88,346.39,1
198,8.64,-181.26,-8.19,1
199,8.65,-48.33,-206.53,1
200,8.67,142.4,266.18,1
201,8.68,-61.58,407.76,1
202,8.69,-5.65,40.96,1
203,8.71,-179.11,158.01,1
204,8.72,-51.16,114.45,1
205,8.73,-45.13,455.61,1
206,8.75,160.76,25.77,1
207,8.76,271.74,37.55,1
208,8.77,40.55,578.87,1
209,8.79,94.86,326.88,1
210,8.8,63.55,227.18,1
211,8.81,-73.5,407.64,1
212,8.83,178.64,-70.95,1
213,8.84,-27.92,-309.62,1
214,8.85,79.05,37.27,1
215,8.87,26.13,350.14,1
216,8.88,-26.83,-273.75,1
217,8.89,-130.08,-44.6,1
218,8.91,-26.84,58.13,1
219,8.92,-15.56,-368.12,1
220,8.93,-68.16,184.0,1
221,8.95,33.96,280.3,1
222,8.96,-191.29,-50.5,1
223,8.97,-42.61,-69.08,1
224,8.99,56.09,-123.66,1
225,9.0,77.23,-292.73,1
226,9.01,-75.65,59.43,1
227,9.03,34.51,-385.96,1
228,9.04,22.26,-109.43,1
229,9.05,2.48,53.58,1
230,9.07,-77.76,227.13,1
231,9.08,-117.16,106.6,1
232,9.09,-96.56,257.48,1
233,9.11,-48.75,43.18,1
234,9.12,4.77,84.42,1
235,9.13,19.6,57.61,1
236,9.15,51.83,-105.78,1
237,9.16,99.04,-170.78,1
238,9.17,105.84,-231.38,1
239,9.19,118.14,-178.05,1
240,9.2,126.73,-123.95,1
241,9.21,124.88,-54.32,1
242,9.23,118.33,-35.48,1
243,9.24,83.96,6.84,1
244,9.25,92.4,29.3,1
245,9.27,65.42,63.72,1
246,9.28,60.5,33.57,1
247,9.29,36.76,40.27,1
248,9.31,16.54,47.94,1
249,9.32,-1.37,27.12,1
250,9.33,-6.64,5.53,1
251,9.35,-1.67,22.21,1
252,9.36,-28.12,19.81,1
253,9.37,-21.62,29.39,1
254,9.39,-22.07,3.29,1
255,9.4,-41.23,-4.66,1
256,9.41,-49.39,17.8,1
257,9.43,-40.89,-6.29,1
258,9.44,-51.42,-19.01,1
259,9.45,-44.29,-38.44,1
260,9.47,-74.13,-54.04,1
261,9.48,-64.06,-44.1,1
262,9.49,-62.02,-72.79,1
263,9.51,-71.96,-44.29,1
264,9.52,-54.35,-16.83,1
265,9.53,-44.36,-35.87,1
266,9.55,-45.61,-51.77,1
267,9.56,-35.5,-64.91,1
268,9.57,-36.49,-25.26,1
269,9.59,-37.85,-10.99,1
270,9.6,-39.77,-44.96,1
271,9.61,-35.15,-72.82,1
272,9.63,-22.23,-36.76,1
273,9.64,-23.17,-42.43,1
274,9.65,-23.52,-54.38,1
275,9.67,-9.78,-38.69,1
276,9.68,-17.72,-21.11,1
277,9.69,-13.1,-56.64,1
278,9.71,-5.52,2.22,1
279,9.72,-14.72,-21.18,1
280,9.73,9.11,-25.13,1
281,9.75,4.71,-27.39,1
282,9.76,-6.2,7.98,1
283,9.77,-5.23,7.7,1
284,9.79,-3.38,-6.11,1
285,9.8,2.06,36.4,1
286,9.81,6.64,43.8,1
287,9.83,1.98,31.02,1
288,9.84,18.03,13.5,1
289,9.85,8.72,36.47,1
290,9.87,-1.0,16.94,1
291,9.88,2.31,62.75,1
292,9.89,14.5,4.48,1
293,9.91,21.52,56.71,1
294,9.92,19.85,54.29,1
295,9.93,7.75,43.26,1
296,9.95,18.94,42.92,1
297,9.96,19.86,46.27,1
298,9.97,21.65,48.09,1
299,9.99,18.24,55.62,1
300,10.0,14.06,22.68,1
301,10.01,-3.43,8.64,1
302,10.03,16.65,20.07,1
303,10.04,12.41,24.68,1
304,10.05,30.53,56.65,1
305,10.07,19.46,21.37,1
306,10.08,24.58,20.37,1
307,10.09,44.66,49.92,1
308,10.11,1.78,11.39,1
309,10.12,22.65,19.08,1
310,10.13,17.91,43.27,1
311,10.15,2.09,85.4,1
312,10.16,-1.75,52.36,1
313,10.17,-8.85,147.98,1
314,10.19,-17.27,259.46,1
315,10.2,-39.92,189.97,1
316,10.21,119.74,-152.88,1
317,10.23,95.98,47.03,1
318,10.24,72.81,-118.77,1
319,10.25,55.87,-131.4,1
320,10.27,53.54,337.01,1
321,10.28,211.81,61.03,1
322,10.29,51.24,129.83,1
323,10.31,67.33,-337.25,1
324,10.32,67.96,-642.33,1
325,10.33,-209.44,-92.57,1
326,10.35,-27.67,142.92,1
327,10.36,-34.8,-319.05,1
328,10.37,14.69,-333.95,1
329,10.39,-249.5,207.06,1
330,10.4,-94.87,-166.84,1
331,10.41,-81.82,-136.07,1
332,10.43,-160.0,-275.88,1
333,10.44,96.96,237.72,1
334,10.45,-251.61,-60.59,1
335,10.47,-125.2,-250.66,1
336,10.48,69.45,-6.49,1
337,10.49,-143.59,-65.91,1
338,10.51,-54.04,274.96,1
339,10.52,-72.53,269.48,1
340,10.53,-127.6,213.84,1
341,10.55,-134.93,123.71,1
342,10.56,75.85,-45.4,1
343,10.57,69.9,163.04,1
344,10.59,-63.8,-242.99,1
345,10.6,138.2,-90.85,1
346,10.61,-20.36,-430.35,1
347,10.63,-112.47,-229.88,1
348,10.64,37.23,144.15,1
349,10.65,0.8,318.37,1
350,10.67,219.58,139.74,1
351,10.68,62.11,91.72,1
352,10.69,14.33,-283.84,1
353,10.71,48.91,-78.77,1
354,10.72,398.94,-137.2,1
355,10.73,-90.42,189.53,1
356,10.75,81.07,240.11,1
357,10.76,176.56,309.98,1
358,10.77,-18.76,-87.14,1
359,10.79,28.43,-461.95,1
360,10.8,83.23,37.7,1
361,10.81,109.15,110.52,1
362,10.83,-108.13,210.19,1
363,10.84,93.56,-130.49,1
364,10.85,-157.81,348.3,1
365,10.87,96.51,-259.99,1
366,10.88,10.62,241.81,1
367,10.89,45.11,161.99,1
368,10.91,-16.87,24.32,1
369,10.92,28.55,-143.06,1
370,10.93,12.07,-169.42,1
371,10.95,86.53,-194.24,1
372,10.96,-124.95,67.49,1
373,10.97,-88.32,62.68,1
374,10.99,-22.89,-93.39,1
375,11.0,-23.26,-125.52,1
376,11.01,-55.73,-124.59,1
377,11.03,-55.63,39.78,1
378,11.04,-126.2,71.57,1
379,11.05,-93.56,138.02,1
380,11.07,-82.63,298.29,1
381,11.08,-87.54,185.15,1
382,11.09,-7.14,162.02,1
383,11.11,24.87,41.69,1
384,11.12,1.7,153.6,1
385,11.13,54.87,-12.37,1
386,11.15,43.73,-8.2,1
387,11.16,56.23,-41.05,1
388,11.17,41.91,2.82,1
389,11.19,57.48,22.69,1
390,11.2,40.92,23.95,1
391,11.21,51.85,12.37,1
392,11.23,44.62,61.89,1
393,11.24,51.57,20.46,1
394,11.25,22.54,44.43,1
395,11.27,23.32,17.78,1
396,11.28,15.89,27.25,1
397,11.29,11.71,7.15,1
398,11.31,-9.51,-8.92,1
399,11.32,-6.62,-23.82,1
400,11.33,-5.37,-17.59,1
401,11.35,-11.11,-27.74,1
402,11.36,-18.21,-33.18,1
403,11.37,-30.32,-33.89,1
404,11.39,-24.52,-53.21,1
405,11.4,-30.78,-64.39,1
406,11.41,-35.22,-67.29,1
407,11.43,-28.38,-31.24,1
408,11.44,-30.06,-67.71,1
409,11.45,-28.0,-62.63,1
410,11.47,-36.85,-87.29,1
411,11.48,-34.45,-60.64,1
412,11.49,-24.71,-71.55,1
413,11.51,-35.69,-53.29,1
414,11.52,-40.67,-57.38,1
415,11.53,-28.54,-70.21,1
416,11.55,-7.91,-51.72,1
417,11.56,-16.32,-21.07,1
418,11.57,-11.18,-50.0,1
419,11.59,-11.16,-53.44,1
420,11.6,-27.5,-32.43,1
421,11.61,-8.03,-34.03,1
422,11.63,-2.23,-6.92,1
423,11.64,-17.2,-22.73,1
424,11.65,3.65,-42.99,1
425,11.67,-0.69,-25.63,1
426,11.68,-1.35,-16.38,1
427,11.69,-4.61,-14.26,1
428,11.71,8.64,-0.11,1
429,11.72,7.22,9.94,1
430,11.73,14.99,19.05,1
431,11.75,11.65,-17.45,1
432,11.76,12.84,-5.77,1
433,11.77,5.98,10.4,1
434,11.79,8.18,-4.58,1
435,11.8,19.01,21.07,1
436,11.81,25.43,14.31,1
437,11.83,15.78,25.69,1
438,11.84,6.28,23.91,1
439,11.85,11.86,45.7,1
440,11.87,1.37,28.42,1
441,11.88,21.79,21.01,1
442,11.89,16.29,25.03,1
443,11.91,18.83,37.72,1
444,11.92,6.29,35.88,1
445,11.93,25.53,3.01,1
446,11.95,12.83,30.89,1
447,11.96,15.93,3.25,1
448,11.97,-3.24,30.68,1
449,11.99,13.39,31.31,1
450,12.0,-0.1,33.17,1
451,12.01,-0.4,22.36,1
452,12.03,4.11,12.79,1
453,12.04,3.02,7.94,1
454,12.05,6.83,11.81,1
455,12.07,6.96,7.39,1
456,12.08,14.1,8.06,1
457,12.09,5.44,3.13,1
458,12.11,7.69,12.16,1
459,12.12,5.85,23.45,1
460,12.13,4.16,47.32,1
461,12.15,24.47,97.17,1
462,12.16,-13.68,304.86,1
463,12.17,-216.4,421.53,1
464,12.19,-87.31,288.74,1
465,12.2,173.39,104.71,1
466,12.21,38.5,-231.42,1
467,12.23,287.88,-103.89,1
468,12.24,229.78,247.75,1
469,12.25,-8.84,65.81,1
470,12.27,142.55,-17.33,1
471,12.28,101.38,-231.68,1
472,12.29,26.41,-169.99,1
473,12.31,-128.2,-291.71,1
474,12.32,-253.81,95.19,1
475,12.33,138.29,-271.83,1
476,12.35,-109.25,-630.52,1
477,12.36,-255.62,-641.24,1
478,12.37,43.17,-466.1,1
479,12.39,-312.58,-190.89,1
480,12.4,-66.38,-391.66,1
481,12.41,-187.64,54.49,1
482,12.43,-99.49,-37.94,1
483,12.44,96.42,456.14,1
484,12.45,-184.58,279.24,1
485,12.47,97.44,-28.25,1
486,12.48,121.45,-310.01,1
487,12.49,-125.5,188.83,1
488,12.51,239.53,250.33,1
489,12.52,173.77,49.2,1
490,12.53,-0.69,24.28,1
491,12.55,-43.89,16.61,1
492,12.56,-185.96,-137.5,1
493,12.57,-110.02,287.62,1
494,12.59,-182.3,251.0,1
495,12.6,179.82,240.11,1
496,12.61,139.13,198.48,1
497,12.63,5.26,132.25,1
498,12.64,-20.96,361.01,1
499,12.65,110.73,32.98,1
500,12.67,159.56,530.99,1
501,12.68,206.91,294.07,1
502,12.69,-0.65,68.03,1
503,12.71,-26.52,181.54,1
504,12.72,-134.27,292.21,1
505,12.73,202.71,7.73,1
506,12.75,43.32,-129.08,1
507,12.76,72.44,-88.67,1
508,12.77,28.77,-138.56,1
509,12.79,95.42,81.39,1
510,12.8,-103.59,-335.21,1
511,12.81,-46.36,-41.91,1
512,12.83,-197.13,-159.37,1
513,12.84,-219.38,-195.31,1
514,12.85,-90.63,-365.06,1
515,12.87,32.07,-69.61,1
516,12.88,-117.04,-25.22,1
517,12.89,-186.17,117.94,1
518,12.91,18.74,-198.07,1
519,12.92,44.48,-309.18,1
520,12.93,40.87,-192.23,1
521,12.95,-3.16,207.89,1
522,12.96,102.35,-281.21,1
523,12.97,3.64,-310.64,1
524,12.99,32.68,20.18,1
525,13.0,-150.97,33.28,1
526,13.01,-1.9,-299.26,1
527,13.03,-146.95,105.48,1
528,13.04,32.28,-205.05,1
529,13.05,61.38,-212.44,1
530,13.07,84.51,-168.0,1
531,13.08,-3.1,-203.58,1
532,13.09,5.12,-129.08,1
533,13.11,-53.81,131.17,1
534,13.12,-21.14,214.91,1
535,13.13,12.55,384.11,1
536,13.15,29.79,174.19,1
537,13.16,60.64,-44.1,1
538,13.17,92.03,53.3,1
539,13.19,99.43,31.79,1
540,13.2,97.0,94.04,1
541,13.21,110.71,103.03,1
542,13.23,102.03,52.95,1
543,13.24,84.09,82.2,1
544,13.25,109.17,143.57,1
545,13.27,91.72,150.52,1
546,13.28,73.46,148.8,1
547,13.29,73.88,188.9,1
548,13.31,49.63,209.29,1
549,13.32,25.76,142.34,1
550,13.33,17.99,195.99,1
551,13.35,4.05,115.77,1
552,13.36,-4.79,135.52,1
553,13.37,-23.33,116.45,1
554,13.39,-24.65,75.81,1
555,13.4,-48.69,66.59,1
556,13.41,-55.63,33.91,1
557,13.43,-66.63,-6.84,1
558,13.44,-51.56,-12.34,1
559,13.45,-51.22,-37.14,1
560,13.47,-43.76,-6.66,1
561,13.48,-33.01,-43.47,1
562,13.49,-34.44,-54.6,1
563,13.51,-53.14,-70.79,1
564,13.52,-50.78,-92.28,1
565,13.53,-42.27,-101.0,1
566,13.55,-45.47,-87.81,1
567,13.56,-45.79,-86.04,1
568,13.57,-26.61,-120.4,1
569,13.59,-48.17,-115.77,1
570,13.6,-49.12,-77.37,1
571,13.61,-40.32,-93.64,1
572,13.63,-42.45,-92.52,1
573,13.64,-46.53,-86.51,1
574,13.65,-32.12,-72.1,1
575,13.67,-9.97,-65.38,1
576,13.68,-19.86,-80.0,1
577,13.69,-30.17,-75.32,1
578,13.71,-20.54,-73.57,1
579,13.72,-23.99,-47.73,1
580,13.73,-22.14,-47.92,1
581,13.75,-6.42,-73.12,1
582,13.76,6.77,-26.48,1
583,13.77,2.46,-49.05,1
584,13.79,-21.56,-17.45,1
585,13.8,-12.82,-22.3,1
586,13.81,11.82,-22.7,1
587,13.83,5.96,-33.11,1
588,13.84,14.28,9.57,1
589,13.85,5.82,-1.62,1
590,13.87,18.08,-16.21,1
591,13.88,2.52,6.54,1
592,13.89,24.79,27.35,1
593,13.91,16.48,24.79,1
594,13.92,21.79,7.14,1
595,13.93,21.05,21.78,1
596,13.95,28.17,39.87,1
597,13.96,19.72,20.68,1
598,13.97,18.07,41.59,1
599,13.99,15.38,44.88,1
600,14.0,17.24,39.79,1
601,14.01,1.72,45.87,1
602,14.03,25.64,30.76,1
603,14.04,22.64,32.75,1
604,14.05,30.48,14.43,1
605,14.07,38.51,70.45,1
606,14.08,18.82,45.0,1
607,14.09,14.76,45.43,1
608,14.11,26.75,30.7,1
609,14.12,4.54,36.42,1
610,14.13,1.31,51.68,1
611,14.15,11.48,64.5,1
612,14.16,0.69,71.28,1
613,14.17,65.51,196.29,1
614,14.19,-168.63,315.69,1
615,14.2,-154.65,74.65,1
616,14.21,123.56,-214.06,1
617,14.23,27.26,-4.21,1
618,14.24,226.81,75.4,1
619,14.25,231.46,169.06,1
620,14.27,99.88,83.37,1
621,14.28,9.59,97.29,1
622,14.29,258.3,-19.29,1
623,14.31,-75.32,-495.7,1
624,14.32,-49.34,-414.73,1
625,14.33,-66.11,-514.85,1
626,14.35,-168.6,-130.47,1
627,14.36,-36.94,-18.82,1
628,14.37,131.02,52.3,1
629,14.39,-306.29,-391.56,1
630,14.4,-79.45,-1.13,1
631,14.41,-71.38,-108.73,1
632,14.43,-241.92,-2.7,1
633,14.44,-204.96,402.43,1
634,14.45,-13.09,67.11,1
635,14.47,-74.3,149.81,1
636,14.48,37.39,-152.63,1
637,14.49,66.71,19.13,1
638,14.51,-97.6,-123.81,1
639,14.52,134.02,90.86,1
640,14.53,98.24,56.88,1
641,14.55,-2.8,148.0,1
642,14.56,80.29,280.82,1
643,14.57,15.79,461.58,1
644,14.59,108.24,255.19,1
645,14.6,-73.56,-33.93,1
646,14.61,8.7,362.97,1
647,14.63,-284.51,-193.33,1
648,14.64,92.36,180.15,1
649,14.65,-63.69,-203.12,1
650,14.67,-283.16,8.15,1
651,14.68,176.41,83.57,1
652,14.69,135.09,250.88,1
653,14.71,-64.01,-296.05,1
654,14.72,179.04,-281.87,1
655,14.73,-37.06,-144.53,1
656,14.75,-225.05,-451.63,1
657,14.76,247.26,82.54,1
658,14.77,195.21,372.53,1
659,14.79,291.88,71.74,1
660,14.8,-50.52,-11.75,1
661,14.81,8.4,133.19,1
662,14.83,-207.12,207.96,1
663,14.84,-18.63,-155.54,1
664,14.85,54.42,-209.96,1
665,14.87,228.33,148.77,1
666,14.88,-161.26,-88.4,1
667,14.89,211.65,-323.56,1
668,14.91,-342.17,-259.59,1
669,14.92,-116.11,-441.21,1
670,14.93,52.85,-85.67,1
671,14.95,-109.53,-228.96,1
672,14.96,-33.68,24.56,1
673,14.97,-66.49,-53.11,1
674,14.99,60.02,-56.85,1
675,15.0,-67.22,-117.08,1
676,15.01,83.34,18.77,1
677,15.03,95.33,-17.2,1
678,15.04,92.82,119.69,1
679,15.05,97.07,229.94,1
680,15.07,80.57,298.29,1
681,15.08,106.99,252.25,1
682,15.09,79.41,24.3,1
683,15.11,33.17,-65.47,1
684,15.12,35.72,-14.05,1
685,15.13,17.99,-60.34,1
686,15.15,-2.42,34.88,1
687,15.16,-13.63,9.87,1
688,15.17,2.15,13.17,1
689,15.19,-24.78,23.9,1
690,15.2,-13.64,76.1,1
691,15.21,7.15,134.51,1
692,15.23,-9.64,110.12,1
693,15.24,-12.61,81.99,1
694,15.25,-11.32,46.96,1
695,15.27,-15.29,62.03,1
696,15.28,7.79,79.07,1
697,15.29,3.13,67.89,1
698,15.31,-9.89,38.79,1
699,15.32,-14.42,41.33,1
700,15.33,-7.02,35.83,1
701,15.35,-18.86,31.16,1
702,15.36,-26.69,17.21,1
703,15.37,-26.19,30.16,1
704,15.39,-37.89,-6.39,1
705,15.4,-38.78,-14.26,1
706,15.41,-40.5,-27.08,1
707,15.43,-36.49,-10.05,1
708,15.44,-43.33,-22.09,1
709,15.45,-34.41,-47.64,1
710,15.47,-44.31,-47.88,1
711,15.48,-24.37,-48.38,1
712,15.49,-41.65,-30.98,1
713,15.51,-29.9,-32.74,1
714,15.52,-22.87,-44.07,1
715,15.53,-34.73,-51.45,1
716,15.55,-16.74,-49.86,1
717,15.56,-6.88,-50.01,1
718,15.57,-26.72,-32.42,1
719,15.59,-5.1,-38.56,1
720,15.6,-13.48,-34.87,1
721,15.61,-2.25,-14.45,1
722,15.63,-15.85,-20.08,1
723,15.64,-8.58,8.26,1
724,15.65,-0.85,-30.79,1
725,15.67,-5.27,-34.69,1
726,15.68,6.12,-6.97,1
727,15.69,-0.6,-29.85,1
728,15.71,-4.48,-36.12,1
729,15.72,-2.01,-19.7,1
730,15.73,2.23,-22.52,1
731,15.75,16.22,7.65,1
732,15.76,7.28,-5.87,1
733,15.77,11.44,3.79,1
734,15.79,12.61,-19.07,1
735,15.8,13.39,-8.25,1
736,15.81,4.13,-20.15,1
737,15.83,9.9,-21.81,1
738,15.84,17.64,24.22,1
739,15.85,18.73,-1.86,1
740,15.87,19.45,-13.68,1
741,15.88,23.48,29.42,1
742,15.89,28.28,-8.54,1
743,15.91,20.85,35.75,1
744,15.92,17.2,25.91,1
745,15.93,23.3,-1.36,1
746,15.95,21.15,-6.18,1
747,15.96,15.73,27.99,1
748,15.97,27.41,-7.13,1
749,15.99,11.96,18.65,1
750,16.0,4.53,17.13,1
751,16.01,21.19,12.05,1
752,16.03,-10.27,18.4,1
753,16.04,-4.92,-6.97,1
754,16.05,18.1,2.33,1
755,16.07,-18.79,10.99,1
756,16.08,12.74,21.68,1
757,16.09,10.08,42.88,1
758,16.11,12.2,53.99,1
759,16.12,29.97,61.12,1
760,16.13,88.49,322.02,1
761,16.15,-49.67,385.48,1
762,16.16,-4.55,268.78,1
763,16.17,58.56,215.53,1
764,16.19,-110.82,-184.43,1
765,16.2,217.81,-676.42,1
766,16.21,268.47,-14.08,1
767,16.23,58.99,62.54,1
768,16.24,141.84,86.01,1
769,16.25,131.58,-14.34,1
770,16.27,-46.27,-539.36,1
771,16.28,-257.09,-385.46,1
772,16.29,-15.98,52.6,1
773,16.31,-26.52,-50.08,1
774,16.32,-315.85,152.15,1
775,16.33,-177.47,-528.7,1
776,16.35,-8.83,-383.8,1
777,16.36,-115.58,-267.79,1
778,16.37,-37.79,-64.42,1
779,16.39,-64.32,314.9,1
780,16.4,-175.26,65.93,1
781,16.41,-12.59,266.47,1
782,16.42,-160.65,-65.5,1
783,16.44,-15.45,134.26,1
784,16.45,-140.44,-67.25,1
785,16.47,-232.03,204.18,1
786,16.48,115.69,415.52,1
787,16.49,110.94,262.86,1
788,16.51,196.53,188.56,1
789,16.52,-26.54,232.69,1
790,16.53,-159.04,-361.38,1
791,16.55,17.92,-238.37,1
792,16.56,-3.44,-175.73,1
793,16.57,25.8,-197.47,1
794,16.59,137.23,11.74,1
795,16.6,-46.01,629.22,1
796,16.61,-26.04,125.97,1
797,16.63,307.93,20.13,1
798,16.64,-179.0,-119.78,1
799,16.65,17.99,6.13,1
800,16.67,-4.45,-478.6,1
801,16.68,-27.36,0.86,1
802,16.69,132.26,433.88,1
803,16.71,85.06,353.04,1
804,16.72,118.07,-3.49,1
805,16.73,35.83,-295.44,1
806,16.75,51.96,63.96,1
807,16.76,281.44,-20.96,1
808,16.77,319.73,-81.26,1
809,16.79,-34.32,-14.13,1
810,16.8,222.2,250.12,1
811,16.81,-177.55,87.22,1
812,16.83,119.44,-139.96,1
813,16.84,196.75,-317.62,1
814,16.85,-190.81,81.04,1
815,16.87,-62.38,102.9,1
816,16.88,-99.59,-139.12,1
817,16.89,-102.27,651.06,1
818,16.91,-98.78,49.96,1
819,16.92,21.55,-249.21,1
820,16.93,-41.8,-76.96,1
821,16.95,-171.17,-57.12,1
822,16.96,-23.97,-128.61,1
823,16.97,-197.5,-65.87,1
824,16.99,50.79,-113.18,1
825,17.0,-65.22,-120.41,1
826,17.01,-50.5,-156.61,1
827,17.03,-17.06,-30.6,1
828,17.04,-82.21,3.27,1
829,17.05,-180.33,295.45,1
830,17.06,-77.67,377.93,1
831,17.08,-92.53,261.51,1
832,17.09,4.76,55.6,1
833,17.11,22.47,-18.92,1
834,17.12,49.08,-72.54,1
835,17.13,47.94,-241.85,1
836,17.15,55.24,-277.92,1
837,17.16,112.64,-233.39,1
838,17.17,77.27,-179.64,1
839,17.19,128.48,-110.54,1
840,17.2,102.03,-48.03,1
841,17.21,109.1,-16.59,1
842,17.23,89.55,6.52,1
843,17.24,69.34,30.03,1
844,17.25,62.06,83.62,1
845,17.27,64.74,76.27,1
846,17.28,57.9,32.97,1
847,17.29,13.32,33.5,1
848,17.31,6.3,40.71,1
849,17.32,-4.52,-21.26,1
850,17.33,0.05,14.68,1
851,17.35,-1.34,22.03,1
852,17.36,-6.64,23.32,1
853,17.37,-27.51,40.26,1
854,17.39,-22.81,-18.16,1
855,17.4,-27.89,22.86,1
856,17.41,-36.51,63.3,1
857,17.43,-52.29,-25.38,1
858,17.44,-43.56,-10.37,1
859,17.45,-34.61,-16.08,1
860,17.47,-47.58,5.15,1
861,17.48,-31.12,-3.57,1
862,17.49,-31.21,-32.54,1
863,17.51,-32.01,3.28,1
864,17.52,-33.17,-13.32,1
865,17.53,-22.28,-7.09,1
866,17.55,-57.44,-13.68,1
867,17.56,-36.4,-7.88,1
868,17.57,-35.85,-19.25,1
869,17.59,-29.65,-20.07,1
870,17.6,-42.16,-0.41,1
871,17.61,-27.26,-22.06,1
872,17.63,-24.1,-13.71,1
873,17.64,-19.45,-19.34,1
874,17.65,0.81,-2.48,1
875,17.67,-20.66,-23.13,1
876,17.68,-12.88,-16.75,1
877,17.69,-4.28,-2.6,1
878,17.7,-3.85,-13.92,1
879,17.72,-3.18,61.86,1
880,17.73,6.1,6.46,1
881,17.75,-7.75,6.5,1
882,17.76,-2.69,23.5,1
883,17.77,-3.19,57.52,1
884,17.79,-3.87,22.75,1
885,17.8,10.78,8.89,1
886,17.81,-2.38,20.57,1
887,17.83,9.8,1.42,1
888,17.84,-13.59,28.81,1
889,17.85,2.89,11.3,1
890,17.87,6.55,30.08,1
891,17.88,23.18,-11.75,1
892,17.89,13.03,-33.06,1
893,17.91,12.11,69.9,1
894,17.92,12.74,17.95,1
895,17.93,16.59,-19.61,1
896,17.95,10.03,-12.74,1
897,17.96,10.72,9.75,1
898,17.97,10.0,53.11,1
899,17.99,23.04,12.05,1
900,18.0,31.98,-9.36,1
901,18.01,21.68,22.18,1
902,18.03,27.46,-2.87,1
903,18.04,-4.3,-4.95,1
904,18.05,5.08,0.3,1
905,18.07,7.17,-28.85,1
906,18.08,43.81,-4.34,1
907,18.09,25.84,16.12,1
908,18.11,26.84,-26.62,1
909,18.12,40.69,75.22,1
910,18.13,56.22,263.16,1
911,18.15,64.41,332.06,1
912,18.16,213.27,40.45,1
913,18.17,58.46,79.86,1
914,18.19,273.91,101.09,1
915,18.2,-79.27,-212.91,1
916,18.21,45.28,333.87,1
917,18.23,114.5,8.43,1
918,18.24,53.73,-82.49,1
919,18.25,-314.85,-273.93,1
920,18.27,-29.64,-493.21,1
921,18.28,-208.06,-126.84,1
922,18.29,-318.67,-146.42,1
923,18.31,-476.96,-76.86,1
924,18.32,-343.79,-30.23,1
925,18.33,-174.97,124.21,1
926,18.34,-118.96,-172.27,1
927,18.36,151.54,-480.01,1
928,18.37,-78.31,15.26,1
929,18.39,182.37,-400.55,1
930,18.4,231.57,176.35,1
931,18.41,65.11,-117.0,1
932,18.43,-64.54,-132.82,1
933,18.44,158.38,146.03,1
934,18.45,186.09,48.42,1
935,18.47,16.53,-223.78,1
936,18.48,78.62,-12.04,1
937,18.49,130.78,279.38,1
938,18.51,194.64,-161.01,1
939,18.52,121.65,-208.47,1
940,18.53,-28.64,-121.2,1
941,18.55,166.09,-39.97,1
942,18.56,107.57,328.92,1
943,18.57,217.56,246.84,1
944,18.59,21.76,368.09,1
945,18.6,-16.27,-143.0,1
946,18.61,-21.53,627.59,1
947,18.63,-146.03,176.15,1
948,18.64,-232.67,336.13,1
949,18.65,-16.56,-99.16,1
950,18.67,-68.09,-169.1,1
951,18.68,-96.7,-114.57,1
952,18.69,-55.86,132.41,1
953,18.71,-250.94,209.4,1
954,18.72,-168.25,105.95,1
955,18.73,23.32,124.92,1
956,18.75,-160.19,232.39,1
957,18.76,-41.23,-200.33,1
958,18.77,411.66,-348.1,1
959,18.79,-27.15,165.44,1
960,18.8,104.81,182.6,1
961,18.81,-53.7,141.38,1
962,18.83,19.08,-83.97,1
963,18.84,-71.62,121.65,1
964,18.85,54.56,11.5,1
965,18.87,-163.48,111.46,1
966,18.88,-31.87,-151.44,1
967,18.89,-112.35,50.66,1
968,18.91,-22.97,-16.8,1
969,18.92,-187.44,-121.51,1
970,18.93,423.7,-707.86,1
971,18.95,112.06,-251.08,1
972,18.96,125.03,-374.67,1
973,18.97,-66.09,-177.21,1
974,18.98,-11.61,-45.91,1
975,19.0,35.39,1.85,1
976,19.01,80.21,-47.81,1
977,19.02,29.58,-54.43,1
978,19.04,37.83,54.41,1
979,19.05,-17.13,191.78,1
980,19.07,-22.56,188.87,1
981,19.08,-93.94,435.35,1
982,19.09,-24.57,282.23,1
983,19.11,-22.88,98.73,1
984,19.12,-4.06,-67.73,1
985,19.13,14.91,-133.77,1
986,19.15,5.63,-215.12,1
987,19.16,7.39,-298.52,1
988,19.17,26.59,-218.35,1
989,19.19,17.32,-67.51,1
990,19.2,-6.48,-28.33,1
991,19.21,22.02,17.06,1
992,19.23,25.24,105.78,1
993,19.24,35.42,152.16,1
994,19.25,27.95,133.83,1
995,19.27,1.26,113.29,1
996,19.28,4.16,136.85,1
997,19.29,-9.39,69.9,1
998,19.31,10.3,149.27,1
999,19.32,-13.55,119.94,1
1000,19.33,-28.44,76.35,1
1001,19.35,-7.14,43.04,1
1002,19.36,-15.51,51.13,1
1003,19.37,-11.11,65.3,1
1004,19.39,-25.57,33.94,1
1005,19.4,6.38,19.71,1
1006,19.41,-29.09,9.72,1
1007,19.43,-23.73,-38.23,1
1008,19.44,-20.75,-36.33,1
1009,19.45,-11.55,-47.68,1
1010,19.47,-9.46,-52.5,1
1011,19.48,-11.37,-61.64,1
1012,19.49,-15.77,-30.96,1
1013,19.51,-14.07,-65.44,1
1014,19.52,-19.74,-93.8,1
1015,19.53,-31.89,-50.36,1
1016,19.55,-20.87,-61.28,1
1017,19.56,-22.25,-56.48,1
1018,19.57,-2.72,-62.34,1
1019,19.59,-1.79,-42.05,1
1020,19.6,-14.31,-45.71,1
1021,19.61,-8.91,-59.63,1
1022,19.62,-13.05,-47.65,1
1023,19.64,-14.51,-71.62,1
1024,19.65,-5.19,-47.53,1
1025,19.67,-2.41,-18.85,1
1026,19.68,4.04,-41.03,1
1027,19.69,-0.13,-12.62,1
1028,19.71,8.3,-16.44,1
1029,19.72,-10.35,-21.29,1
1030,19.73,-3.97,5.88,1
1031,19.75,16.78,9.42,1
1032,19.76,7.15,2.21,1
1033,19.77,8.7,7.35,1
1034,19.79,1.98,0.98,1
1035,19.8,12.42,13.38,1
1036,19.81,11.35,28.15,1
1037,19.83,2.87,26.19,1
1038,19.84,17.29,17.9,1
1039,19.85,8.9,22.34,1
1040,19.87,25.7,32.8,1
1041,19.88,25.7,25.01,1
1042,19.89,16.68,14.46,1
1043,19.91,5.44,-2.77,1
1044,19.92,7.43,9.94,1
1045,19.93,13.74,-5.46,1
1046,19.95,5.11,22.7,1
1047,19.96,12.7,10.9,1
1048,19.97,12.42,32.53,1
1049,19.99,-17.21,44.41,1
1050,20.0,5.24,34.03,1
1051,20.01,11.25,17.52,1
1052,20.03,3.94,55.96,1
1053,20.04,-5.15,6.5,1
1054,20.05,-9.94,10.16,1
1055,20.07,19.84,7.59,1
1056,20.08,3.33,21.64,1
1057,20.09,0.95,-17.61,1
1058,20.11,16.76,-41.33,1
1059,20.12,-1.15,64.4,1
1060,20.13,-11.93,34.83,1
1061,20.15,42.09,120.06,1
1062,20.16,122.27,143.68,1
1063,20.17,-2.97,150.19,1
1064,20.19,212.82,255.37,1
1065,20.2,-99.87,315.38,1
1066,20.21,132.87,-60.42,1
1067,20.23,-108.45,-453.12,1
1068,20.24,301.62,133.24,1
1069,20.25,42.56,73.99,1
1070,20.26,73.42,-84.99,1
1071,20.28,108.15,-331.81,1
1072,20.29,-154.43,334.92,1
1073,20.3,-146.39,-213.52,1
1074,20.32,-132.33,-515.29,1
1075,20.33,-303.71,-572.5,1
1076,20.35,-148.93,-295.24,1
1077,20.36,-230.71,44.76,1
1078,20.37,52.22,80.05,1
1079,20.39,-313.55,81.76,1
1080,20.4,-233.82,153.94,1
1081,20.41,60.93,-209.49,1
1082,20.43,-177.18,3.77,1
1083,20.44,-215.24,79.61,1
1084,20.45,-88.4,-16.97,1
1085,20.47,147.52,-184.06,1
1086,20.48,-144.83,435.5,1
1087,20.49,156.33,402.69,1
1088,20.51,1.2,23.48,1
1089,20.52,453.34,-341.29,1
1090,20.53,-25.77,-216.99,1
1091,20.55,279.35,-313.18,1
1092,20.56,173.29,41.41,1
1093,20.57,126.65,275.38,1
1094,20.59,-91.18,409.46,1
1095,20.6,136.12,158.39,1
1096,20.61,-36.99,-70.59,1
1097,20.63,174.26,-70.94,1
1098,20.64,210.78,-67.13,1
1099,20.65,162.02,-61.72,1
1100,20.67,-182.97,185.46,1
1101,20.68,-14.73,-194.27,1
1102,20.69,81.22,-106.76,1
1103,20.71,-59.71,-67.23,1
1104,20.72,-30.58,209.24,1
1105,20.73,-64.69,130.71,1
1106,20.75,-81.1,168.29,1
1107,20.76,-109.0,477.94,1
1108,20.77,-256.82,252.57,1
1109,20.79,-31.88,132.88,1
1110,20.8,32.63,67.02,1
1111,20.81,40.75,-189.8,1
1112,20.83,413.9,-284.71,1
1113,20.84,41.26,122.4,1
1114,20.85,-27.56,-25.27,1
1115,20.87,-208.53,-218.72,1
1116,20.88,-231.22,-12.31,1
1117,20.89,226.7,-120.67,1
1118,20.9,100.25,303.78,1
1119,20.92,77.85,84.3,1
1120,20.93,31.54,12.73,1
1121,20.94,-21.08,-280.73,1
1122,20.96,-118.5,79.97,1
1123,20.97,58.06,-152.38,1
1124,20.99,-42.67,9.73,1
1125,21.0,61.47,45.99,1
1126,21.01,78.66,-137.89,1
1127,21.03,84.65,-28.02,1
1128,21.04,-26.54,128.78,1
1129,21.05,-61.56,247.86,1
1130,21.07,-98.19,232.57,1
1131,21.08,-160.27,62.55,1
1132,21.09,-99.5,-90.8,1
1133,21.11,-77.59,-227.05,1
1134,21.12,-36.37,-364.29,1
1135,21.13,-24.41,-331.02,1
1136,21.15,-2.02,-285.9,1
1137,21.16,23.75,-151.36,1
1138,21.17,27.0,-57.91,1
1139,21.19,28.97,-8.74,1
1140,21.2,47.97,48.97,1
1141,21.21,30.29,9.63,1
1142,21.23,17.27,25.53,1
1143,21.24,17.21,33.92,1
1144,21.25,13.88,54.34,1
1145,21.27,14.12,43.92,1
1146,21.28,17.88,17.87,1
1147,21.29,9.81,46.75,1
1148,21.31,30.76,30.81,1
1149,21.32,-2.48,19.32,1
1150,21.33,12.01,19.72,1
1151,21.35,3.75,-9.77,1
1152,21.36,6.01,28.61,1
1153,21.37,-19.74,19.3,1
1154,21.39,-13.44,68.73,1
1155,21.4,-3.87,45.07,1
1156,21.41,-12.32,42.97,1
1157,21.43,-19.23,28.55,1
1158,21.44,-12.72,-1.75,1
1159,21.45,-14.8,10.35,1
1160,21.47,-29.75,26.22,1
1161,21.48,-11.06,39.4,1
1162,21.49,-17.45,13.29,1
1163,21.51,-14.75,-29.45,1
1164,21.52,-10.27,10.26,1
1165,21.53,-16.09,-1.18,1
1166,21.54,-18.92,20.99,1
1167,21.56,-22.33,15.38,1
1168,21.57,-28.41,3.97,1
1169,21.58,5.57,-20.25,1
1170,21.6,0.57,-15.96,1
1171,21.61,3.38,-22.67,1
1172,21.63,4.35,5.49,1
1173,21.64,-8.21,-28.21,1
1174,21.65,2.68,11.03,1
1175,21.67,14.0,-13.44,1
1176,21.68,5.11,2.26,1
1177,21.69,5.92,17.98,1
1178,21.71,4.84,1.43,1
1179,21.72,13.05,-18.48,1
1180,21.73,9.88,17.71,1
1181,21.75,6.12,-9.45,1
1182,21.76,-2.9,6.02,1
1183,21.77,-4.55,-2.63,1
1184,21.79,11.59,8.21,1
1185,21.8,-2.53,-26.19,1
1186,21.81,-2.09,6.53,1
1187,21.83,4.75,-6.38,1
1188,21.84,14.62,-0.36,1
1189,21.85,4.29,16.23,1
1190,21.87,8.84,3.7,1
1191,21.88,3.37,2.08,1
1192,21.89,27.21,22.72,1
1193,21.91,5.34,12.79,1
1194,21.92,20.12,9.07,1
1195,21.93,-4.1,-16.09,1
1196,21.95,-11.22,9.16,1
1197,21.96,-3.35,-6.45,1
1198,21.97,8.44,-25.05,1
1199,21.99,2.47,-3.53,1
1200,22.0,12.0,23.04,1
1201,22.01,4.1,20.45,1
1202,22.03,-0.73,1.9,1
1203,22.04,-21.33,17.46,1
1204,22.05,-16.23,1.33,1
1205,22.07,19.4,17.36,1
1206,22.08,6.8,25.35,1
1207,22.09,10.87,-27.78,1
1208,22.11,-3.63,-12.05,1
1209,22.12,8.38,15.2,1
1210,22.13,1.69,88.29,1
1211,22.15,-13.34,57.13,1
1212,22.16,-21.93,115.55,1
1213,22.17,-267.15,318.97,1
1214,22.18,133.52,201.26,1
1215,22.2,286.1,-157.12,1
1216,22.21,79.21,-195.77,1
1217,22.22,98.61,344.59,1
1218,22.24,189.41,104.4,1
1219,22.25,-165.25,146.86,1
1220,22.26,155.11,-108.02,1
1221,22.28,-23.98,-495.11,1
1222,22.29,151.69,-541.23,1
1223,22.31,-127.32,-340.01,1
1224,22.32,54.75,-10.78,1
1225,22.33,131.57,-141.23,1
1226,22.35,-8.46,-85.52,1
1227,22.36,-268.58,-144.57,1
1228,22.37,27.62,-298.35,1
1229,22.39,-230.45,14.96,1
1230,22.4,47.07,215.29,1
1231,22.41,-390.25,298.55,1
1232,22.43,-181.29,-115.47,1
1233,22.44,-27.18,123.97,1
1234,22.45,-19.58,-68.94,1
1235,22.47,-197.9,-12.6,1
1236,22.48,-135.17,49.2,1
1237,22.49,-48.29,-196.24,1
1238,22.51,45.73,-154.36,1
1239,22.52,140.37,180.96,1
1240,22.53,-77.83,374.23,1
1241,22.55,131.45,244.67,1
1242,22.56,-45.78,-92.23,1
1243,22.57,91.32,-4.43,1
1244,22.59,180.46,290.41,1
1245,22.6,-373.89,105.99,1
1246,22.61,-129.25,-326.65,1
1247,22.63,-10.51,325.96,1
1248,22.64,48.21,180.44,1
1249,22.65,-141.49,-86.68,1
1250,22.67,283.22,-410.04,1
1251,22.68,47.01,-77.41,1
1252,22.69,130.93,372.26,1
1253,22.71,-74.49,319.21,1
1254,22.72,1.49,-25.45,1
1255,22.73,-52.16,-275.02,1
1256,22.75,284.3,-29.02,1
1257,22.76,258.57,100.91,1
1258,22.77,94.24,93.82,1
1259,22.79,16.86,-365.15,1
1260,22.8,69.98,135.03,1
1261,22.81,237.6,132.0,1
1262,22.82,100.18,132.7,1
1263,22.84,143.46,153.29,1
1264,22.85,-91.97,34.0,1
1265,22.86,68.44,16.01,1
1266,22.88,59.95,72.63,1
1267,22.89,-174.31,-111.48,1
1268,22.9,125.86,44.31,1
1269,22.92,43.62,66.97,1
1270,22.93,-123.03,-230.97,1
1271,22.95,-16.43,-176.66,1
1272,22.96,118.25,-289.61,1
1273,22.97,63.58,-134.32,1
1274,22.99,-166.15,-111.85,1
1275,23.0,157.38,-211.3,1
1276,23.01,-205.05,-166.59,1
1277,23.03,-51.26,90.17,1
1278,23.04,-104.63,-221.3,1
1279,23.05,11.1,494.33,1
1280,23.07,-30.45,365.72,1
1281,23.08,-23.86,160.94,1
1282,23.09,3.51,-82.28,1
1283,23.11,-10.75,-235.75,1
1284,23.12,-26.61,-285.12,1
1285,23.13,-44.79,-274.56,1
1286,23.15,-49.83,-191.13,1
1287,23.16,-66.62,-58.56,1
1288,23.17,-35.26,-7.03,1
1289,23.19,-44.42,84.47,1
1290,23.2,-18.89,129.83,1
1291,23.21,-30.68,126.69,1
1292,23.23,-25.97,163.63,1
1293,23.24,-8.03,149.28,1
1294,23.25,-3.29,157.3,1
1295,23.27,3.84,107.41,1
1296,23.28,-0.29,125.59,1
1297,23.29,-0.74,81.97,1
1298,23.31,-31.31,88.25,1
1299,23.32,2.18,118.45,1
1300,23.33,-11.6,72.51,1
1301,23.35,-9.98,44.04,1
1302,23.36,-21.86,101.04,1
1303,23.37,-20.18,56.48,1
1304,23.39,2.23,49.02,1
1305,23.4,-13.97,39.6,1
1306,23.41,-6.93,44.54,1
1307,23.43,3.57,16.36,1
1308,23.44,-28.18,-12.4,1
1309,23.45,-4.57,11.85,1
1310,23.46,-4.49,-11.77,1
1311,23.48,-20.89,-75.59,1
1312,23.49,-10.07,-54.52,1
1313,23.5,-3.17,-53.41,1
1314,23.52,-3.21,-77.12,1
1315,23.53,6.53,-117.1,1
1316,23.54,1.33,-79.24,1
1317,23.56,0.46,-47.91,1
1318,23.57,-0.34,-43.34,1
1319,23.59,-3.31,-22.34,1
1320,23.6,2.46,-69.55,1
1321,23.61,-5.53,-53.23,1
1322,23.63,5.56,-38.11,1
1323,23.64,3.41,-42.12,1
1324,23.65,11.46,-58.04,1
1325,23.67,8.68,-67.31,1
1326,23.68,14.72,-60.75,1
1327,23.69,15.43,-44.18,1
1328,23.71,13.54,-58.51,1
1329,23.72,20.08,-33.68,1
1330,23.73,27.33,-43.03,1
1331,23.75,27.08,-31.16,1
1332,23.76,9.12,-12.37,1
1333,23.77,25.27,-12.03,1
1334,23.79,24.43,-32.02,1
1335,23.8,32.31,-37.48,1
1336,23.81,-7.97,-31.09,1
1337,23.83,4.13,-25.2,1
1338,23.84,9.9,-3.11,1
1339,23.85,5.15,36.74,1
1340,23.87,-6.5,21.95,1
1341,23.88,11.29,4.27,1
1342,23.89,15.74,13.23,1
1343,23.91,3.35,19.03,1
1344,23.92,-1.84,43.69,1
1345,23.93,11.47,-1.19,1
1346,23.95,-1.06,-17.44,1
1347,23.96,23.36,19.48,1
1348,23.97,-2.03,20.81,1
1349,23.99,-6.09,13.1,1
1350,24.0,-3.03,39.51,1
1351,24.01,-1.07,46.2,1
1352,24.03,3.22,-12.96,1
1353,24.04,-10.87,-30.97,1
1354,24.05,29.94,90.15,1
1355,24.07,-20.17,25.3,1
1356,24.08,-10.05,31.28,1
1357,24.09,12.13,70.2,1
1358,24.1,-32.32,91.58,1
1359,24.12,11.58,49.61,1
1360,24.13,-21.15,95.12,1
1361,24.14,-46.23,92.08,1
1362,24.16,-52.77,225.66,1
1363,24.17,-82.92,166.96,1
1364,24.18,68.21,-193.11,1
1365,24.2,287.84,332.52,1
1366,24.21,291.01,156.93,1
1367,24.225,30.4,44.64,1
1368,24.24,306.31,-27.17,1
1369,24.25,133.82,-397.03,1
1370,24.27,-69.46,-378.1,1
1371,24.28,-11.59,307.3,1
1372,24.29,74.27,92.23,1
1373,24.31,-261.47,111.09,1
1374,24.32,-40.56,100.05,1
1375,24.33,-230.87,-99.3,1
1376,24.35,-463.04,-441.74,1
1377,24.36,-134.0,-441.37,1
1378,24.37,-250.26,-46.03,1
1379,24.39,-144.11,-49.22,1
1380,24.4,-44.46,-44.24,1
1381,24.41,-264.35,-59.58,1
1382,24.43,-49.35,90.79,1
1383,24.44,-157.91,-162.23,1
1384,24.45,-0.75,-133.96,1
1385,24.47,40.39,-334.05,1
1386,24.48,44.94,-126.71,1
1387,24.49,137.65,62.74,1
1388,24.51,4.21,-207.75,1
1389,24.52,211.83,-324.54,1
1390,24.53,153.91,-53.24,1
1391,24.55,132.01,172.39,1
1392,24.56,59.63,24.6,1
1393,24.57,110.17,-279.24,1
1394,24.59,35.62,286.0,1
1395,24.6,20.54,417.24,1
1396,24.61,-145.41,-149.11,1
1397,24.63,112.55,152.74,1
1398,24.64,175.44,-21.11,1
1399,24.65,-11.82,292.17,1
1400,24.67,185.78,391.15,1
1401,24.68,-17.35,61.79,1
1402,24.69,81.61,541.81,1
1403,24.71,122.4,-0.46,1
1404,24.72,-67.65,-64.94,1
1405,24.73,-132.63,12.35,1
1406,24.75,92.32,192.89,1
1407,24.76,-11.74,-276.84,1
1408,24.77,123.27,300.04,1
1409,24.78,107.58,434.55,1
1410,24.8,30.1,-115.88,1
1411,24.81,63.55,-298.45,1
1412,24.82,-101.81,-126.04,1
1413,24.84,-7.57,-273.95,1
1414,24.85,-18.81,41.3,1
1415,24.86,55.02,-4.65,1
1416,24.88,-31.24,-178.64,1
1417,24.89,49.68,90.13,1
1418,24.91,-86.18,348.2,1
1419,24.92,-181.05,457.09,1
1420,24.93,-158.84,455.73,1
1421,24.95,-187.68,464.96,1
1422,24.96,-207.76,85.98,1
1423,24.97,-48.22,-201.28,1
1424,24.99,-9.22,-274.44,1
1425,25.0,-1.24,-255.57,1
1426,25.01,32.32,-234.99,1
1427,25.03,51.18,-185.17,1
1428,25.04,86.89,-115.31,1
1429,25.05,83.19,-101.48,1
1430,25.07,84.95,-66.06,1
1431,25.08,57.41,-42.25,1
1432,25.09,81.99,-25.85,1
1433,25.11,68.27,-11.37,1
1434,25.12,40.5,-15.65,1
1435,25.13,25.3,-19.34,1
1436,25.15,27.6,1.83,1
1437,25.16,4.52,-37.87,1
1438,25.17,4.07,-70.68,1
1439,25.19,-7.0,1.54,1
1440,25.2,6.1,-31.75,1
1441,25.21,12.92,-15.39,1
1442,25.23,-1.83,-16.69,1
1443,25.24,-11.33,-15.23,1
1444,25.25,-36.16,-4.91,1
1445,25.27,-32.59,-45.04,1
1446,25.28,-55.02,-37.5,1
1447,25.29,-27.15,-58.26,1
1448,25.31,-42.52,-86.89,1
1449,25.32,-19.25,-78.32,1
1450,25.33,-28.14,-49.09,1
1451,25.35,-28.81,-60.52,1
1452,25.36,-25.99,-56.33,1
1453,25.37,-21.92,-56.81,1
1454,25.38,-23.11,-30.51,1
1455,25.4,-29.88,-46.9,1
1456,25.41,-11.08,-46.65,1
1457,25.42,-16.58,-15.66,1
1458,25.44,-12.18,4.4,1
1459,25.45,-7.02,-27.19,1
1460,25.46,-3.2,-28.42,1
1461,25.48,-10.63,-13.0,1
1462,25.49,-17.38,6.44,1
1463,25.5,-9.08,-7.71,1
1464,25.52,-10.23,-17.83,1
1465,25.53,10.26,8.55,1
1466,25.55,-4.68,4.61,1
1467,25.56,-10.52,23.94,1
1468,25.57,-6.19,-16.09,1
1469,25.59,-1.71,13.49,1
1470,25.6,-8.55,30.07,1
1471,25.61,-16.34,37.77,1
1472,25.63,-2.0,42.21,1
1473,25.64,1.39,44.69,1
1474,25.65,5.35,45.61,1
1475,25.67,5.93,48.83,1
1476,25.68,17.86,34.52,1
1477,25.69,1.76,36.7,1
1478,25.71,18.41,31.23,1
1479,25.72,0.78,46.38,1
1480,25.73,16.06,51.29,1
1481,25.75,13.07,23.31,1
1482,25.76,15.1,43.02,1
1483,25.77,24.25,17.41,1
1484,25.79,25.76,37.29,1
1485,25.8,17.7,31.65,1
1486,25.81,11.76,45.58,1
1487,25.83,17.11,43.22,1
1488,25.84,15.01,17.77,1
1489,25.85,19.43,12.47,1
1490,25.87,7.33,12.3,1
1491,25.88,1.83,42.23,1
1492,25.89,19.56,-17.84,1
1493,25.91,4.5,49.85,1
1494,25.92,21.6,9.98,1
1495,25.93,-6.36,15.93,1
1496,25.95,-14.7,-0.58,1
1497,25.96,4.61,-9.65,1
1498,25.97,9.1,16.68,1
1499,25.99,1.77,12.98,1
1500,26.0,10.5,-3.84,1
1501,26.01,-10.08,23.34,1
1502,26.02,5.61,25.03,1
1503,26.04,-0.26,-4.57,1
1504,26.05,-8.0,-6.91,1
1505,26.06,3.11,-15.37,1
1506,26.08,12.84,-6.87,1
1507,26.09,9.82,9.39,1
1508,26.1,23.51,-37.03,1
1509,26.12,-25.95,-44.18,1
1510,26.13,-104.37,91.37,1
1511,26.14,18.13,199.06,1
1512,26.16,102.55,-176.11,1
1513,26.17,-176.29,367.92,1
1514,26.19,5.48,-236.5,1
1515,26.2,175.56,136.45,1
1516,26.21,182.71,127.93,1
1517,26.23,182.91,-63.6,1
1518,26.24,-65.52,197.5,1
1519,26.25,261.59,-271.26,1
1520,26.27,31.85,-252.23,1
1521,26.28,115.19,-89.4,1
1522,26.29,5.46,-311.07,1
1523,26.31,-68.4,-172.37,1
1524,26.32,-81.49,-30.28,1
1525,26.33,-96.29,-631.09,1
1526,26.35,-489.31,-155.44,1
1527,26.36,-170.11,-120.59,1
1528,26.37,-228.31,239.52,1
1529,26.39,-30.25,144.45,1
1530,26.4,23.04,-27.81,1
1531,26.41,32.45,-405.58,1
1532,26.43,-185.53,-176.94,1
1533,26.44,-102.78,-120.35,1
1534,26.45,50.86,28.42,1
1535,26.47,-58.03,420.24,1
1536,26.48,127.9,327.74,1
1537,26.49,-73.82,169.94,1
1538,26.51,15.93,32.4,1
1539,26.52,-193.97,6.56,1
1540,26.53,131.65,141.05,1
1541,26.55,26.53,34.29,1
1542,26.56,-3.83,372.35,1
1543,26.57,-90.43,405.57,1
1544,26.59,-185.91,201.21,1
1545,26.6,10.62,361.15,1
1546,26.61,140.68,-67.12,1
1547,26.63,-62.9,454.16,1
1548,26.64,220.76,-196.54,1
1549,26.65,112.97,-302.15,1
1550,26.67,-28.34,-261.97,1
1551,26.68,137.66,292.69,1
1552,26.69,135.67,346.82,1
1553,26.7,439.04,208.17,1
1554,26.72,40.94,92.19,1
1555,26.73,-209.53,-314.68,1
1556,26.75,101.76,-381.5,1
1557,26.76,42.76,-348.05,1
1558,26.77,57.73,-93.83,1
1559,26.78,44.2,112.5,1
1560,26.8,71.28,-441.35,1
1561,26.81,58.49,-413.94,1
1562,26.82,102.99,-174.08,1
1563,26.84,-81.48,-158.13,1
1564,26.85,9.89,88.64,1
1565,26.87,-90.05,90.92,1
1566,26.88,-28.23,-15.84,1
1567,26.89,-18.9,19.15,1
1568,26.91,110.05,-112.94,1
1569,26.92,43.82,-168.14,1
1570,26.93,7.08,-272.67,1
1571,26.95,25.25,54.51,1
1572,26.96,-45.97,266.45,1
1573,26.97,-68.57,301.63,1
1574,26.99,-48.77,551.76,1
1575,27.0,-36.1,179.76,1
1576,27.01,-39.91,111.76,1
1577,27.03,-19.22,-94.8,1
1578,27.04,6.95,-148.94,1
1579,27.05,-4.78,-257.5,1
1580,27.07,-13.45,-155.34,1
1581,27.08,-21.11,-93.56,1
1582,27.09,-17.25,-59.91,1
1583,27.11,-20.34,19.88,1
1584,27.12,-10.3,51.83,1
1585,27.13,9.05,49.15,1
1586,27.15,6.56,84.17,1
1587,27.16,-17.04,84.17,1
1588,27.17,-17.48,70.89,1
1589,27.19,-19.79,80.15,1
1590,27.2,-18.65,72.27,1
1591,27.21,-21.27,99.15,1
1592,27.23,-36.64,77.36,1
1593,27.24,-35.63,74.6,1
1594,27.25,-34.83,38.47,1
1595,27.27,-44.83,71.37,1
1596,27.28,-56.67,24.26,1
1597,27.29,-49.31,3.79,1
1598,27.3,-19.0,14.59,1
1599,27.32,-38.96,-14.86,1
1600,27.33,-18.02,-11.86,1
1601,27.34,-15.86,-24.42,1
1602,27.36,-25.08,-14.44,1
1603,27.37,-21.1,-66.7,1
1604,27.38,-15.8,-55.95,1
1605,27.4,-22.74,-51.88,1
1606,27.41,-3.07,-59.39,1
1607,27.42,-15.88,-60.57,1
1608,27.44,-13.29,-55.11,1
1609,27.45,2.11,-50.61,1
1610,27.46,-9.08,-5.53,1
1611,27.48,-0.71,-30.66,1
1612,27.49,7.31,-49.47,1
1613,27.51,10.03,-38.3,1
1614,27.52,9.34,-53.28,1
1615,27.53,3.92,-35.71,1
1616,27.55,12.19,-59.68,1
1617,27.56,19.43,-55.92,1
1618,27.57,27.77,-10.04,1
1619,27.59,15.92,-22.2,1
1620,27.6,15.22,-20.1,1
1621,27.61,27.33,11.07,1
1622,27.63,7.04,-27.94,1
1623,27.64,20.36,-19.09,1
1624,27.65,9.65,-13.59,1
1625,27.67,24.02,-2.36,1
1626,27.68,10.65,18.89,1
1627,27.69,25.22,-3.21,1
1628,27.71,13.63,-8.25,1
1629,27.72,16.67,47.76,1
1630,27.73,19.81,61.26,1
1631,27.75,24.51,26.79,1
1632,27.76,6.08,17.39,1
1633,27.77,16.0,31.31,1
1634,27.79,24.15,29.34,1
1635,27.8,11.15,42.26,1
1636,27.81,13.22,-0.7,1
1637,27.83,-5.21,3.6,1
1638,27.84,12.71,19.4,1
1639,27.85,17.88,25.56,1
1640,27.87,5.43,3.11,1
1641,27.88,1.97,-2.04,1
1642,27.89,11.45,6.04,1
1643,27.91,19.41,34.91,1
1644,27.92,7.31,10.86,1
1645,27.93,3.16,26.61,1
1646,27.94,-11.54,13.05,1
1647,27.96,-10.05,15.76,1
1648,27.97,-0.33,5.97,1
1649,27.98,-4.75,29.95,1
1650,28.0,7.25,23.87,1
1651,28.01,0.39,29.85,1
1652,28.02,-3.47,21.44,1
1653,28.04,-15.35,-21.19,1
1654,28.05,-18.81,13.61,1
1655,28.06,-6.01,-11.94,1
1656,28.08,-3.87,13.82,1
1657,28.09,-3.15,13.49,1
1658,28.1,7.36,-4.48,1
1659,28.12,-0.36,-51.13,1
1660,28.13,-29.43,-4.12,1
1661,28.15,-60.4,335.32,1
1662,28.16,-52.43,358.7,1
1663,28.17,79.67,274.58,1
1664,28.19,-143.01,205.23,1
1665,28.2,275.58,138.55,1
1666,28.21,64.48,72.31,1
1667,28.23,69.95,17.42,1
1668,28.24,79.37,-123.45,1
1669,28.25,82.52,-505.53,1
1670,28.27,37.82,-455.04,1
1671,28.28,-128.15,-48.81,1
1672,28.29,-8.41,-489.99,1
1673,28.31,184.63,-103.33,1
1674,28.32,-30.5,-100.81,1
1675,28.33,-165.7,-21.89,1
1676,28.35,-10.57,-395.23,1
1677,28.36,-169.46,24.08,1
1678,28.37,-125.0,-187.61,1
1679,28.39,63.64,-204.94,1
1680,28.4,-35.39,-52.39,1
1681,28.41,13.83,-442.78,1
1682,28.43,-4.57,-159.5,1
1683,28.44,-295.51,284.44,1
1684,28.45,-9.26,-155.33,1
1685,28.47,-120.08,-109.87,1
1686,28.48,-130.82,-245.95,1
1687,28.49,11.24,140.75,1
1688,28.51,-40.85,136.61,1
1689,28.52,23.01,45.23,1
1690,28.53,101.3,35.3,1
1691,28.55,-176.1,359.25,1
1692,28.56,232.98,401.77,1
1693,28.57,-47.95,362.77,1
1694,28.58,120.25,357.84,1
1695,28.6,42.37,440.51,1
1696,28.61,263.03,100.2,1
1697,28.62,-123.77,-27.4,1
1698,28.64,11.5,421.48,1
1699,28.65,-300.6,-34.23,1
1700,28.67,175.76,98.03,1
1701,28.68,-39.95,35.62,1
1702,28.69,139.37,-363.51,1
1703,28.7,29.3,-83.86,1
1704,28.72,-159.73,-9.05,1
1705,28.73,100.2,-72.93,1
1706,28.75,-8.63,-16.66,1
1707,28.76,-72.98,-350.46,1
1708,28.77,54.39,102.48,1
1709,28.79,3.01,463.73,1
1710,28.8,27.04,210.81,1
1711,28.81,54.64,260.82,1
1712,28.83,-188.12,60.19,1
1713,28.84,130.68,201.72,1
1714,28.85,76.5,-41.4,1
1715,28.87,58.15,-133.02,1
1716,28.88,56.0,-158.62,1
1717,28.89,19.33,-171.25,1
1718,28.91,8.6,-22.58,1
1719,28.92,77.1,-180.39,1
1720,28.93,-16.6,-177.31,1
1721,28.95,10.85,-162.62,1
1722,28.96,-24.26,-57.73,1
1723,28.97,-38.82,121.35,1
1724,28.99,-92.87,117.77,1
1725,29.0,-98.33,213.34,1
1726,29.01,-68.79,137.13,1
1727,29.03,-29.97,-30.85,1
1728,29.04,22.28,-179.08,1
1729,29.05,45.39,-199.49,1
1730,29.07,53.02,-249.77,1
1731,29.08,50.78,-239.05,1
1732,29.09,66.04,-40.46,1
1733,29.11,87.7,-53.89,1
1734,29.12,69.37,24.83,1
1735,29.13,93.67,-33.32,1
1736,29.15,61.84,-13.98,1
1737,29.16,65.48,-33.57,1
1738,29.17,58.26,-12.72,1
1739,29.19,51.42,-30.21,1
1740,29.2,28.23,-1.48,1
1741,29.21,21.96,-2.21,1
1742,29.22,14.3,37.45,1
1743,29.24,10.67,6.15,1
1744,29.25,-6.51,-23.55,1
1745,29.26,-10.33,-0.68,1
1746,29.28,-21.12,18.92,1
1747,29.29,-18.94,-13.42,1
1748,29.3,-15.28,26.39,1
1749,29.32,-28.26,52.72,1
1750,29.33,-41.63,-6.03,1
1751,29.34,-49.39,9.09,1
1752,29.36,-61.42,26.15,1
1753,29.37,-59.44,19.45,1
1754,29.38,-56.32,32.42,1
1755,29.4,-38.63,7.62,1
1756,29.41,-45.88,44.96,1
1757,29.42,-54.24,-0.53,1
1758,29.44,-36.07,-30.1,1
1759,29.45,-36.78,8.16,1
1760,29.47,-49.61,3.41,1
1761,29.48,-56.89,-36.1,1
1762,29.49,-39.21,12.87,1
1763,29.51,-46.85,2.66,1
1764,29.52,-33.2,15.07,1
1765,29.53,-31.62,-28.4,1
1766,29.55,-27.08,-7.2,1
1767,29.56,-29.09,22.81,1
1768,29.57,-13.08,-23.1,1
1769,29.59,-25.79,-6.25,1
1770,29.6,-20.03,20.26,1
1771,29.61,-7.55,10.06,1
1772,29.63,-13.59,21.8,1
1773,29.64,-1.19,-13.38,1
1774,29.65,-1.12,45.59,1
1775,29.67,3.01,16.2,1
1776,29.68,22.19,-4.49,1
1777,29.69,13.52,14.85,1
1778,29.71,32.4,31.94,1
1779,29.72,11.86,-2.59,1
1780,29.73,7.52,-13.79,1
1781,29.75,-6.88,11.41,1
1782,29.76,23.06,-15.81,1
1783,29.77,23.0,38.31,1
1784,29.79,16.36,11.28,1
1785,29.8,21.58,-11.1,1
1786,29.81,24.44,-10.03,1
1787,29.83,9.63,-10.2,1
1788,29.84,28.81,8.97,1
1789,29.85,6.95,33.68,1
1790,29.86,10.38,20.32,1
1791,29.88,21.16,5.63,1
1792,29.89,20.87,-19.71,1
1793,29.9,10.61,-28.0,1
1794,29.92,8.47,12.53,1
1795,29.93,21.32,31.19,1
1796,29.94,22.07,38.15,1
1797,29.96,14.5,-3.5,1
1798,29.97,22.44,14.4,1
1799,29.98,14.71,14.93,1
1800,30.0,18.95,6.49,1
1801,30.01,15.9,-7.92,1
1802,30.02,17.85,-7.69,1
1803,30.04,5.07,-25.93,1
1804,30.05,-9.92,-17.21,1
1805,30.06,-8.66,-28.49,1
1806,30.08,13.56,-10.34,1
1807,30.09,12.05,-14.17,1
1808,30.11,5.15,19.34,1
1809,30.12,18.36,98.37,1
1810,30.13,13.19,228.03,1
1811,30.15,-4.77,76.06,1
1812,30.16,108.67,4.26,1
1813,30.17,140.52,214.77,1
1814,30.19,-28.11,269.55,1
1815,30.2,13.89,76.19,1
1816,30.21,61.66,-55.54,1
1817,30.23,-175.81,91.4,1
1818,30.24,87.71,-127.45,1
1819,30.25,16.17,71.72,1
1820,30.27,133.85,-192.23,1
1821,30.28,124.19,-328.17,1
1822,30.29,43.97,-80.24,1
1823,30.31,61.41,-619.74,1
1824,30.32,-149.79,-306.99,1
1825,30.33,-66.19,-562.75,1
1826,30.35,-102.24,-45.14,1
1827,30.36,-152.37,-105.62,1
1828,30.37,-103.02,-138.21,1
1829,30.39,-32.84,-426.02,1
1830,30.4,83.85,-206.44,1
1831,30.41,-208.03,-87.09,1
1832,30.43,30.5,356.74,1
1833,30.44,-251.49,97.92,1
1834,30.45,-166.85,34.12,1
1835,30.47,-207.13,154.1,1
1836,30.48,-95.1,352.72,1
1837,30.49,-275.41,399.85,1
1838,30.5,-110.95,338.91,1
1839,30.52,-40.92,-62.18,1
1840,30.53,141.41,215.16,1
1841,30.54,113.23,125.37,1
1842,30.56,21.48,-283.93,1
1843,30.57,161.63,61.88,1
1844,30.58,109.44,13.61,1
1845,30.6,160.22,53.26,1
1846,30.61,26.89,62.97,1
1847,30.62,56.61,94.0,1
1848,30.64,139.35,44.16,1
1849,30.65,65.05,524.53,1
1850,30.67,-151.94,-6.39,1
1851,30.68,-6.71,75.62,1
1852,30.69,145.47,565.8,1
1853,30.7,-54.5,120.3,1
1854,30.72,164.02,338.3,1
1855,30.73,116.62,-296.57,1
1856,30.75,143.22,263.94,1
1857,30.76,-282.66,-99.58,1
1858,30.77,92.4,-458.64,1
1859,30.79,256.62,-287.89,1
1860,30.8,-99.22,-130.49,1
1861,30.81,25.28,16.39,1
1862,30.83,-274.02,42.96,1
1863,30.84,163.39,11.75,1
1864,30.85,57.31,257.92,1
1865,30.87,137.59,158.6,1
1866,30.88,333.38,-284.69,1
1867,30.89,16.05,111.26,1
1868,30.91,7.5,-390.85,1
1869,30.92,-34.57,-108.26,1
1870,30.93,-127.44,-332.94,1
1871,30.95,-58.97,42.34,1
1872,30.96,-36.27,-105.39,1
1873,30.97,-67.37,-15.76,1
1874,30.99,-78.25,183.31,1
1875,31.0,-72.01,213.17,1
1876,31.01,-93.18,287.2,1
1877,31.03,-57.63,0.82,1
1878,31.04,-57.45,-53.0,1
1879,31.05,-21.95,-125.45,1
1880,31.07,-16.91,-309.61,1
1881,31.08,19.04,-231.43,1
1882,31.09,13.45,-259.55,1
1883,31.11,14.3,-168.99,1
1884,31.12,37.22,-112.77,1
1885,31.13,59.02,-37.35,1
1886,31.14,51.89,34.54,1
1887,31.16,52.9,3.33,1
1888,31.17,34.94,43.89,1
1889,31.18,20.54,80.04,1
1890,31.2,26.33,46.33,1
1891,31.21,2.0,41.76,1
1892,31.22,2.38,69.13,1
1893,31.24,23.97,68.72,1
1894,31.25,5.44,43.37,1
1895,31.26,4.53,41.05,1
1896,31.28,-26.26,32.38,1
1897,31.29,-1.73,72.57,1
1898,31.3,-15.93,48.89,1
1899,31.32,-14.44,20.45,1
1900,31.33,-19.5,32.61,1
1901,31.34,-13.39,5.22,1
1902,31.36,-38.96,-17.64,1
1903,31.37,-8.61,-38.94,1
1904,31.39,-21.68,-8.02,1
1905,31.4,-19.21,14.09,1
1906,31.41,-29.02,-28.53,1
1907,31.43,-31.16,-54.25,1
1908,31.44,-38.34,7.18,1
1909,31.45,-39.6,-41.72,1
1910,31.47,-19.57,-7.72,1
1911,31.48,-27.4,24.97,1
1912,31.49,-9.0,-12.99,1
1913,31.51,-11.03,26.22,1
1914,31.52,-13.55,-20.43,1
1915,31.53,-26.54,-17.26,1
1916,31.55,-41.64,-11.25,1
1917,31.56,-17.17,-22.28,1
1918,31.57,-32.77,3.23,1
1919,31.59,-9.36,5.95,1
1920,31.6,-11.78,-9.57,1
1921,31.61,-9.46,-8.95,1
1922,31.63,-14.02,-9.78,1
1923,31.64,-4.51,19.37,1
1924,31.65,9.63,13.97,1
1925,31.67,5.76,16.6,1
1926,31.68,17.16,-7.1,1
1927,31.69,14.39,8.52,1
1928,31.71,1.51,14.24,1
1929,31.72,-2.71,-0.53,1
1930,31.73,17.94,36.73,1
1931,31.75,17.76,27.5,1
1932,31.76,5.04,13.37,1
1933,31.77,6.36,-6.78,1
1934,31.78,9.9,52.96,1
1935,31.8,3.3,9.97,1
1936,31.81,13.95,15.67,1
1937,31.82,16.96,8.32,1
1938,31.84,22.08,-16.57,1
1939,31.85,14.49,-16.65,1
1940,31.86,9.15,22.3,1
1941,31.88,-2.25,12.91,1
1942,31.89,12.74,11.52,1
1943,31.9,16.2,10.39,1
1944,31.92,11.0,10.69,1
1945,31.93,6.02,-1.8,1
1946,31.94,14.26,24.38,1
1947,31.96,7.24,6.07,1
1948,31.97,22.91,41.87,1
1949,31.98,14.38,-11.31,1
1950,32.0,9.89,9.82,1
1951,32.01,15.1,-13.77,1
1952,32.03,15.73,17.61,1
1953,32.04,17.88,2.48,1
1954,32.05,-7.67,-3.44,1
1955,32.07,7.29,21.07,1
1956,32.08,9.15,0.11,1
1957,32.09,-1.83,26.67,1
1958,32.11,13.17,49.6,1
1959,32.12,14.7,177.06,1
1960,32.13,-82.45,403.63,1
1961,32.15,-111.43,222.45,1
1962,32.16,-20.47,152.96,1
1963,32.17,-57.2,-13.73,1
1964,32.19,180.24,-363.33,1
1965,32.2,-109.47,-469.34,1
1966,32.21,118.13,12.33,1
1967,32.23,144.52,171.51,1
1968,32.24,342.69,-127.84,1
1969,32.25,136.07,-156.07,1
1970,32.27,67.16,-94.29,1
1971,32.28,197.03,-101.57,1
1972,32.29,122.08,-689.87,1
1973,32.31,-154.28,-229.98,1
1974,32.32,147.78,-532.21,1
1975,32.33,-234.17,108.91,1
1976,32.35,-155.83,267.8,1
1977,32.36,-201.29,-339.06,1
1978,32.37,-159.3,-35.02,1
1979,32.39,-172.25,29.12,1
1980,32.4,-142.46,445.16,1
1981,32.41,-84.99,272.75,1
1982,32.43,-94.27,297.18,1
1983,32.44,-0.95,-458.76,1
1984,32.45,-316.13,131.01,1
1985,32.47,40.05,292.96,1
1986,32.48,-280.28,-309.14,1
1987,32.49,66.41,238.17,1
1988,32.51,-88.38,25.05,1
1989,32.52,-163.11,170.39,1
1990,32.53,-44.98,168.83,1
1991,32.54,31.01,473.32,1
1992,32.56,-26.37,86.25,1
1993,32.57,-159.16,392.67,1
1994,32.59,109.98,-157.95,1
1995,32.6,-38.54,-478.7,1
1996,32.61,351.88,-269.73,1
1997,32.63,262.55,-2.62,1
1998,32.64,100.49,191.79,1
1999,32.65,200.15,6.14,1
2000,32.67,223.34,58.22,1
2001,32.68,-112.47,-120.13,1
2002,32.69,390.21,-251.92,1
2003,32.71,-140.29,124.81,1
2004,32.72,310.16,298.53,1
2005,32.73,13.26,301.55,1
2006,32.75,11.57,136.25,1
2007,32.76,5.35,-216.48,1
2008,32.77,-39.64,-116.2,1
2009,32.79,-242.21,-126.83,1
2010,32.8,-153.28,2.28,1
2011,32.81,-72.97,77.78,1
2012,32.83,29.04,4.47,1
2013,32.84,-44.32,-1.74,1
2014,32.85,4.08,-101.91,1
2015,32.87,-2.33,-42.51,1
2016,32.88,-82.03,120.21,1
2017,32.89,4.34,467.98,1
2018,32.91,-96.13,297.55,1
2019,32.92,-39.6,388.45,1
2020,32.93,-31.78,59.58,1
2021,32.95,10.44,-1.23,1
2022,32.96,63.21,-304.19,1
2023,32.97,66.88,-299.4,1
2024,32.99,94.17,-308.18,1
2025,33.0,90.27,-284.46,1
2026,33.01,94.54,-200.54,1
2027,33.03,95.1,-155.35,1
2028,33.04,70.74,-107.11,1
2029,33.05,71.39,-39.94,1
2030,33.06,64.3,-40.45,1
2031,33.08,57.34,8.66,1
2032,33.09,53.18,43.07,1
2033,33.11,44.1,24.72,1
2034,33.12,17.93,27.71,1
2035,33.13,-1.86,10.28,1
2036,33.15,-15.76,15.94,1
2037,33.16,-24.38,-6.94,1
2038,33.17,-30.85,20.71,1
2039,33.19,-13.58,-9.46,1
2040,33.2,-50.1,4.34,1
2041,33.21,-40.0,-12.55,1
2042,33.22,-49.38,-40.3,1
2043,33.24,-24.92,-27.84,1
2044,33.25,-23.43,-16.49,1
2045,33.27,-41.69,-45.92,1
2046,33.28,-56.78,-55.92,1
2047,33.29,-51.01,-58.27,1
2048,33.31,-40.23,-29.56,1
2049,33.32,-63.3,-16.16,1
2050,33.33,-61.87,-64.35,1
2051,33.35,-61.21,-11.36,1
2052,33.36,-75.2,-27.59,1
2053,33.37,-35.4,1.19,1
2054,33.39,-49.07,-7.04,1
2055,33.4,-47.74,13.0,1
2056,33.41,-37.87,-30.99,1
2057,33.43,-17.8,5.53,1
2058,33.44,-30.68,-11.46,1
2059,33.45,-24.22,55.15,1
2060,33.47,-25.56,14.16,1
2061,33.48,-13.61,27.11,1
2062,33.49,-4.09,44.63,1
2063,33.51,-27.26,35.56,1
2064,33.52,-10.68,62.22,1
2065,33.53,6.68,6.13,1
2066,33.55,-3.18,4.27,1
2067,33.56,16.58,20.92,1
2068,33.57,8.21,4.17,1
2069,33.59,6.55,50.88,1
2070,33.6,18.95,54.09,1
2071,33.61,22.94,44.43,1
2072,33.63,1.77,27.34,1
2073,33.64,16.77,32.77,1
2074,33.65,16.88,52.4,1
2075,33.67,26.31,50.62,1
2076,33.68,16.87,46.31,1
2077,33.69,16.82,19.29,1
2078,33.71,25.32,42.47,1
2079,33.72,15.75,11.73,1
2080,33.73,14.82,16.78,1
2081,33.75,18.53,-24.58,1
2082,33.76,27.45,49.46,1
2083,33.77,15.7,3.27,1
2084,33.79,19.81,35.25,1
2085,33.8,19.33,8.71,1
2086,33.81,9.92,7.91,1
2087,33.83,10.69,14.63,1
2088,33.84,22.11,28.57,1
2089,33.85,25.08,-23.44,1
2090,33.87,7.17,9.92,1
2091,33.88,14.05,-9.02,1
2092,33.89,14.26,9.35,1
2093,33.9,14.62,6.26,1
2094,33.92,10.27,9.33,1
2095,33.93,9.42,-16.28,1
2096,33.95,0.3,-45.55,1
2097,33.96,13.93,-8.91,1
2098,33.97,8.84,-11.0,1
2099,33.99,12.75,-9.67,1
2100,34.0,-3.39,-20.59,1
2101,34.01,12.66,-10.53,1
2102,34.03,14.9,-12.04,1
2103,34.04,19.15,-34.88,1
2104,34.05,-0.92,-16.3,1
2105,34.07,10.49,9.1,1
2106,34.08,-14.57,-27.43,1
2107,34.09,-0.99,-16.29,1
2108,34.11,5.91,-6.24,1
2109,34.12,-10.2,23.05,1
2110,34.13,-13.31,49.6,1
2111,34.15,-7.44,277.72,1
2112,34.16,-28.04,290.68,1
2113,34.17,-92.5,125.1,1
2114,34.19,-160.41,154.41,1
2115,34.2,-121.47,131.7,1
2116,34.21,231.04,55.39,1
2117,34.23,-44.87,-2.03,1
2118,34.24,283.63,-150.13,1
2119,34.25,250.55,-205.27,1
2120,34.27,74.76,-224.7,1
2121,34.28,193.73,-231.59,1
2122,34.29,-178.49,-196.66,1
2123,34.31,17.78,-685.64,1
2124,34.32,-123.2,-96.57,1
2125,34.33,-4.64,-457.96,1
2126,34.35,64.45,-324.32,1
2127,34.36,-48.89,-174.11,1
2128,34.37,57.36,43.12,1
2129,34.38,19.73,50.46,1
2130,34.4,-360.82,-52.98,1
2131,34.41,-215.81,110.69,1
2132,34.43,11.64,71.34,1
2133,34.44,-131.37,195.52,1
2134,34.45,-176.77,183.38,1
2135,34.47,-242.58,-250.63,1
2136,34.48,174.59,-51.68,1
2137,34.49,33.58,178.35,1
2138,34.51,183.83,259.91,1
2139,34.52,-50.09,-233.99,1
2140,34.53,44.89,145.96,1
2141,34.54,-11.23,24.47,1
2142,34.56,235.67,143.41,1
2143,34.57,100.31,-31.37,1
2144,34.59,147.3,365.79,1
2145,34.6,-197.0,84.76,1
2146,34.61,-23.23,470.21,1
2147,34.63,-19.41,-416.6,1
2148,34.64,27.62,-80.1,1
2149,34.65,-162.7,-9.22,1
2150,34.67,-213.85,336.31,1
2151,34.68,-190.09,563.39,1
2152,34.69,-162.18,379.2,1
2153,34.71,-150.38,156.62,1
2154,34.72,17.68,131.32,1
2155,34.73,50.07,-3.82,1
2156,34.75,-101.12,-72.77,1
2157,34.76,-20.58,-267.26,1
2158,34.77,176.83,-196.96,1
2159,34.79,188.96,40.71,1
2160,34.8,-44.71,-156.28,1
2161,34.81,84.42,401.49,1
2162,34.83,-101.53,-51.86,1
2163,34.84,87.55,-184.19,1
2164,34.85,235.57,-273.32,1
2165,34.87,9.36,-45.76,1
2166,34.88,127.42,107.56,1
2167,34.89,83.11,-86.94,1
2168,34.91,-60.51,-121.86,1
2169,34.92,-139.35,347.91,1
2170,34.93,114.37,-51.63,1
2171,34.95,175.8,-225.1,1
2172,34.96,145.33,200.8,1
2173,34.97,135.19,236.82,1
2174,34.99,184.14,43.76,1
2175,35.0,91.28,-179.11,1
2176,35.01,-6.49,-3.9,1
2177,35.03,84.59,-151.08,1
2178,35.04,-0.29,-86.28,1
2179,35.05,0.94,-135.04,1
2180,35.06,-49.9,-49.64,1
2181,35.08,-25.49,24.26,1
2182,35.09,-118.6,106.0,1
2183,35.11,-112.88,192.08,1
2184,35.12,-106.97,125.75,1
2185,35.13,-103.87,43.74,1
2186,35.15,-58.94,-179.6,1
2187,35.16,-17.68,-184.09,1
2188,35.17,18.47,-263.79,1
2189,35.19,31.2,-179.56,1
2190,35.2,31.29,-204.35,1
2191,35.21,32.89,-140.04,1
2192,35.22,48.53,-142.43,1
2193,35.24,58.8,-138.89,1
2194,35.25,55.5,-113.88,1
2195,35.27,39.97,-75.45,1
2196,35.28,27.78,-59.75,1
2197,35.29,8.75,-3.04,1
2198,35.31,15.55,18.94,1
2199,35.32,-1.08,62.67,1
2200,35.33,-22.21,88.5,1
2201,35.35,-8.46,57.01,1
2202,35.36,-16.61,89.85,1
2203,35.37,-20.39,38.91,1
2204,35.39,-45.89,75.24,1
2205,35.4,-42.56,58.11,1
2206,35.41,-28.7,63.31,1
2207,35.43,-54.85,28.96,1
2208,35.44,-19.78,44.62,1
2209,35.45,-19.23,78.71,1
2210,35.47,-12.04,55.71,1
2211,35.48,-33.22,54.08,1
2212,35.49,-41.3,50.91,1
2213,35.51,-35.54,29.89,1
2214,35.52,-38.62,13.24,1
2215,35.53,-56.3,65.35,1
2216,35.55,-42.1,23.25,1
2217,35.56,-40.62,43.04,1
2218,35.57,-47.08,45.2,1
2219,35.59,-47.96,26.4,1
2220,35.6,-35.22,17.75,1
2221,35.61,-46.28,-18.85,1
2222,35.63,-25.43,0.93,1
2223,35.64,-2.3,-13.57,1
2224,35.65,-23.89,13.42,1
2225,35.67,7.15,-7.37,1
2226,35.68,-8.12,-23.83,1
2227,35.69,-14.72,-7.51,1
2228,35.71,-18.86,8.92,1
2229,35.72,11.84,1.71,1
2230,35.73,-14.32,27.42,1
2231,35.75,9.46,-8.33,1
2232,35.76,14.16,20.79,1
2233,35.77,5.79,-9.48,1
2234,35.79,24.87,-41.15,1
2235,35.8,23.15,-12.71,1
2236,35.81,11.79,-1.09,1
2237,35.83,26.56,-40.57,1
2238,35.84,21.85,-7.31,1
2239,35.85,27.65,8.54,1
2240,35.87,17.4,-11.24,1
2241,35.88,17.82,-25.02,1
2242,35.89,20.66,-36.38,1
2243,35.9,11.7,1.47,1
2244,35.92,-2.07,0.29,1
2245,35.93,9.54,-3.41,1
2246,35.95,8.5,15.5,1
2247,35.96,5.26,-22.69,1
2248,35.97,18.56,-1.42,1
2249,35.99,29.92,0.15,1
2250,36.0,47.18,-4.47,1
2251,36.01,13.81,-9.33,1
2252,36.03,21.4,-2.83,1
2253,36.04,14.36,-26.01,1
2254,36.05,2.7,-10.2,1
2255,36.07,13.01,-16.91,1
2256,36.08,3.38,-8.07,1
2257,36.09,18.6,16.88,1
2258,36.11,0.27,20.4,1
2259,36.12,6.65,12.36,1
2260,36.13,37.88,23.05,1
2261,36.15,27.35,-6.39,1
2262,36.16,-1.41,-135.17,1
2263,36.17,-16.15,-113.0,1
2264,36.19,-30.66,260.32,1
2265,36.2,221.81,408.28,1
2266,36.21,262.03,154.51,1
2267,36.23,-24.08,185.15,1
2268,36.24,-136.46,229.84,1
2269,36.25,107.81,-134.66,1
2270,36.27,-135.39,-258.04,1
2271,36.28,-267.89,-30.98,1
2272,36.29,213.1,-214.79,1
2273,36.31,-8.77,-157.96,1
2274,36.32,15.16,-309.52,1
2275,36.33,-8.89,-255.88,1
2276,36.35,96.87,-57.47,1
2277,36.36,-200.09,-142.25,1
2278,36.37,-129.1,107.06,1
2279,36.38,219.36,-574.43,1
2280,36.4,-198.09,-107.05,1
2281,36.41,17.81,-19.33,1
2282,36.43,-234.54,295.78,1
2283,36.44,19.25,216.35,1
2284,36.45,-218.03,-249.0,1
2285,36.47,-28.74,-249.37,1
2286,36.48,-136.0,-188.8,1
2287,36.49,-42.51,10.69,1
2288,36.51,-17.6,191.31,1
2289,36.52,80.95,-83.46,1
2290,36.53,176.5,431.79,1
2291,36.54,-57.75,394.88,1
2292,36.56,115.27,-6.72,1
2293,36.57,-78.5,287.02,1
2294,36.59,-14.3,-13.86,1
2295,36.6,46.8,4.55,1
2296,36.61,-81.24,343.48,1
2297,36.63,56.2,511.0,1
2298,36.64,103.44,122.66,1
2299,36.65,181.87,561.23,1
2300,36.67,143.81,-12.78,1
2301,36.68,200.58,76.84,1
2302,36.69,197.47,-455.63,1
2303,36.71,42.48,126.42,1
2304,36.72,-1.54,12.15,1
2305,36.73,-157.48,-214.71,1
2306,36.75,-135.34,135.64,1
2307,36.76,-106.36,-216.14,1
2308,36.77,-100.01,-320.39,1
2309,36.79,-249.7,-154.15,1
2310,36.8,8.55,87.79,1
2311,36.81,68.0,249.34,1
2312,36.83,-106.34,376.08,1
2313,36.84,86.25,111.07,1
2314,36.85,41.17,-326.99,1
2315,36.87,12.23,-306.58,1
2316,36.88,-118.6,58.76,1
2317,36.89,99.6,-207.13,1
2318,36.9,117.58,11.4,1
2319,36.92,-64.61,-197.08,1
2320,36.93,117.87,-24.41,1
2321,36.95,-45.6,-155.36,1
2322,36.96,-55.41,-95.7,1
2323,36.97,-79.21,17.59,1
2324,36.99,-71.4,39.88,1
2325,37.0,-92.47,135.14,1
2326,37.01,-113.51,133.36,1
2327,37.03,-94.05,199.69,1
2328,37.04,-59.38,-55.53,1
2329,37.05,-18.87,-106.07,1
2330,37.06,24.14,-147.73,1
2331,37.08,51.97,-182.35,1
2332,37.09,66.48,-248.01,1
2333,37.11,105.27,-288.75,1
2334,37.12,95.71,-237.39,1
2335,37.13,99.38,-106.21,1
2336,37.15,104.08,-87.2,1
2337,37.16,106.91,-39.63,1
2338,37.17,99.06,21.85,1
2339,37.19,89.49,69.02,1
2340,37.2,66.46,58.92,1
2341,37.21,59.25,65.76,1
2342,37.22,47.05,49.21,1
2343,37.24,44.74,65.14,1
2344,37.25,10.58,81.98,1
2345,37.27,13.82,43.86,1
2346,37.28,3.36,20.38,1
2347,37.29,-4.37,51.18,1
2348,37.31,-6.69,74.33,1
2349,37.32,-17.83,67.04,1
2350,37.33,-18.88,94.15,1
2351,37.35,-31.41,85.05,1
2352,37.36,-23.93,80.16,1
2353,37.37,-39.75,45.71,1
2354,37.39,-32.89,34.46,1
2355,37.4,-18.81,64.66,1
2356,37.41,-30.4,19.1,1
2357,37.43,-17.64,16.58,1
2358,37.44,-39.02,34.76,1
2359,37.45,-46.26,-0.69,1
2360,37.47,-26.68,20.74,1
2361,37.48,-35.44,23.16,1
2362,37.49,-36.2,-36.16,1
2363,37.51,-44.26,42.74,1
2364,37.52,-31.45,-7.17,1
2365,37.53,-40.46,10.4,1
2366,37.54,-27.76,-12.3,1
2367,37.56,-41.23,-24.54,1
2368,37.57,-38.58,18.29,1
2369,37.59,-19.41,-10.14,1
2370,37.6,-26.96,-1.41,1
2371,37.61,-21.43,21.94,1
2372,37.63,-10.43,-14.26,1
2373,37.64,-15.42,-39.85,1
2374,37.65,-15.64,7.15,1
2375,37.67,-5.03,-32.23,1
2376,37.68,-17.73,-11.67,1
2377,37.69,6.22,12.05,1
2378,37.71,-5.49,-17.02,1
2379,37.72,-2.79,-26.8,1
2380,37.73,-12.47,15.5,1
2381,37.75,-1.55,-2.2,1
2382,37.76,-5.97,4.49,1
2383,37.77,3.87,-23.5,1
2384,37.79,-7.14,-40.08,1
2385,37.8,14.63,16.73,1
2386,37.81,13.14,-1.03,1
2387,37.83,22.67,-11.73,1
2388,37.84,17.69,20.47,1
2389,37.85,7.36,13.61,1
2390,37.87,2.87,2.98,1
2391,37.88,-7.85,-1.34,1
2392,37.89,6.74,3.05,1
2393,37.91,7.48,3.04,1
2394,37.92,23.32,-23.22,1
2395,37.93,10.03,24.78,1
2396,37.95,19.75,-4.62,1
2397,37.96,18.99,-5.98,1
2398,37.97,11.14,13.73,1
2399,37.99,17.81,39.16,1
2400,38.0,16.76,-14.24,1
2401,38.01,21.4,-34.42,1
2402,38.03,14.33,-19.99,1
2403,38.04,11.58,20.98,1
2404,38.05,8.46,2.4,1
2405,38.07,2.09,6.51,1
2406,38.08,20.55,48.0,1
2407,38.09,-1.55,120.65,1
2408,38.11,7.31,91.15,1
2409,38.12,42.16,195.08,1
2410,38.13,14.47,365.86,1
2411,38.15,-80.35,220.83,1
2412,38.16,113.4,-32.0,1
2413,38.17,106.94,-583.47,1
2414,38.19,6.64,-182.12,1
2415,38.2,-66.02,233.01,1
2416,38.21,9.08,-89.91,1
2417,38.22,35.1,135.59,1
2418,38.24,174.59,-60.4,1
2419,38.25,105.39,-390.45,1
2420,38.27,-44.32,-127.39,1
2421,38.28,103.65,-48.39,1
2422,38.29,94.34,-152.65,1
2423,38.31,4.29,-483.78,1
2424,38.32,56.82,-46.98,1
2425,38.33,-331.99,-23.39,1
2426,38.35,-213.94,18.48,1
2427,38.36,-42.19,119.08,1
2428,38.37,-97.02,-34.77,1
2429,38.38,-76.84,-148.66,1
2430,38.4,-99.21,188.06,1
2431,38.41,-229.65,-369.8,1
2432,38.43,-192.43,-195.54,1
2433,38.44,-44.14,40.75,1
2434,38.45,109.47,-227.71,1
2435,38.47,-9.94,119.66,1
2436,38.48,-5.49,231.39,1
2437,38.49,25.5,328.21,1
2438,38.51,116.6,216.52,1
2439,38.52,115.11,-26.39,1
2440,38.53,-60.17,365.52,1
2441,38.55,-15.12,-213.29,1
2442,38.56,13.05,-8.03,1
2443,38.57,126.55,89.47,1
2444,38.59,89.45,11.25,1
2445,38.6,153.1,1.91,1
2446,38.61,-50.32,-255.84,1
2447,38.63,40.05,139.62,1
2448,38.64,195.63,522.18,1
2449,38.65,6.59,225.88,1
2450,38.67,205.5,-34.95,1
2451,38.68,-111.28,-209.27,1
2452,38.69,232.06,-180.73,1
2453,38.71,-245.66,301.68,1
2454,38.72,93.45,498.04,1
2455,38.73,-123.29,125.63,1
2456,38.75,183.75,161.84,1
2457,38.76,-213.0,-197.43,1
2458,38.77,4.56,265.9,1
2459,38.79,-366.09,-172.73,1
2460,38.8,108.2,-204.71,1
2461,38.81,-228.94,-295.8,1
2462,38.83,-138.09,293.5,1
2463,38.84,-204.22,366.14,1
2464,38.85,35.76,239.68,1
2465,38.87,-20.62,165.77,1
2466,38.88,-41.33,-256.32,1
2467,38.89,169.59,-199.31,1
2468,38.9,131.18,-224.33,1
2469,38.92,-14.81,-132.44,1
2470,38.93,40.33,-265.36,1
2471,38.95,55.08,-137.46,1
2472,38.96,8.19,-297.37,1
2473,38.97,46.5,-204.74,1
2474,38.99,75.9,-102.15,1
2475,39.0,24.8,-33.45,1
2476,39.01,-5.61,33.49,1
2477,39.03,3.58,266.18,1
2478,39.04,-58.56,200.5,1
2479,39.05,51.79,129.52,1
2480,39.06,15.71,-28.97,1
2481,39.08,48.12,-83.11,1
2482,39.09,32.75,-223.05,1
2483,39.11,43.46,-203.17,1
2484,39.12,43.93,-147.96,1
2485,39.13,42.15,-177.78,1
2486,39.15,71.25,-144.42,1
2487,39.16,69.11,-151.87,1
2488,39.17,76.08,7.93,1
2489,39.19,58.03,-9.08,1
2490,39.2,42.42,4.33,1
2491,39.21,63.23,95.99,1
2492,39.23,20.24,89.45,1
2493,39.24,31.2,68.07,1
2494,39.25,9.37,94.12,1
2495,39.27,-3.33,109.46,1
2496,39.28,-13.96,82.87,1
2497,39.29,-36.58,100.26,1
2498,39.31,-45.36,79.69,1
2499,39.32,-22.36,93.12,1
2500,39.33,-25.09,84.37,1
2501,39.35,-32.44,72.28,1
2502,39.36,-26.95,56.5,1
2503,39.37,-34.22,56.8,1
2504,39.39,-39.87,59.59,1
2505,39.4,-26.69,35.69,1
2506,39.41,-19.97,29.37,1
2507,39.43,-57.66,15.73,1
2508,39.44,-44.19,-5.46,1
2509,39.45,-54.39,0.76,1
2510,39.47,-44.87,-1.53,1
2511,39.48,-25.71,-13.82,1
2512,39.49,-45.69,-28.5,1
2513,39.51,-51.53,-7.04,1
2514,39.52,-27.85,1.1,1
2515,39.53,-31.57,-26.02,1
2516,39.54,-25.41,11.4,1
2517,39.56,-15.51,-17.33,1
2518,39.57,-12.7,-1.8,1
2519,39.59,-24.82,-17.06,1
2520,39.6,-32.84,-44.59,1
2521,39.61,-31.01,-30.31,1
2522,39.63,-30.49,-7.02,1
2523,39.64,-8.25,-60.54,1
2524,39.65,-12.61,-25.02,1
2525,39.67,4.0,-28.07,1
2526,39.68,-27.38,-31.14,1
2527,39.69,8.13,-53.18,1
2528,39.71,-2.17,-16.27,1
2529,39.72,13.09,-42.27,1
2530,39.73,4.86,-12.73,1
2531,39.75,10.12,-39.37,1
2532,39.76,5.47,-19.05,1
2533,39.77,-2.47,-8.61,1
2534,39.79,17.21,18.69,1
2535,39.8,29.25,-24.78,1
2536,39.81,34.54,3.34,1
2537,39.83,32.74,-36.02,1
2538,39.84,21.4,-24.04,1
2539,39.85,10.28,-26.95,1
2540,39.87,7.38,13.12,1
2541,39.88,17.1,22.31,1
2542,39.89,10.51,43.03,1
2543,39.91,20.35,45.83,1
2544,39.92,10.1,15.52,1
2545,39.93,32.76,-22.34,1
2546,39.95,20.62,9.74,1
2547,39.96,13.23,-8.26,1
2548,39.97,16.1,29.58,1
2549,39.99,12.48,7.83,1
2550,40.0,12.82,13.83,1
2551,40.01,23.46,11.35,1
2552,40.03,4.95,26.87,1
2553,40.04,3.56,7.88,1
2554,40.05,19.12,8.95,1
2555,40.07,2.76,30.32,1
2556,40.08,0.62,7.92,1
2557,40.09,2.99,25.83,1
2558,40.11,15.5,39.12,1
2559,40.12,-10.33,29.61,1
2560,40.13,4.08,-11.78,1
2561,40.15,14.25,-99.83,1
2562,40.16,-16.33,-28.46,1
2563,40.17,-235.36,218.32,1
2564,40.19,78.91,77.08,1
2565,40.2,197.23,-127.98,1
2566,40.21,-217.58,264.22,1
2567,40.22,-23.53,313.22,1
2568,40.24,256.34,20.73,1
2569,40.25,237.57,21.53,1
2570,40.27,239.35,-235.69,1
2571,40.28,112.55,-469.69,1
2572,40.29,19.46,-371.88,1
2573,40.31,-113.7,-220.31,1
2574,40.32,100.54,238.08,1
2575,40.33,-171.11,-13.25,1
2576,40.35,-29.15,-92.39,1
2577,40.36,19.35,-47.31,1
2578,40.37,8.48,-187.79,1
2579,40.38,-472.14,-40.68,1
2580,40.4,-14.39,298.69,1
2581,40.41,-180.01,445.17,1
2582,40.43,-137.89,-90.78,1
2583,40.44,-69.59,-204.07,1
2584,40.45,-32.14,289.41,1
2585,40.47,-183.68,255.7,1
2586,40.48,41.92,-133.39,1
2587,40.49,133.51,-314.71,1
2588,40.51,-10.63,83.19,1
2589,40.52,-87.24,52.24,1
2590,40.53,-128.29,-68.38,1
2591,40.55,-15.53,358.88,1
2592,40.56,132.88,-424.43,1
2593,40.57,142.24,282.73,1
2594,40.59,1.77,118.42,1
2595,40.6,-34.98,266.08,1
2596,40.61,125.3,-190.55,1
2597,40.63,86.21,-150.05,1
2598,40.64,-22.02,157.04,1
2599,40.65,-10.18,344.2,1
2600,40.67,-77.49,75.38,1
2601,40.68,20.62,-452.79,1
2602,40.69,193.46,-2.77,1
2603,40.71,61.67,-7.48,1
2604,40.72,301.38,-69.45,1
2605,40.73,-163.98,81.54,1
2606,40.75,136.8,300.91,1
2607,40.76,-112.81,-161.54,1
2608,40.77,53.86,109.46,1
2609,40.79,-114.35,-25.76,1
2610,40.8,16.5,-145.39,1
2611,40.81,-20.51,-381.8,1
2612,40.83,26.73,-252.75,1
2613,40.84,120.61,-155.11,1
2614,40.85,-34.34,-101.78,1
2615,40.87,-222.98,-29.27,1
2616,40.88,-92.11,-273.05,1
2617,40.89,101.79,79.34,1
2618,40.9,-192.57,107.39,1
2619,40.92,66.28,110.23,1
2620,40.93,-12.27,-149.49,1
2621,40.95,-6.83,96.24,1
2622,40.96,61.34,61.85,1
2623,40.97,-104.99,144.8,1
2624,40.99,-24.24,50.32,1
2625,41.0,-25.64,46.74,1
2626,41.01,-38.13,230.55,1
2627,41.03,-57.94,287.45,1
2628,41.04,-44.07,221.56,1
2629,41.05,-54.1,212.2,1
2630,41.06,-68.22,168.87,1
2631,41.08,13.76,-77.59,1
2632,41.09,20.53,-149.39,1
2633,41.11,58.83,-174.25,1
2634,41.12,87.1,-97.45,1
2635,41.13,94.48,-58.25,1
2636,41.15,101.27,-67.3,1
2637,41.16,92.08,-152.79,1
2638,41.17,126.46,-84.9,1
2639,41.19,108.07,-58.24,1
2640,41.2,100.05,-70.41,1
2641,41.21,76.55,-57.17,1
2642,41.23,44.76,-50.66,1
2643,41.24,52.25,-36.0,1
2644,41.25,36.91,-4.15,1
2645,41.27,36.15,27.72,1
2646,41.28,24.24,40.94,1
2647,41.29,-3.1,83.57,1
2648,41.31,11.84,103.3,1
2649,41.32,-7.24,76.02,1
2650,41.33,13.21,57.16,1
2651,41.35,7.13,8.76,1
2652,41.36,-22.54,18.99,1
2653,41.37,-6.84,-0.6,1
2654,41.38,-46.5,-12.4,1
2655,41.4,-39.1,-21.6,1
2656,41.41,-51.78,15.7,1
2657,41.43,-52.72,-43.89,1
2658,41.44,-47.13,-19.12,1
2659,41.45,-61.59,-25.38,1
2660,41.47,-54.7,6.07,1
2661,41.48,-54.0,10.12,1
2662,41.49,-65.83,-19.31,1
2663,41.51,-49.92,-21.43,1
2664,41.52,-53.13,-2.18,1
2665,41.53,-32.8,-17.16,1
2666,41.54,-37.31,-13.44,1
2667,41.56,-27.16,10.72,1
2668,41.57,-37.4,12.14,1
2669,41.59,-37.86,-18.3,1
2670,41.6,-23.47,7.44,1
2671,41.61,-15.28,8.53,1
2672,41.63,-4.95,-28.73,1
2673,41.64,-26.59,-42.34,1
2674,41.65,-3.62,6.74,1
2675,41.67,-0.0,-17.98,1
2676,41.68,-14.93,-29.31,1
2677,41.69,-17.06,-24.67,1
2678,41.71,-19.03,22.62,1
2679,41.72,-15.55,-11.13,1
2680,41.73,-7.17,-3.52,1
2681,41.75,14.7,5.59,1
2682,41.76,2.82,-11.8,1
2683,41.77,15.81,8.36,1
2684,41.79,13.73,-44.39,1
2685,41.8,12.91,76.67,1
2686,41.81,19.48,-8.59,1
2687,41.83,-1.45,26.73,1
2688,41.84,10.86,24.8,1
2689,41.85,4.59,37.43,1
2690,41.87,4.61,14.39,1
2691,41.88,10.41,21.53,1
2692,41.89,13.8,38.0,1
2693,41.91,24.97,13.67,1
2694,41.92,5.48,22.76,1
2695,41.93,30.21,18.29,1
2696,41.95,11.67,-3.55,1
2697,41.96,5.81,6.48,1
2698,41.97,22.68,15.74,1
2699,41.99,16.38,-11.27,1
2700,42.0,18.18,2.36,1
2701,42.01,20.69,2.44,1
2702,42.03,25.07,18.16,1
2703,42.04,4.64,17.11,1
2704,42.05,17.57,28.13,1
2705,42.06,-7.44,-21.5,1
2706,42.08,32.3,-11.45,1
2707,42.09,-3.23,-15.74,1
2708,42.11,8.22,-1.06,1
2709,42.12,0.1,79.91,1
2710,42.13,29.32,220.45,1
2711,42.15,8.86,195.26,1
2712,42.16,53.31,135.51,1
2713,42.17,125.26,293.89,1
2714,42.19,270.92,91.17,1
2715,42.2,-16.86,-166.4,1
2716,42.21,-21.13,-160.64,1
2717,42.22,212.36,-157.45,1
2718,42.24,-182.71,8.5,1
2719,42.25,-165.11,-131.5,1
2720,42.27,-37.68,112.07,1
2721,42.28,5.46,-369.89,1
2722,42.29,-110.07,-698.51,1
2723,42.31,74.32,-411.7,1
2724,42.32,98.92,-134.07,1
2725,42.33,-20.37,-105.63,1
2726,42.35,23.99,233.89,1
2727,42.36,-183.07,219.52,1
2728,42.37,-158.53,127.29,1
2729,42.38,-240.48,-187.15,1
2730,42.4,-128.99,-84.49,1
2731,42.41,-3.4,302.27,1
2732,42.43,-121.47,14.71,1
2733,42.44,-164.5,-111.35,1
2734,42.45,-72.44,-406.18,1
2735,42.47,-24.63,-70.28,1
2736,42.48,-76.1,332.22,1
2737,42.49,-1.54,194.3,1
2738,42.51,132.73,-295.41,1
2739,42.52,-120.85,-67.9,1
2740,42.53,32.95,-177.88,1
2741,42.55,204.92,-1.45,1
2742,42.56,108.46,250.35,1
2743,42.57,205.26,138.46,1
2744,42.59,-77.74,406.19,1
2745,42.6,-129.82,-101.93,1
2746,42.61,22.15,548.59,1
2747,42.63,98.73,128.99,1
2748,42.64,180.86,100.87,1
2749,42.65,40.04,-335.31,1
2750,42.67,-127.98,285.43,1
2751,42.68,3.47,225.69,1
2752,42.69,-110.32,-217.58,1
2753,42.71,-3.36,-213.17,1
2754,42.72,225.98,298.97,1
2755,42.73,-111.04,258.94,1
2756,42.75,179.2,72.79,1
2757,42.76,-152.06,-194.62,1
2758,42.77,52.26,-206.89,1
2759,42.79,164.35,-130.78,1
2760,42.8,388.11,180.08,1
2761,42.81,79.42,-516.4,1
2762,42.83,-74.44,14.2,1
2763,42.84,-51.63,343.13,1
2764,42.85,248.18,-188.82,1
2765,42.87,-31.57,326.08,1
2766,42.88,-45.01,328.76,1
2767,42.89,-46.83,175.35,1
2768,42.9,-92.12,-157.87,1
2769,42.92,14.97,118.96,1
2770,42.93,152.22,12.92,1
2771,42.95,57.18,-348.7,1
2772,42.96,68.66,-194.47,1
2773,42.97,-33.51,-257.12,1
2774,42.99,-19.53,-269.78,1
2775,43.0,-23.08,-349.23,1
2776,43.01,-46.04,-77.44,1
2777,43.03,-57.07,400.76,1
2778,43.04,-167.14,138.94,1
2779,43.05,-196.04,469.96,1
2780,43.06,-137.12,128.77,1
2781,43.08,-66.54,-66.06,1
2782,43.09,-117.67,-384.76,1
2783,43.11,-35.78,-208.83,1
2784,43.12,28.92,-240.71,1
2785,43.13,32.39,-198.66,1
2786,43.15,38.26,-143.24,1
2787,43.16,44.73,-101.22,1
2788,43.17,32.71,-25.96,1
2789,43.19,50.65,50.15,1
2790,43.2,47.72,61.54,1
2791,43.21,67.59,99.16,1
2792,43.23,30.74,185.96,1
2793,43.24,45.36,129.38,1
2794,43.25,30.78,107.04,1
2795,43.27,34.31,108.99,1
2796,43.28,1.37,111.46,1
2797,43.29,-2.52,104.85,1
2798,43.31,-10.68,94.08,1
2799,43.32,-32.34,52.05,1
2800,43.33,-16.73,49.34,1
2801,43.35,-22.55,52.32,1
2802,43.36,-17.95,65.59,1
2803,43.37,-34.37,69.59,1
2804,43.38,-59.29,12.72,1
2805,43.4,-32.12,16.12,1
2806,43.41,-41.42,-13.44,1
2807,43.43,-39.14,17.53,1
2808,43.44,-32.15,-26.83,1
2809,43.45,-24.46,-40.87,1
2810,43.47,-56.09,-8.71,1
2811,43.48,-16.49,3.33,1
2812,43.49,-33.58,-17.67,1
2813,43.51,-25.98,-25.67,1
2814,43.52,-32.8,-63.2,1
2815,43.53,-21.13,-14.69,1
2816,43.54,-11.04,-43.63,1
2817,43.56,-10.79,-36.68,1
2818,43.57,-14.29,-74.67,1
2819,43.59,-17.76,-95.05,1
2820,43.6,-1.54,-21.22,1
2821,43.61,-11.24,-96.59,1
2822,43.63,-6.61,-37.07,1
2823,43.64,-16.34,-43.59,1
2824,43.65,14.3,-51.18,1
2825,43.67,-2.18,-21.83,1
2826,43.68,8.64,-43.45,1
2827,43.69,2.56,-1.7,1
2828,43.71,4.7,-51.2,1
2829,43.72,30.24,-20.08,1
2830,43.73,8.58,-19.15,1
2831,43.75,20.7,-25.7,1
2832,43.76,-3.18,5.64,1
2833,43.77,24.55,-57.61,1
2834,43.79,16.89,-29.04,1
2835,43.8,25.47,11.82,1
2836,43.81,29.57,-9.21,1
2837,43.83,16.17,56.34,1
2838,43.84,7.64,35.58,1
2839,43.85,32.65,6.38,1
2840,43.87,26.99,16.82,1
2841,43.88,14.05,25.37,1
2842,43.89,18.41,26.6,1
2843,43.91,17.9,-9.85,1
2844,43.92,25.87,-13.44,1
2845,43.93,24.14,29.91,1
2846,43.95,23.2,11.83,1
2847,43.96,10.14,17.58,1
2848,43.97,14.85,33.04,1
2849,43.99,25.21,30.6,1
2850,44.0,20.09,30.98,1
2851,44.01,14.38,23.85,1
2852,44.03,5.76,24.69,1
2853,44.04,-0.2,28.52,1
2854,44.05,-7.93,36.33,1
2855,44.06,-14.92,49.23,1
2856,44.08,8.09,37.37,1
2857,44.09,-1.3,12.38,1
2858,44.11,7.72,122.21,1
2859,44.12,-0.39,226.2,1
2860,44.13,-23.58,124.72,1
2861,44.15,-12.88,17.57,1
2862,44.16,-46.69,105.69,1
2863,44.17,260.68,297.53,1
2864,44.19,67.25,220.76,1
2865,44.2,-18.44,-38.02,1
2866,44.21,-119.51,-234.25,1
2867,44.22,79.05,173.94,1
2868,44.24,141.32,-206.89,1
2869,44.25,-84.46,-174.93,1
2870,44.27,69.57,-148.31,1
2871,44.28,63.82,-147.75,1
2872,44.29,-68.54,-359.22,1
2873,44.31,71.92,156.89,1
2874,44.32,69.91,-394.44,1
2875,44.33,-117.35,-102.9,1
2876,44.35,-63.43,1.27,1
2877,44.36,-61.18,-115.98,1
2878,44.37,-176.83,78.34,1
2879,44.385000000000005,-213.44,-150.47,1
2880,44.4,-55.34,-538.07,1
2881,44.41,-100.09,-203.87,1
2882,44.43,30.65,38.79,1
2883,44.44,-300.58,57.14,1
2884,44.45,49.73,175.3,1
2885,44.47,-284.36,-221.95,1
2886,44.48,103.83,282.36,1
2887,44.49,127.55,-359.51,1
2888,44.51,-125.65,510.57,1
2889,44.52,57.85,52.54,1
2890,44.53,150.52,154.23,1
2891,44.55,76.83,-523.52,1
2892,44.56,0.16,-186.41,1
2893,44.57,68.98,-147.66,1
2894,44.59,-104.62,155.71,1
2895,44.6,206.96,147.55,1
2896,44.61,124.78,-53.46,1
2897,44.63,94.8,283.73,1
2898,44.64,-92.46,177.02,1
2899,44.65,15.92,251.65,1
2900,44.67,-166.7,395.51,1
2901,44.68,12.26,397.25,1
2902,44.69,112.03,113.52,1
2903,44.71,-64.83,191.98,1
2904,44.72,132.74,397.31,1
2905,44.73,-56.13,39.39,1
2906,44.75,-138.84,261.59,1
2907,44.76,121.07,95.44,1
2908,44.77,16.19,-5.45,1
2909,44.79,139.26,-208.74,1
2910,44.8,164.02,-6.11,1
2911,44.81,99.29,-18.5,1
2912,44.83,29.76,-78.88,1
2913,44.84,-11.16,265.35,1
2914,44.85,51.32,-286.03,1
2915,44.87,-199.29,-244.69,1
2916,44.88,-63.3,100.31,1
2917,44.89,66.82,39.62,1
2918,44.9,-150.22,-328.02,1
2919,44.92,201.28,-31.8,1
2920,44.93,-229.13,64.93,1
2921,44.95,129.12,-359.71,1
2922,44.96,-146.44,-158.4,1
2923,44.97,68.33,-82.16,1
2924,44.99,-100.69,-256.84,1
2925,45.0,99.18,-326.27,1
2926,45.01,-103.48,-192.37,1
2927,45.03,-86.5,-150.82,1
2928,45.04,57.34,57.74,1
2929,45.05,-70.86,21.87,1
2930,45.07,10.21,280.21,1
2931,45.08,-114.8,273.13,1
2932,45.09,-39.23,99.26,1
2933,45.11,-52.63,-43.42,1
2934,45.12,-79.23,-97.68,1
2935,45.13,-11.14,-210.83,1
2936,45.15,24.31,-315.66,1
2937,45.16,46.61,-259.52,1
2938,45.17,67.54,-191.64,1
2939,45.19,73.31,-115.41,1
2940,45.2,81.05,-11.84,1
2941,45.21,81.54,68.03,1
2942,45.22,87.1,90.57,1
2943,45.24,84.77,143.54,1
2944,45.25,67.27,150.96,1
2945,45.27,67.75,181.79,1
2946,45.28,45.92,176.84,1
2947,45.29,46.93,181.78,1
2948,45.31,24.66,145.34,1
2949,45.32,45.02,139.87,1
2950,45.33,16.52,128.04,1
2951,45.35,14.86,98.36,1
2952,45.36,-5.04,89.94,1
2953,45.37,-9.41,68.26,1
2954,45.38,-1.41,36.23,1
2955,45.4,-21.25,37.48,1
2956,45.41,-23.46,34.39,1
2957,45.43,-27.05,-21.9,1
2958,45.44,-40.42,-0.21,1
2959,45.45,-42.74,22.57,1
2960,45.47,-18.71,-16.88,1
2961,45.48,-39.61,2.41,1
2962,45.49,-48.12,-23.07,1
2963,45.51,-42.33,-32.45,1
2964,45.52,-43.37,-2.97,1
2965,45.53,-41.6,-20.43,1
2966,45.54,-30.11,2.5,1
2967,45.56,-45.07,-22.09,1
2968,45.57,-24.81,-29.0,1
2969,45.59,-36.5,13.67,1
2970,45.6,-37.01,-8.28,1
2971,45.61,-51.73,8.98,1
2972,45.63,-22.12,-48.71,1
2973,45.64,-9.73,-17.91,1
2974,45.65,-9.15,-12.67,1
2975,45.67,-14.65,-42.78,1
2976,45.68,-12.39,-0.4,1
2977,45.69,-10.01,-7.93,1
2978,45.71,-1.28,1.72,1
2979,45.72,-8.82,-5.16,1
2980,45.73,-3.78,-5.06,1
2981,45.75,-17.73,-18.5,1
2982,45.76,-18.88,-42.41,1
2983,45.77,-11.43,-25.21,1
2984,45.79,-9.77,-29.57,1
2985,45.8,8.05,-45.31,1
2986,45.81,13.19,-15.71,1
2987,45.83,24.64,-40.83,1
2988,45.84,29.62,-38.43,1
2989,45.85,22.75,-33.41,1
2990,45.87,15.43,-20.48,1
2991,45.88,17.25,-28.52,1
2992,45.89,11.05,-17.09,1
2993,45.9,13.38,3.52,1
2994,45.92,13.7,-26.84,1
2995,45.93,26.17,-14.09,1
2996,45.95,12.52,-15.77,1
2997,45.96,17.95,3.24,1
2998,45.97,16.92,-11.99,1
2999,45.99,11.0,2.57,1
3000,46.0,22.23,-8.38,1
3001,46.01,12.39,61.64,1
3002,46.03,9.61,-38.22,1
3003,46.04,-11.03,-7.32,1
3004,46.05,5.76,17.42,1
3005,46.06,6.87,-0.13,1
3006,46.08,-14.89,9.11,1
3007,46.09,15.69,30.6,1
3008,46.11,10.85,103.05,1
3009,46.12,14.55,281.56,1
3010,46.13,-7.99,206.74,1
3011,46.15,-19.34,-143.74,1
3012,46.16,-9.92,-270.0,1
3013,46.17,-57.32,-20.66,1
3014,46.19,62.34,-140.65,1
3015,46.2,316.8,151.52,1
3016,46.21,124.67,297.65,1
3017,46.22,67.55,193.26,1
3018,46.24,-7.7,-276.09,1
3019,46.25,284.48,-312.31,1
3020,46.27,126.47,174.68,1
3021,46.28,-104.25,-251.95,1
3022,46.29,29.5,225.65,1
3023,46.31,93.05,37.06,1
3024,46.32,-173.42,-242.92,1
3025,46.33,-261.39,-455.43,1
3026,46.35,-459.67,59.17,1
3027,46.36,4.95,286.93,1
3028,46.37,10.55,-23.27,1
3029,46.39,-154.14,167.25,1
3030,46.4,-90.4,-179.22,1
3031,46.41,-324.76,433.09,1
3032,46.43,105.27,9.77,1
3033,46.44,-200.97,-211.8,1
3034,46.45,43.16,5.32,1
3035,46.47,-280.42,-51.44,1
3036,46.48,-57.85,244.34,1
3037,46.49,60.23,-128.06,1
3038,46.51,110.52,-261.87,1
3039,46.52,-82.44,-395.58,1
3040,46.53,145.51,-327.06,1
3041,46.54,137.36,-189.72,1
3042,46.56,228.0,-134.45,1
3043,46.57,140.09,22.2,1
3044,46.59,30.08,117.63,1
3045,46.6,19.03,299.68,1
3046,46.61,-70.43,491.15,1
3047,46.63,-1.69,69.71,1
3048,46.64,-15.48,324.56,1
3049,46.65,-314.8,88.31,1
3050,46.67,57.86,-148.54,1
3051,46.68,-118.04,-92.39,1
3052,46.69,-2.66,-112.25,1
3053,46.71,386.12,296.86,1
3054,46.72,90.21,59.13,1
3055,46.73,296.85,432.36,1
3056,46.75,89.11,-55.85,1
3057,46.76,-20.29,-31.24,1
3058,46.77,44.68,-81.23,1
3059,46.79,49.85,-328.18,1
3060,46.8,-22.46,119.74,1
3061,46.81,-180.57,174.41,1
3062,46.83,-205.46,-41.54,1
3063,46.84,81.94,261.38,1
3064,46.85,75.76,36.62,1
3065,46.87,284.67,213.84,1
3066,46.88,40.72,166.21,1
3067,46.89,135.42,-24.39,1
3068,46.9,37.15,-529.5,1
3069,46.92,96.96,-318.05,1
3070,46.93,-201.43,-105.21,1
3071,46.95,35.51,-412.32,1
3072,46.96,-18.09,-241.86,1
3073,46.97,22.4,116.86,1
3074,46.99,-79.34,458.81,1
3075,47.0,-94.88,445.84,1
3076,47.01,-120.24,269.14,1
3077,47.03,-182.78,-22.81,1
3078,47.04,-181.5,-113.41,1
3079,47.05,-247.59,-156.39,1
3080,47.07,-136.56,-197.4,1
3081,47.08,-75.21,-199.63,1
3082,47.09,-1.82,-178.67,1
3083,47.11,28.54,-144.95,1
3084,47.12,95.8,-89.92,1
3085,47.13,120.44,-55.33,1
3086,47.15,131.49,-8.74,1
3087,47.16,137.97,2.0,1
3088,47.17,122.36,41.47,1
3089,47.19,132.59,47.63,1
3090,47.2,110.91,73.55,1
3091,47.21,88.58,90.36,1
3092,47.22,84.56,112.16,1
3093,47.24,66.98,69.86,1
3094,47.25,55.98,91.03,1
3095,47.27,20.0,70.83,1
3096,47.28,6.65,92.8,1
3097,47.29,-8.5,46.64,1
3098,47.31,14.54,22.03,1
3099,47.32,-18.83,36.23,1
3100,47.33,-6.23,12.54,1
3101,47.35,-22.96,15.01,1
3102,47.36,-14.13,-24.83,1
3103,47.37,-73.78,-3.92,1
3104,47.38,-62.45,44.29,1
3105,47.4,-83.33,-3.06,1
3106,47.41,-29.01,-6.87,1
3107,47.43,-58.24,5.09,1
3108,47.44,-56.13,-35.28,1
3109,47.45,-63.09,-71.92,1
3110,47.47,-59.13,-61.78,1
3111,47.48,-64.75,-23.23,1
3112,47.49,-38.63,-34.45,1
3113,47.51,-73.27,-0.08,1
3114,47.52,-42.33,-19.96,1
3115,47.53,-34.89,27.64,1
3116,47.54,-44.49,-25.0,1
3117,47.56,-59.21,8.07,1
3118,47.57,-15.76,-29.28,1
3119,47.59,-23.95,-4.23,1
3120,47.6,-16.6,-52.51,1
3121,47.61,-35.01,-26.12,1
3122,47.63,-1.29,-12.09,1
3123,47.64,-13.38,-44.14,1
3124,47.65,-7.09,-44.12,1
3125,47.67,-3.63,-9.23,1
3126,47.68,0.68,-31.89,1
3127,47.69,5.47,-22.02,1
3128,47.71,4.39,-29.01,1
3129,47.72,9.1,-34.27,1
3130,47.73,5.99,4.43,1
3131,47.75,16.69,3.91,1
3132,47.76,2.46,15.66,1
3133,47.77,17.48,-48.71,1
3134,47.79,30.85,-41.72,1
3135,47.8,28.09,-25.1,1
3136,47.81,18.15,-12.88,1
3137,47.83,6.74,-11.13,1
3138,47.84,36.6,21.62,1
3139,47.85,30.81,45.04,1
3140,47.87,17.26,34.21,1
3141,47.88,26.3,32.07,1
3142,47.89,39.37,45.35,1
3143,47.9,4.9,28.61,1
3144,47.92,25.97,12.51,1
3145,47.93,27.65,23.09,1
3146,47.95,21.44,2.14,1
3147,47.96,19.05,-1.08,1
3148,47.97,-0.2,15.67,1
3149,47.99,11.95,30.9,1
3150,48.0,13.28,0.53,1
3151,48.01,9.63,47.98,1
3152,48.03,7.12,32.74,1
3153,48.04,39.8,10.55,1
3154,48.05,27.09,26.64,1
3155,48.06,-9.16,65.06,1
3156,48.08,5.6,101.52,1
3157,48.09,6.45,188.43,1
3158,48.11,7.69,427.4,1
3159,48.12,-7.95,258.74,1
3160,48.13,63.99,208.46,1
3161,48.15,-261.07,109.57,1
3162,48.16,156.46,102.51,1
3163,48.17,-57.05,-78.38,1
3164,48.19,-24.9,-262.97,1
3165,48.2,-29.54,-278.41,1
3166,48.21,271.21,-328.04,1
3167,48.22,273.29,108.09,1
3168,48.24,301.55,-335.46,1
3169,48.25,154.11,-712.27,1
3170,48.27,28.1,-254.71,1
3171,48.28,99.51,-355.31,1
3172,48.29,-134.82,8.5,1
3173,48.31,-257.5,-393.69,1
3174,48.32,-94.73,296.26,1
3175,48.33,-221.57,-134.41,1
3176,48.35,-252.79,-215.67,1
3177,48.36,31.78,154.81,1
3178,48.37,21.55,121.54,1
3179,48.39,-141.25,507.53,1
3180,48.4,69.32,13.27,1
3181,48.41,-293.79,-471.49,1
3182,48.43,138.18,-147.71,1
3183,48.44,-192.06,-208.78,1
3184,48.45,96.56,242.13,1
3185,48.47,-156.93,26.28,1
3186,48.48,-240.27,-3.58,1
3187,48.49,11.65,277.55,1
3188,48.51,-180.06,389.66,1
3189,48.52,-52.24,300.64,1
3190,48.53,85.26,-101.65,1
3191,48.54,37.43,176.75,1
3192,48.56,59.73,-96.96,1
3193,48.57,-32.97,12.75,1
3194,48.59,-254.79,24.29,1
3195,48.6,294.85,179.04,1
3196,48.61,-14.13,474.13,1
3197,48.63,-15.35,160.44,1
3198,48.64,97.85,-33.39,1
3199,48.65,117.28,488.92,1
3200,48.67,-106.86,-4.12,1
3201,48.68,-36.35,-171.5,1
3202,48.69,-93.66,-153.38,1
3203,48.71,341.63,-287.52,1
3204,48.72,66.36,-16.64,1
3205,48.73,-90.79,144.16,1
3206,48.75,126.69,-29.37,1
3207,48.76,240.89,221.12,1
3208,48.77,60.14,-239.93,1
3209,48.79,-59.17,115.26,1
3210,48.8,-57.44,43.45,1
3211,48.81,191.74,-132.77,1
3212,48.83,35.16,272.42,1
3213,48.84,175.21,108.07,1
3214,48.85,-96.69,101.19,1
3215,48.87,142.32,183.86,1
3216,48.88,0.25,-204.96,1
3217,48.89,164.36,-27.23,1
3218,48.9,125.39,-112.32,1
3219,48.92,6.65,-134.49,1
3220,48.93,-180.67,-217.68,1
3221,48.95,-116.52,-340.61,1
3222,48.96,-78.79,-18.79,1
3223,48.97,-32.69,37.73,1
3224,48.99,-82.32,118.8,1
3225,49.0,-52.38,25.33,1
3226,49.01,-82.47,123.87,1
3227,49.03,-87.04,-47.91,1
3228,49.04,-73.31,-113.53,1
3229,49.05,-36.7,-195.2,1
3230,49.06,-1.81,-181.83,1
3231,49.08,10.56,-154.76,1
3232,49.09,35.18,-187.48,1
3233,49.11,67.43,-205.89,1
3234,49.12,62.37,-140.65,1
3235,49.13,30.01,-73.65,1
3236,49.15,23.53,-49.7,1
3237,49.16,48.86,-5.7,1
3238,49.17,60.22,38.56,1
3239,49.19,45.23,70.4,1
3240,49.2,48.83,50.59,1
3241,49.21,19.6,76.9,1
3242,49.22,29.48,161.45,1
3243,49.24,5.1,73.18,1
3244,49.25,3.7,76.67,1
3245,49.27,5.66,68.14,1
3246,49.28,-12.68,62.03,1
3247,49.29,-3.24,29.53,1
3248,49.31,-25.61,24.44,1
3249,49.32,-19.29,21.39,1
3250,49.33,-22.2,-9.92,1
3251,49.35,-29.41,-0.81,1
3252,49.36,-32.77,33.24,1
3253,49.37,-44.92,13.29,1
3254,49.38,-30.19,28.35,1
3255,49.4,-41.18,6.96,1
3256,49.41,-29.48,18.5,1
3257,49.43,-44.79,28.78,1
3258,49.44,-49.78,18.61,1
3259,49.45,-34.6,-1.55,1
3260,49.47,-51.33,9.92,1
3261,49.48,-31.08,24.61,1
3262,49.49,-20.62,15.95,1
3263,49.51,-35.46,24.58,1
3264,49.52,-33.61,-11.18,1
3265,49.53,-26.51,-6.64,1
3266,49.54,-19.35,19.41,1
3267,49.56,-17.15,-35.69,1
3268,49.57,-20.53,0.17,1
3269,49.59,-24.86,-8.0,1
3270,49.6,-21.56,1.79,1
3271,49.61,-17.17,-3.9,1
3272,49.63,-14.73,-28.26,1
3273,49.64,1.72,43.82,1
3274,49.65,-10.59,7.77,1
3275,49.67,4.98,-7.3,1
3276,49.68,14.03,33.46,1
3277,49.69,2.73,-39.2,1
3278,49.71,-12.74,-20.09,1
3279,49.72,-2.26,27.93,1
3280,49.73,7.24,-21.97,1
3281,49.75,12.28,0.14,1
3282,49.76,2.75,39.36,1
3283,49.77,16.36,-13.2,1
3284,49.79,33.25,-3.7,1
3285,49.8,29.29,-0.94,1
3286,49.81,38.4,-23.37,1
3287,49.83,14.79,-0.85,1
3288,49.84,27.02,23.14,1
3289,49.85,22.92,0.63,1
3290,49.87,33.91,-3.57,1
3291,49.88,30.55,-3.29,1
3292,49.89,28.93,-27.61,1
3293,49.9,12.41,11.79,1
3294,49.92,24.19,22.35,1
3295,49.93,32.12,-26.27,1
3296,49.95,14.1,-6.95,1
3297,49.96,-1.51,8.3,1
3298,49.97,18.96,-4.17,1
3299,49.99,9.03,-14.76,1
3300,50.0,14.93,14.9,1
3301,50.01,18.35,49.92,1
3302,50.03,9.26,93.22,1
3303,50.04,11.9,25.55,1
3304,50.05,-17.99,-22.57,1
3305,50.06,-61.28,205.82,1
3306,50.08,-109.82,329.93,1
3307,50.09,157.92,-125.26,1
3308,50.11,193.81,-374.94,1
3309,50.12,202.52,356.34,1
3310,50.13,-24.59,192.76,1
3311,50.15,98.54,28.45,1
3312,50.16,-76.97,-264.92,1
3313,50.17,21.59,-49.74,1
3314,50.19,16.7,-685.58,1
3315,50.2,-152.91,-64.7,1
3316,50.21,46.37,-80.26,1
3317,50.22,24.69,-473.5,1
3318,50.24,-32.14,-126.98,1
3319,50.25,-247.35,-373.2,1
3320,50.27,-73.29,-114.31,1
3321,50.28,-109.0,-238.88,1
3322,50.29,10.47,124.02,1
3323,50.31,36.89,360.39,1
3324,50.32,-34.24,477.02,1
3325,50.33,-153.07,124.72,1
3326,50.35,-69.12,149.64,1
3327,50.36,-159.89,291.44,1
3328,50.37,32.72,452.03,1
3329,50.38,-214.01,301.19,1
3330,50.4,22.23,86.53,1
3331,50.41,-21.3,-231.16,1
3332,50.43,-6.9,-194.76,1
3333,50.44,255.62,-201.91,1
3334,50.45,-167.36,100.89,1
3335,50.47,62.58,307.46,1
3336,50.48,-112.04,-413.75,1
3337,50.49,17.21,-223.99,1
3338,50.51,140.65,225.88,1
3339,50.52,136.34,523.92,1
3340,50.53,101.1,269.72,1
3341,50.54,125.5,180.0,1
3342,50.56,178.43,243.54,1
3343,50.57,123.14,9.84,1
3344,50.59,-166.16,-462.54,1
3345,50.6,27.8,-588.29,1
3346,50.61,-0.71,-229.55,1
3347,50.63,95.59,-92.75,1
3348,50.64,-127.12,-247.81,1
3349,50.65,287.99,-90.39,1
3350,50.67,-122.65,-270.37,1
3351,50.68,51.14,126.64,1
3352,50.69,-109.01,-251.02,1
3353,50.71,-8.17,105.42,1
3354,50.72,-106.53,-274.2,1
3355,50.73,-213.86,102.48,1
3356,50.75,131.76,8.89,1
3357,50.76,-175.76,-114.5,1
3358,50.77,142.37,205.12,1
3359,50.79,72.19,324.18,1
3360,50.8,136.33,452.72,1
3361,50.81,195.95,-227.07,1
3362,50.83,80.83,325.23,1
3363,50.84,-20.79,30.47,1
3364,50.85,-149.96,-36.62,1
3365,50.87,26.56,329.56,1
3366,50.88,-28.65,-80.63,1
3367,50.89,-209.97,134.17,1
3368,50.91,42.38,61.49,1
3369,50.92,-74.98,71.55,1
3370,50.93,-33.88,4.8,1
3371,50.95,-91.3,76.47,1
3372,50.96,-51.38,189.38,1
3373,50.97,-70.14,326.14,1
3374,50.99,-66.74,235.95,1
3375,51.0,-118.08,221.64,1
3376,51.01,-106.3,67.89,1
3377,51.03,-61.96,-114.84,1
3378,51.04,-43.01,-252.79,1
3379,51.05,-1.18,-274.63,1
3380,51.06,49.81,-252.65,1
3381,51.08,67.79,-209.7,1
3382,51.09,87.52,-238.57,1
3383,51.11,112.27,-246.39,1
3384,51.12,112.97,-244.22,1
3385,51.13,113.41,-190.79,1
3386,51.15,115.06,-112.06,1
3387,51.16,120.26,-47.81,1
3388,51.17,91.69,-66.54,1
3389,51.19,74.44,-49.07,1
3390,51.2,53.34,28.32,1
3391,51.21,36.22,-24.24,1
3392,51.22,22.85,6.16,1
3393,51.24,7.7,16.38,1
3394,51.25,9.52,25.29,1
3395,51.27,15.59,30.79,1
3396,51.28,-14.82,6.21,1
3397,51.29,-19.87,34.88,1
3398,51.31,-16.35,-25.61,1
3399,51.32,-35.21,50.07,1
3400,51.33,-21.65,-1.82,1
3401,51.35,-18.47,9.9,1
3402,51.36,-17.92,24.76,1
3403,51.37,-19.09,32.41,1
3404,51.38,-34.23,1.7,1
3405,51.4,-43.23,-19.13,1
3406,51.41,-29.69,-14.87,1
3407,51.43,-44.08,34.9,1
3408,51.44,-51.87,29.49,1
3409,51.45,-32.08,48.41,1
3410,51.47,-26.78,21.07,1
3411,51.48,-26.86,41.02,1
3412,51.49,-27.21,25.94,1
3413,51.51,-24.39,34.62,1
3414,51.52,-26.95,10.36,1
3415,51.53,-27.01,27.74,1
3416,51.55,-30.8,10.96,1
3417,51.56,-42.19,1.51,1
3418,51.57,-23.94,45.64,1
3419,51.59,-23.51,28.04,1
3420,51.6,-20.09,15.14,1
3421,51.61,-10.48,44.63,1
3422,51.63,-15.94,38.08,1
3423,51.64,-13.19,33.56,1
3424,51.65,-3.61,3.27,1
3425,51.67,-12.79,21.45,1
3426,51.68,-9.48,3.89,1
3427,51.69,-3.43,37.41,1
3428,51.71,1.32,20.66,1
3429,51.72,-4.44,-32.02,1
3430,51.73,15.56,30.87,1
3431,51.75,4.08,27.89,1
3432,51.76,-5.26,13.88,1
3433,51.77,-0.4,7.26,1
3434,51.79,4.83,32.37,1
3435,51.8,8.65,-17.92,1
3436,51.81,18.96,-7.55,1
3437,51.83,8.64,10.85,1
3438,51.84,25.72,26.05,1
3439,51.85,12.18,-24.43,1
3440,51.87,6.42,-9.43,1
3441,51.88,24.1,13.43,1
3442,51.89,7.63,-6.38,1
3443,51.9,20.39,-35.53,1
3444,51.92,23.18,-24.13,1
3445,51.93,18.29,-14.99,1
3446,51.95,16.51,-6.4,1
3447,51.96,28.94,-22.39,1
3448,51.97,6.41,10.79,1
3449,51.99,22.4,-42.31,1
3450,52.0,7.88,4.88,1
3451,52.01,16.88,-2.85,1
3452,52.03,23.44,-14.16,1
3453,52.04,12.58,-4.95,1
3454,52.05,6.63,22.12,1
3455,52.06,-0.35,58.19,1
3456,52.08,-17.75,166.74,1
3457,52.09,11.15,293.63,1
3458,52.11,14.99,178.89,1
3459,52.12,6.56,-36.38,1
3460,52.13,146.34,-126.92,1
3461,52.15,62.21,81.88,1
3462,52.16,-101.91,-56.91,1
3463,52.17,-105.17,-294.33,1
3464,52.19,-100.07,282.03,1
3465,52.2,40.32,-7.26,1
3466,52.21,120.77,59.34,1
3467,52.23,151.36,-273.44,1
3468,52.24,94.73,-504.81,1
3469,52.25,37.81,-171.86,1
3470,52.27,143.77,-4.82,1
3471,52.28,-68.97,-599.38,1
3472,52.29,173.22,-238.05,1
3473,52.31,12.82,-119.61,1
3474,52.32,-152.76,-95.19,1
3475,52.33,169.73,-305.34,1
3476,52.35,-81.17,-72.55,1
3477,52.36,-138.07,347.9,1
3478,52.37,-175.72,81.56,1
3479,52.38,-253.34,-75.74,1
3480,52.4,-280.7,261.0,1
3481,52.41,46.05,84.41,1
3482,52.43,-121.59,356.98,1
3483,52.44,-69.26,-338.05,1
3484,52.45,-247.73,211.99,1
3485,52.47,52.3,-51.48,1
3486,52.48,-50.48,170.35,1
3487,52.49,45.96,278.78,1
3488,52.51,15.2,615.66,1
3489,52.52,47.18,324.66,1
3490,52.53,-96.79,38.03,1
3491,52.54,-26.29,-96.3,1
3492,52.56,-45.61,374.42,1
3493,52.57,18.13,255.26,1
3494,52.59,-20.35,-116.75,1
3495,52.6,123.9,-562.54,1
3496,52.61,39.14,-25.42,1
3497,52.63,1.22,-96.81,1
3498,52.64,-118.77,181.93,1
3499,52.65,72.71,255.85,1
3500,52.67,41.78,-152.32,1
3501,52.68,170.74,-500.16,1
3502,52.69,148.04,-69.82,1
3503,52.71,8.31,-193.08,1
3504,52.72,30.1,-282.48,1
3505,52.73,159.39,164.92,1
3506,52.75,121.04,181.42,1
3507,52.76,185.27,-266.84,1
3508,52.77,-135.96,177.72,1
3509,52.79,28.24,-70.94,1
3510,52.8,-5.18,400.64,1
3511,52.81,161.57,-16.11,1
3512,52.83,64.98,202.37,1
3513,52.84,286.65,167.48,1
3514,52.85,-49.38,-215.42,1
3515,52.87,19.48,-120.99,1
3516,52.88,-90.46,-124.07,1
3517,52.89,-80.08,82.13,1
3518,52.9,-91.2,195.19,1
3519,52.92,-18.98,-214.83,1
3520,52.93,-111.4,28.47,1
3521,52.95,42.11,-79.66,1
3522,52.96,-11.06,-63.97,1
3523,52.97,-16.8,-100.06,1
3524,52.99,-5.81,37.81,1
3525,53.0,-43.51,99.49,1
3526,53.01,-57.77,141.39,1
3527,53.03,-114.57,168.0,1
3528,53.04,-111.03,152.97,1
3529,53.05,-165.35,-76.01,1
3530,53.06,-106.96,-179.73,1
3531,53.08,-75.25,-141.38,1
3532,53.09,-38.36,-143.62,1
3533,53.11,32.68,-153.57,1
3534,53.12,42.02,-190.82,1
3535,53.13,70.35,-87.52,1
3536,53.15,80.91,-66.52,1
3537,53.16,72.22,10.21,1
3538,53.17,94.03,8.11,1
3539,53.19,81.73,49.03,1
3540,53.2,80.29,39.59,1
3541,53.21,81.46,61.74,1
3542,53.22,54.27,75.61,1
3543,53.24,72.72,77.23,1
3544,53.25,54.76,73.08,1
3545,53.27,29.6,95.27,1
3546,53.28,26.34,61.35,1
3547,53.29,27.84,72.19,1
3548,53.31,21.02,57.15,1
3549,53.32,-4.92,34.74,1
3550,53.33,-2.51,86.48,1
3551,53.35,-14.74,65.2,1
3552,53.36,-26.0,70.52,1
3553,53.37,-30.66,17.85,1
3554,53.38,-18.97,45.2,1
3555,53.4,-32.88,12.64,1
3556,53.41,-52.31,32.85,1
3557,53.43,-48.89,-43.75,1
3558,53.44,-49.98,-9.75,1
3559,53.45,-47.55,-36.91,1
3560,53.47,-58.19,-35.33,1
3561,53.48,-38.34,-24.22,1
3562,53.49,-42.8,-32.44,1
3563,53.51,-57.68,-39.86,1
3564,53.52,-45.76,-59.34,1
3565,53.53,-39.3,-49.03,1
3566,53.54,-28.08,-48.76,1
3567,53.56,-34.84,-15.87,1
3568,53.57,-25.59,-26.99,1
3569,53.59,-24.21,-34.77,1
3570,53.6,-19.45,-40.62,1
3571,53.61,-35.56,-49.55,1
3572,53.63,-10.91,-51.54,1
3573,53.64,-29.85,-21.8,1
3574,53.65,-6.49,-61.84,1
3575,53.67,-13.85,-51.8,1
3576,53.68,-3.08,-45.09,1
3577,53.69,-12.15,-33.24,1
3578,53.71,13.8,-32.49,1
3579,53.72,-1.93,-4.83,1
3580,53.73,12.94,-46.91,1
3581,53.75,11.63,5.75,1
3582,53.76,15.94,-9.58,1
3583,53.77,12.08,-1.19,1
3584,53.79,5.58,25.49,1
3585,53.8,6.89,21.56,1
3586,53.81,5.07,31.4,1
3587,53.83,1.51,19.62,1
3588,53.84,27.19,15.91,1
3589,53.85,25.54,46.29,1
3590,53.87,17.65,31.33,1
3591,53.88,18.78,30.95,1
3592,53.89,28.32,12.37,1
3593,53.9,7.07,-5.32,1
3594,53.92,11.23,5.84,1
3595,53.93,13.39,25.71,1
3596,53.95,13.67,17.55,1
3597,53.96,16.21,-2.92,1
3598,53.97,17.18,6.81,1
3599,53.99,21.45,45.04,1
3600,54.0,12.04,25.04,1
3601,54.01,19.13,-1.98,1
3602,54.03,37.49,23.03,1
3603,54.04,33.63,-7.39,1
3604,54.05,17.35,27.79,1
3605,54.06,20.64,18.41,1
3606,54.08,-11.92,8.68,1
3607,54.09,3.65,4.09,1
3608,54.11,5.26,27.3,1
3609,54.12,18.82,-25.71,1
3610,54.13,12.74,60.44,1
3611,54.15,8.6,522.92,1
3612,54.16,85.25,272.44,1
3613,54.17,-22.3,266.42,1
3614,54.19,7.73,-12.0,1
3615,54.2,-15.99,-221.65,1
3616,54.21,361.07,54.93,1
3617,54.22,107.22,-174.52,1
3618,54.24,-10.87,11.81,1
3619,54.25,-119.11,-101.34,1
3620,54.27,-189.42,-55.16,1
3621,54.28,76.94,-154.75,1
3622,54.29,-40.74,-495.1,1
3623,54.31,30.18,-256.21,1
3624,54.32,91.75,-168.93,1
3625,54.33,14.99,-61.01,1
3626,54.35,19.57,-355.25,1
3627,54.36,-155.5,-18.68,1
3628,54.37,-151.87,-75.84,1
3629,54.38,-83.25,-237.51,1
3630,54.4,111.87,-360.05,1
3631,54.41,-129.89,-88.67,1
3632,54.43,-80.24,207.77,1
3633,54.44,-295.01,78.06,1
3634,54.45,-218.5,-163.67,1
3635,54.47,-84.58,-73.84,1
3636,54.48,80.28,-25.41,1
3637,54.49,-215.36,283.47,1
3638,54.51,-5.17,67.99,1
3639,54.52,-286.8,466.7,1
3640,54.53,-115.08,118.73,1
3641,54.54,168.93,19.6,1
3642,54.56,31.93,204.99,1
3643,54.57,184.79,379.96,1
3644,54.59,-93.58,-44.75,1
3645,54.6,-88.56,495.17,1
3646,54.61,104.37,382.43,1
3647,54.63,97.99,-127.75,1
3648,54.64,311.16,-137.49,1
3649,54.65,80.32,342.92,1
3650,54.67,144.45,-131.8,1
3651,54.68,103.92,24.51,1
3652,54.69,316.52,-134.6,1
3653,54.71,269.77,62.84,1
3654,54.72,-76.82,-16.91,1
3655,54.73,68.1,-311.92,1
3656,54.75,6.09,186.38,1
3657,54.76,24.45,327.4,1
3658,54.77,-93.99,-43.47,1
3659,54.79,-3.4,-74.87,1
3660,54.8,81.86,-79.67,1
3661,54.81,-150.77,-78.18,1
3662,54.83,65.18,128.95,1
3663,54.84,-126.25,-56.0,1
3664,54.85,65.73,-28.26,1
3665,54.87,-211.28,135.64,1
3666,54.88,244.11,-38.51,1
3667,54.89,-0.61,16.79,1
3668,54.9,59.51,155.86,1
3669,54.92,78.11,-443.8,1
3670,54.93,-26.59,-157.35,1
3671,54.95,-18.85,0.79,1
3672,54.96,74.87,-90.69,1
3673,54.97,-99.22,-43.97,1
3674,54.99,-80.25,-102.33,1
3675,55.0,-107.96,46.21,1
3676,55.01,-167.01,41.3,1
3677,55.03,-142.85,150.45,1
3678,55.04,-141.79,151.66,1
3679,55.05,-175.45,40.61,1
3680,55.06,-140.66,-17.1,1
3681,55.08,-107.49,-130.47,1
3682,55.09,-55.46,-287.29,1
3683,55.11,4.16,-297.95,1
3684,55.12,34.84,-282.31,1
3685,55.13,59.12,-285.55,1
3686,55.15,89.59,-221.66,1
3687,55.16,104.92,-86.42,1
3688,55.17,81.04,-71.72,1
3689,55.19,98.18,-64.19,1
3690,55.2,55.58,67.51,1
3691,55.21,80.2,126.15,1
3692,55.22,63.02,92.52,1
3693,55.24,60.95,98.65,1
3694,55.25,57.43,113.9,1
3695,55.27,58.08,102.23,1
3696,55.28,45.77,109.25,1
3697,55.29,35.91,128.66,1
3698,55.31,19.49,72.68,1
3699,55.32,5.98,139.69,1
3700,55.33,13.66,128.48,1
3701,55.35,-2.55,83.41,1
3702,55.36,-1.28,57.23,1
3703,55.37,1.26,77.61,1
3704,55.38,-6.79,52.46,1
3705,55.4,-12.39,66.93,1
3706,55.41,-12.92,8.81,1
3707,55.43,-17.97,40.91,1
3708,55.44,-16.16,5.42,1
3709,55.45,-34.12,14.54,1
3710,55.47,-20.5,3.19,1
3711,55.48,-27.18,-8.03,1
3712,55.49,-28.73,-26.54,1
3713,55.51,-23.99,14.31,1
3714,55.52,-27.15,-10.18,1
3715,55.53,-19.15,-10.82,1
3716,55.54,-30.93,-33.35,1
3717,55.56,-16.05,-50.92,1
3718,55.57,-24.01,-0.75,1
3719,55.59,-35.82,-35.48,1
3720,55.6,-30.37,-35.73,1
3721,55.61,-24.87,-31.12,1
3722,55.63,-34.14,-41.47,1
3723,55.64,-9.92,-21.24,1
3724,55.65,-26.68,-58.99,1
3725,55.67,-13.63,-15.39,1
3726,55.68,-26.73,7.15,1
3727,55.69,-10.21,-27.92,1
3728,55.71,-17.46,3.94,1
3729,55.72,-4.12,-7.94,1
3730,55.73,-13.35,15.45,1
3731,55.75,-10.39,-3.03,1
3732,55.76,8.65,15.93,1
3733,55.77,-2.72,-0.96,1
3734,55.79,1.3,3.75,1
3735,55.8,8.26,7.67,1
3736,55.81,6.33,-8.44,1
3737,55.83,6.86,-19.67,1
3738,55.84,22.13,19.16,1
3739,55.85,16.47,5.34,1
3740,55.87,3.64,-3.76,1
3741,55.88,5.7,-28.98,1
3742,55.89,16.93,-31.05,1
3743,55.9,20.49,11.36,1
3744,55.92,18.96,-36.83,1
3745,55.93,1.26,10.92,1
3746,55.95,1.83,-27.6,1
3747,55.96,15.84,-2.93,1
3748,55.97,19.08,-18.99,1
3749,55.99,0.85,-22.45,1
3750,56.0,25.09,4.33,1
3751,56.01,10.25,35.57,1
3752,56.03,24.49,2.61,1
3753,56.04,19.17,22.59,1
3754,56.05,21.08,10.98,1
3755,56.06,4.84,13.39,1
3756,56.08,15.33,19.37,1
3757,56.09,6.61,37.02,1
3758,56.11,5.45,124.86,1
3759,56.12,7.5,228.8,1
3760,56.13,12.59,59.32,1
3761,56.15,-16.21,26.63,1
3762,56.16,19.47,159.01,1
3763,56.17,10.19,7.07,1
3764,56.19,166.29,-127.8,1
3765,56.2,142.8,226.68,1
3766,56.21,-26.33,-119.37,1
3767,56.22,-10.21,-304.21,1
3768,56.24,-60.87,-64.81,1
3769,56.25,-3.72,175.99,1
3770,56.27,-16.76,-306.96,1
3771,56.28,273.05,-582.96,1
3772,56.29,114.28,-153.02,1
3773,56.31,38.51,243.12,1
3774,56.32,-143.09,-330.33,1
3775,56.33,-226.0,163.2,1
3776,56.35,-67.36,136.13,1
3777,56.36,-75.46,-291.43,1
3778,56.37,76.41,-85.33,1
3779,56.38,-246.46,-150.23,1
3780,56.4,-45.21,277.89,1
3781,56.41,-15.61,-116.06,1
3782,56.43,-241.14,237.06,1
3783,56.44,-91.33,-16.77,1
3784,56.45,-35.26,83.43,1
3785,56.47,-64.02,-165.69,1
3786,56.48,62.1,-74.82,1
3787,56.49,-264.27,302.39,1
3788,56.51,51.31,139.17,1
3789,56.52,200.69,240.69,1
3790,56.53,-140.45,460.69,1
3791,56.54,49.85,103.61,1
3792,56.56,79.61,31.46,1
3793,56.57,240.54,187.65,1
3794,56.59,-191.75,123.63,1
3795,56.6,28.6,179.92,1
3796,56.61,-214.12,33.83,1
3797,56.63,92.63,-96.43,1
3798,56.64,0.32,-134.96,1
3799,56.65,-105.44,-270.39,1
3800,56.67,-87.42,-490.22,1
3801,56.68,100.51,-211.03,1
3802,56.69,-94.56,-106.74,1
3803,56.71,271.63,132.69,1
3804,56.72,-44.93,-207.09,1
3805,56.73,223.6,269.92,1
3806,56.75,-211.68,-35.59,1
3807,56.76,206.65,-92.79,1
3808,56.77,87.53,218.79,1
3809,56.79,200.35,335.26,1
3810,56.8,216.1,166.99,1
3811,56.81,-41.98,-154.79,1
3812,56.83,178.74,-175.7,1
3813,56.84,-103.09,180.22,1
3814,56.85,222.51,-364.06,1
3815,56.87,-191.13,-221.41,1
3816,56.88,112.11,-103.14,1
3817,56.89,-24.95,-262.12,1
3818,56.9,220.73,1.76,1
3819,56.92,-15.71,5.7,1
3820,56.93,-70.45,-230.89,1
3821,56.95,-33.09,4.73,1
3822,56.96,5.19,-19.29,1
3823,56.97,43.35,-122.77,1
3824,56.99,-20.56,-18.54,1
3825,57.0,-35.94,55.11,1
3826,57.01,-103.92,141.19,1
3827,57.03,-81.4,215.52,1
3828,57.04,-104.85,349.93,1
3829,57.05,-218.08,407.3,1
3830,57.06,-118.97,240.11,1
3831,57.08,-75.35,30.16,1
3832,57.09,-55.92,-74.28,1
3833,57.11,-32.19,-193.35,1
3834,57.12,15.28,-210.41,1
3835,57.13,43.04,-140.59,1
3836,57.15,39.65,-111.21,1
3837,57.16,74.89,-74.25,1
3838,57.17,48.32,-28.82,1
3839,57.19,65.43,7.31,1
3840,57.2,64.34,81.87,1
3841,57.21,70.11,112.06,1
3842,57.22,57.29,120.12,1
3843,57.24,53.84,108.36,1
3844,57.25,40.31,115.04,1
3845,57.27,20.57,86.97,1
3846,57.28,-3.58,89.09,1
3847,57.29,0.8,95.57,1
3848,57.31,-16.96,64.77,1
3849,57.32,-10.82,54.01,1
3850,57.33,-18.21,50.24,1
3851,57.35,-26.69,43.46,1
3852,57.36,-29.86,14.41,1
3853,57.37,-20.73,27.43,1
3854,57.38,-32.59,-13.17,1
3855,57.4,-31.22,-5.89,1
3856,57.41,-34.17,-36.4,1
3857,57.43,-17.6,-19.23,1
3858,57.44,-28.44,-37.29,1
3859,57.45,-13.43,-46.9,1
3860,57.47,-40.19,-64.46,1
3861,57.48,-38.94,-51.39,1
3862,57.49,-23.91,-40.79,1
3863,57.51,-24.66,-34.82,1
3864,57.52,-27.31,-36.67,1
3865,57.53,-18.71,14.83,1
3866,57.54,-34.83,-63.08,1
3867,57.56,-9.17,-48.67,1
3868,57.57,-0.13,-52.01,1
3869,57.59,-11.64,-33.68,1
3870,57.6,-21.89,-55.61,1
3871,57.61,-11.26,-43.24,1
3872,57.63,-24.1,-51.43,1
3873,57.64,-3.04,-48.45,1
3874,57.65,2.38,-15.13,1
3875,57.67,6.07,-48.67,1
3876,57.68,-7.31,-42.15,1
3877,57.69,-6.81,-51.22,1
3878,57.71,-3.44,-57.9,1
3879,57.72,-8.57,-16.52,1
3880,57.73,-3.74,-45.38,1
3881,57.75,15.41,-43.79,1
3882,57.76,14.44,-74.69,1
3883,57.77,17.73,6.3,1
3884,57.79,3.99,-24.76,1
3885,57.8,0.18,27.73,1
3886,57.81,15.84,9.42,1
3887,57.83,12.55,14.55,1
3888,57.84,4.96,1.48,1
3889,57.85,9.55,-11.05,1
3890,57.87,15.44,-4.24,1
3891,57.88,5.32,25.34,1
3892,57.89,9.99,11.28,1
3893,57.9,18.02,5.04,1
3894,57.92,17.39,54.16,1
3895,57.93,14.14,41.83,1
3896,57.95,17.86,10.85,1
3897,57.96,4.01,-1.02,1
3898,57.97,14.04,54.36,1
3899,57.99,28.47,-0.82,1
3900,58.0,21.01,25.8,1
3901,58.01,13.09,6.53,1
3902,58.025000000000006,2.01,24.1,1
3903,58.04,8.54,35.97,1
3904,58.05,13.87,49.34,1
3905,58.06,10.5,24.03,1
3906,58.08,-0.49,18.32,1
3907,58.09,-12.04,15.16,1
3908,58.11,16.42,-52.83,1
3909,58.12,13.91,-7.15,1
3910,58.13,22.71,568.61,1
3911,58.15,-7.92,281.72,1
3912,58.16,76.35,287.39,1
3913,58.17,137.28,120.66,1
3914,58.19,43.66,-21.48,1
3915,58.2,172.95,41.86,1
3916,58.21,-136.89,-158.14,1
3917,58.22,4.87,-14.44,1
3918,58.24,245.81,-457.05,1
3919,58.25,57.32,-256.71,1
3920,58.27,202.54,-456.79,1
3921,58.28,9.34,-438.2,1
3922,58.29,1.05,133.22,1
3923,58.31,-256.4,66.54,1
3924,58.32,-124.77,-173.64,1
3925,58.33,-253.19,-378.51,1
3926,58.35,14.5,-243.1,1
3927,58.36,-212.03,-19.39,1
3928,58.37,-119.22,30.1,1
3929,58.38,-96.61,-131.9,1
3930,58.4,-51.15,205.25,1
3931,58.41,86.85,298.95,1
3932,58.43,-242.54,-262.56,1
3933,58.44,-158.4,-90.66,1
3934,58.45,-133.38,304.71,1
3935,58.47,-221.04,433.83,1
3936,58.48,98.07,-34.09,1
3937,58.49,-168.87,154.2,1
3938,58.51,38.52,339.42,1
3939,58.52,22.81,133.61,1
3940,58.53,191.07,-361.81,1
3941,58.54,-37.6,14.85,1
3942,58.56,24.13,-364.36,1
3943,58.57,100.02,251.6,1
3944,58.59,85.6,417.04,1
3945,58.6,114.45,-108.44,1
3946,58.61,10.33,137.09,1
3947,58.63,-27.89,-86.55,1
3948,58.64,4.15,-92.06,1
3949,58.65,225.66,16.58,1
3950,58.66,-28.12,194.25,1
3951,58.68,115.54,-368.73,1
3952,58.69,27.98,-91.78,1
3953,58.71,1.56,43.86,1
3954,58.72,166.77,196.26,1
3955,58.73,102.7,8.65,1
3956,58.75,68.92,643.85,1
3957,58.76,105.76,433.05,1
3958,58.77,-109.13,152.07,1
3959,58.79,-2.61,-330.04,1
3960,58.8,41.74,300.84,1
3961,58.81,-280.58,-134.08,1
3962,58.83,-124.79,-52.58,1
3963,58.84,-180.84,-91.04,1
3964,58.85,192.42,-163.09,1
3965,58.87,222.52,-210.62,1
3966,58.88,10.67,-144.04,1
3967,58.89,-168.37,-14.4,1
3968,58.9,54.26,-76.62,1
3969,58.92,-109.35,18.74,1
3970,58.93,170.81,-92.76,1
3971,58.95,-1.72,-142.33,1
3972,58.96,106.06,-7.31,1
3973,58.97,43.3,143.01,1
3974,58.99,-11.39,189.85,1
3975,59.0,-18.06,200.1,1
3976,59.01,-29.01,233.2,1
3977,59.03,-19.92,83.96,1
3978,59.04,-42.96,-120.05,1
3979,59.05,-63.71,-243.09,1
3980,59.06,15.89,-184.59,1
3981,59.08,37.91,-187.2,1
3982,59.09,42.12,-204.48,1
3983,59.11,48.72,-200.21,1
3984,59.12,59.05,-225.14,1
3985,59.13,69.77,-159.82,1
3986,59.15,70.07,-101.51,1
3987,59.16,68.18,-32.82,1
3988,59.17,47.98,-1.03,1
3989,59.19,24.33,42.3,1
3990,59.2,23.05,39.29,1
3991,59.21,-4.84,86.93,1
3992,59.22,6.2,46.33,1
3993,59.24,-1.74,55.21,1
3994,59.25,10.16,59.49,1
3995,59.27,-3.32,23.42,1
3996,59.28,-32.54,33.91,1
3997,59.29,-40.08,32.43,1
3998,59.3,-51.38,16.49,1
3999,59.32,-46.18,11.71,1
4000,59.33,-39.89,-18.13,1
4001,59.35,-48.9,-3.43,1
4002,59.36,-50.77,13.6,1
4003,59.37,-37.57,6.62,1
4004,59.38,-52.68,42.41,1
4005,59.4,-53.56,20.12,1
4006,59.41,-64.07,-1.24,1
4007,59.43,-50.61,14.28,1
4008,59.44,-49.35,56.19,1
4009,59.45,-42.31,20.77,1
4010,59.47,-49.47,24.74,1
4011,59.48,-28.87,-2.06,1
4012,59.49,-37.52,23.35,1
4013,59.51,-41.87,37.97,1
4014,59.52,-31.31,5.94,1
4015,59.53,-27.1,18.58,1
4016,59.54,-23.84,13.02,1
4017,59.56,-23.5,1.39,1
4018,59.57,-11.91,-5.51,1
4019,59.59,-13.65,51.77,1
4020,59.6,-7.84,-5.07,1
4021,59.61,1.73,4.96,1
4022,59.63,-11.56,5.9,1
4023,59.64,0.56,10.69,1
4024,59.65,2.03,38.64,1
4025,59.67,10.63,9.16,1
4026,59.68,9.75,-10.98,1
4027,59.69,24.91,-32.46,1
4028,59.71,3.29,-20.19,1
4029,59.72,18.43,8.34,1
4030,59.73,6.31,4.09,1
4031,59.75,27.61,12.27,1
4032,59.76,18.43,-2.04,1
4033,59.77,22.64,10.76,1
4034,59.79,13.47,-9.79,1
4035,59.8,24.25,28.45,1
4036,59.81,9.59,-15.95,1
4037,59.83,21.91,31.58,1
4038,59.84,25.33,-25.7,1
4039,59.85,17.66,14.74,1
4040,59.87,23.51,-34.65,1
4041,59.88,37.55,1.57,1
4042,59.89,38.49,-21.15,1
4043,59.9,18.6,-10.96,1
4044,59.92,29.23,-19.6,1
4045,59.93,15.27,-19.19,1
4046,59.94,15.72,-16.04,1
4047,59.96,23.98,-4.48,1
4048,59.97,6.1,32.32,1
4049,59.98,6.27,19.35,1
4050,60.0,14.08,19.07,1
