,Timestamp,Data1,Data2,Label
0,6.0,-5.88,-3.32,1
1,6.01,-4.22,2.26,1
2,6.03,-10.51,-22.18,1
3,6.04,-6.27,-1.29,1
4,6.05,-2.05,8.82,1
5,6.07,-2.77,-7.87,1
6,6.08,10.16,-10.24,1
7,6.09,5.36,-4.93,1
8,6.11,-6.94,14.86,1
9,6.12,8.94,-5.34,1
10,6.13,21.51,-4.49,1
11,6.15,-13.66,3.89,1
12,6.16,12.89,-6.21,1
13,6.17,7.36,8.14,1
14,6.19,26.39,16.0,1
15,6.2,49.27,126.68,1
16,6.21,38.87,185.1,1
17,6.23,175.9,384.4,1
18,6.24,-252.26,230.96,1
19,6.25,-79.57,155.09,1
20,6.27,-47.89,-104.83,1
21,6.28,-118.71,-234.64,1
22,6.29,99.53,-44.56,1
23,6.31,-13.1,-191.75,1
24,6.32,106.61,86.25,1
25,6.33,171.57,-1.83,1
26,6.35,-0.85,93.27,1
27,6.36,38.59,9.25,1
28,6.37,132.58,-2.64,1
29,6.39,149.36,-43.75,1
30,6.4,116.37,-64.66,1
31,6.41,-159.12,-87.27,1
32,6.43,3.99,-103.15,1
33,6.44,-237.29,-115.96,1
34,6.45,53.03,-124.34,1
35,6.47,39.79,-129.3,1
36,6.48,171.82,-131.3,1
37,6.49,71.48,-129.86,1
38,6.51,-407.11,-125.85,1
39,6.52,-25.42,-121.37,1
40,6.53,-89.5,-114.84,1
41,6.55,18.59,-106.57,1
42,6.56,-110.58,-98.48,1
43,6.57,-246.05,-87.85,1
44,6.59,-104.56,-77.05,1
45,6.6,33.85,-66.54,1
46,6.61,-327.15,-54.65,1
47,6.63,-32.83,-43.68,1
48,6.64,-178.78,-32.22,1
49,6.65,71.77,-20.54,1
50,6.67,150.26,-9.72,1
51,6.68,-112.37,0.0,1
52,6.69,153.44,9.14,1
53,6.71,-24.61,20.0,1
54,6.72,112.55,28.64,1
55,6.73,30.29,36.6,1
56,6.75,1.52,43.37,1
57,6.76,-138.81,49.85,1
58,6.77,324.96,55.71,1
59,6.79,-30.27,61.87,1
60,6.8,95.07,65.52,1
61,6.81,129.78,68.15,1
62,6.83,25.3,71.85,1
63,6.84,90.08,74.91,1
64,6.85,-102.61,75.37,1
65,6.87,135.31,76.61,1
66,6.88,283.4,-122.02,1
67,6.89,-108.77,-391.57,1
68,6.91,14.62,-41.56,1
69,6.92,-52.12,-341.75,1
70,6.93,107.57,-229.43,1
71,6.95,67.11,-163.8,1
72,6.96,-47.41,-4.66,1
73,6.97,-65.07,-102.7,1
74,6.99,-135.75,-137.05,1
75,7.0,-197.24,-76.91,1
76,7.01,-176.61,12.74,1
77,7.03,-95.54,87.09,1
78,7.04,-0.92,155.18,1
79,7.05,33.71,211.25,1
80,7.07,94.6,308.72,1
81,7.08,105.79,449.22,1
82,7.09,116.49,503.22,1
83,7.11,133.08,510.0,1
84,7.12,121.84,445.88,1
85,7.13,117.35,367.45,1
86,7.15,114.64,328.92,1
87,7.16,121.97,301.8,1
88,7.17,79.97,268.38,1
89,7.19,76.72,232.05,1
90,7.2,49.1,239.06,1
91,7.21,42.83,197.4,1
92,7.23,21.52,175.38,1
93,7.24,24.4,163.02,1
94,7.25,10.54,129.56,1
95,7.27,4.09,82.98,1
96,7.28,-16.72,50.85,1
97,7.29,-9.3,-5.09,1
98,7.31,-28.57,-32.9,1
99,7.32,-37.42,-31.01,1
100,7.33,-48.7,-78.32,1
101,7.35,-64.68,-130.54,1
102,7.36,-75.08,-150.49,1
103,7.37,-76.74,-114.82,1
104,7.39,-65.6,-178.29,1
105,7.4,-76.44,-158.65,1
106,7.41,-63.37,-177.69,1
107,7.43,-73.43,-189.82,1
108,7.44,-81.81,-186.58,1
109,7.45,-56.98,-239.17,1
110,7.47,-59.66,-263.23,1
111,7.48,-58.22,-212.19,1
112,7.49,-68.06,-254.7,1
113,7.51,-49.46,-246.3,1
114,7.52,-56.65,-201.19,1
115,7.53,-46.76,-228.74,1
116,7.55,-27.19,-214.92,1
117,7.56,-28.81,-206.68,1
118,7.57,-28.99,-156.76,1
119,7.59,-24.05,-133.27,1
120,7.6,-35.51,-136.88,1
121,7.61,-23.94,-153.98,1
122,7.63,-34.87,-128.2,1
123,7.64,-19.05,-114.32,1
124,7.65,-4.37,-127.73,1
125,7.67,-6.47,-115.1,1
126,7.68,-16.24,-91.52,1
127,7.69,1.24,-60.8,1
128,7.71,9.12,-47.61,1
129,7.72,6.45,-16.77,1
130,7.73,4.34,-19.73,1
131,7.75,8.44,-29.36,1
132,7.76,31.39,-29.96,1
133,7.77,34.86,32.41,1
134,7.79,22.95,41.04,1
135,7.8,17.69,68.27,1
136,7.81,20.98,48.26,1
137,7.83,21.65,41.3,1
138,7.84,31.6,62.49,1
139,7.85,25.75,65.96,1
140,7.87,36.95,72.46,1
141,7.88,41.25,66.84,1
142,7.89,20.18,42.06,1
143,7.91,24.6,64.56,1
144,7.92,17.99,87.81,1
145,7.93,35.41,88.16,1
146,7.95,39.11,79.68,1
147,7.96,26.46,102.48,1
148,7.97,28.25,87.77,1
149,7.99,14.92,91.52,1
150,8.0,10.79,78.3,1
151,8.01,-17.23,91.09,1
152,8.03,18.52,46.52,1
153,8.04,3.18,83.9,1
154,8.05,16.65,74.83,1
155,8.07,36.81,52.23,1
156,8.08,22.43,57.77,1
157,8.09,1.11,77.23,1
158,8.11,17.76,96.3,1
159,8.12,-4.28,103.51,1
160,8.13,8.89,144.3,1
161,8.15,17.83,56.58,1
162,8.16,70.66,76.64,1
163,8.17,80.12,219.1,1
164,8.19,69.48,249.84,1
165,8.2,-103.83,322.65,1
166,8.21,-23.19,103.14,1
167,8.23,52.56,45.25,1
168,8.24,-31.65,-250.05,1
169,8.25,151.86,2.56,1
170,8.27,239.67,230.72,1
171,8.28,-5.44,96.79,1
172,8.29,120.46,83.06,1
173,8.31,44.62,12.18,1
174,8.32,33.75,-25.21,1
175,8.33,127.65,-90.18,1
176,8.35,25.84,-159.64,1
177,8.36,63.0,-129.52,1
178,8.37,-116.84,-155.45,1
179,8.39,-163.85,-313.31,1
180,8.4,-165.26,-480.17,1
181,8.41,-175.3,-210.35,1
182,8.43,-347.14,-618.82,1
183,8.44,-260.68,-154.88,1
184,8.45,-418.57,-377.43,1
185,8.47,-182.3,-530.56,1
186,8.48,-139.05,-159.79,1
187,8.49,-341.48,-103.75,1
188,8.51,58.17,-185.5,1
189,8.52,-224.36,124.61,1
190,8.53,108.31,257.8,1
191,8.55,-69.01,-215.25,1
192,8.56,-5.21,465.64,1
193,8.57,97.46,314.91,1
194,8.59,21.69,119.92,1
195,8.6,25.45,64.69,1
196,8.61,54.55,55.13,1
197,8.63,-15.63,-201.41,1
198,8.64,107.12,-377.8,1
199,8.65,292.26,-118.26,1
200,8.67,165.82,259.21,1
201,8.68,154.94,699.23,1
202,8.69,126.21,347.4,1
203,8.71,345.19,212.71,1
204,8.72,189.32,292.92,1
205,8.73,73.04,-124.16,1
206,8.75,117.62,199.56,1
207,8.76,121.0,159.34,1
208,8.77,189.04,220.2,1
209,8.79,264.41,-244.48,1
210,8.8,141.47,-31.36,1
211,8.81,-215.7,-33.23,1
212,8.83,-90.77,67.91,1
213,8.84,-120.84,99.08,1
214,8.85,-96.34,72.57,1
215,8.87,129.32,340.97,1
216,8.88,2.62,-7.55,1
217,8.89,-42.64,-66.44,1
218,8.91,-15.37,-99.79,1
219,8.92,-167.54,-286.62,1
220,8.93,-80.31,-108.51,1
221,8.95,-156.48,-25.96,1
222,8.96,-234.26,-26.18,1
223,8.97,-233.55,45.93,1
224,8.99,-186.79,-181.11,1
225,9.0,-181.78,-67.2,1
226,9.01,-105.53,-137.47,1
227,9.03,-53.39,-118.17,1
228,9.04,55.73,-25.0,1
229,9.05,106.53,54.01,1
230,9.07,154.63,124.86,1
231,9.08,183.67,96.06,1
232,9.09,137.07,47.09,1
233,9.11,152.94,-19.58,1
234,9.12,114.59,-10.45,1
235,9.13,94.19,-20.65,1
236,9.15,52.15,24.69,1
237,9.16,80.3,77.38,1
238,9.17,64.69,62.46,1
239,9.19,67.94,73.48,1
240,9.2,62.98,68.86,1
241,9.21,67.22,68.72,1
242,9.23,46.95,95.05,1
243,9.24,35.94,56.23,1
244,9.25,34.71,68.51,1
245,9.27,27.75,47.37,1
246,9.28,3.28,27.22,1
247,9.29,-14.84,42.4,1
248,9.31,-8.26,19.93,1
249,9.32,-33.55,-12.27,1
250,9.33,-65.24,-26.22,1
251,9.35,-48.43,-54.73,1
252,9.36,-78.94,-43.2,1
253,9.37,-55.23,-55.09,1
254,9.39,-65.35,-63.05,1
255,9.4,-69.17,-63.79,1
256,9.41,-63.39,-72.57,1
257,9.43,-77.27,-72.96,1
258,9.44,-57.55,-67.62,1
259,9.45,-75.49,-62.36,1
260,9.47,-27.86,-97.7,1
261,9.48,-60.31,-62.39,1
262,9.49,-54.45,-76.16,1
263,9.51,-65.02,-66.5,1
264,9.52,-50.28,-74.6,1
265,9.53,-65.37,-75.53,1
266,9.55,-39.72,-71.16,1
267,9.56,-50.63,-72.32,1
268,9.57,-41.72,-65.45,1
269,9.59,-33.75,-42.99,1
270,9.6,-53.14,-48.73,1
271,9.61,-22.26,-6.05,1
272,9.63,-13.44,-16.87,1
273,9.64,-14.27,-33.66,1
274,9.65,-26.99,-24.65,1
275,9.67,8.6,-39.92,1
276,9.68,-0.34,-26.58,1
277,9.69,2.13,6.29,1
278,9.71,-0.46,1.77,1
279,9.72,13.02,-5.6,1
280,9.73,28.58,4.98,1
281,9.75,13.63,28.78,1
282,9.76,24.45,18.81,1
283,9.77,28.67,57.44,1
284,9.79,34.48,47.03,1
285,9.8,20.11,52.59,1
286,9.81,33.65,41.47,1
287,9.83,33.14,16.28,1
288,9.84,25.05,14.26,1
289,9.85,25.48,34.68,1
290,9.87,36.53,43.72,1
291,9.88,34.43,42.12,1
292,9.89,21.01,26.56,1
293,9.91,12.58,15.44,1
294,9.92,35.39,25.49,1
295,9.93,34.92,32.15,1
296,9.95,38.21,13.47,1
297,9.96,21.51,19.74,1
298,9.97,20.85,9.24,1
299,9.99,21.05,9.52,1
300,10.0,24.25,9.53,1
301,10.01,-10.0,10.6,1
302,10.03,28.49,16.48,1
303,10.04,17.68,26.03,1
304,10.05,35.74,9.7,1
305,10.07,16.6,16.34,1
306,10.08,15.39,12.32,1
307,10.09,17.57,27.53,1
308,10.11,3.71,13.88,1
309,10.12,22.56,29.79,1
310,10.13,-5.32,27.61,1
311,10.15,33.27,147.5,1
312,10.16,34.57,135.77,1
313,10.17,279.78,278.3,1
314,10.19,-138.6,98.88,1
315,10.2,-166.48,263.77,1
316,10.21,130.09,206.55,1
317,10.23,153.95,183.09,1
318,10.24,169.23,101.41,1
319,10.25,241.99,49.94,1
320,10.27,94.85,-4.71,1
321,10.28,81.1,-65.96,1
322,10.29,28.63,-149.54,1
323,10.31,-35.38,-165.49,1
324,10.32,-13.64,-318.72,1
325,10.33,-109.52,-726.5,1
326,10.35,-223.22,-332.77,1
327,10.36,-380.81,-196.15,1
328,10.37,-291.44,-193.08,1
329,10.39,-396.22,-430.27,1
330,10.4,-163.45,-446.79,1
331,10.41,-120.39,-217.89,1
332,10.43,-74.88,267.89,1
333,10.44,-313.02,143.65,1
334,10.45,-189.64,-182.47,1
335,10.47,126.29,-130.58,1
336,10.48,-143.01,-335.41,1
337,10.49,186.24,-187.66,1
338,10.51,53.73,-44.2,1
339,10.52,-31.95,14.57,1
340,10.53,-54.43,361.53,1
341,10.55,28.01,419.09,1
342,10.56,128.18,-62.89,1
343,10.57,173.57,595.82,1
344,10.59,-55.69,419.8,1
345,10.6,-99.27,296.83,1
346,10.61,86.97,-220.83,1
347,10.63,74.77,192.29,1
348,10.64,-19.65,-263.78,1
349,10.65,184.55,296.11,1
350,10.67,233.7,72.53,1
351,10.68,310.51,90.99,1
352,10.69,162.49,691.05,1
353,10.71,105.6,174.95,1
354,10.72,-77.47,-120.19,1
355,10.73,-62.7,64.78,1
356,10.75,109.48,-128.3,1
357,10.76,179.86,-70.0,1
358,10.77,-18.58,366.32,1
359,10.79,127.11,45.13,1
360,10.8,16.84,120.8,1
361,10.81,206.03,22.65,1
362,10.83,50.15,116.89,1
363,10.84,-56.5,40.92,1
364,10.85,4.95,-578.07,1
365,10.87,-27.45,-279.26,1
366,10.88,-28.25,-8.84,1
367,10.89,-233.94,152.66,1
368,10.91,105.5,-384.46,1
369,10.92,-46.93,-223.09,1
370,10.93,-251.23,-37.93,1
371,10.95,38.21,-181.51,1
372,10.96,36.19,-207.89,1
373,10.97,60.15,34.11,1
374,10.99,-69.32,100.77,1
375,11.0,-99.44,7.2,1
376,11.01,-154.27,-5.05,1
377,11.03,-177.47,-96.81,1
378,11.04,-189.17,-21.29,1
379,11.05,-133.44,-5.86,1
380,11.07,-80.34,83.89,1
381,11.08,-35.85,134.28,1
382,11.09,12.53,162.34,1
383,11.11,31.05,102.68,1
384,11.12,77.58,157.88,1
385,11.13,60.61,143.01,1
386,11.15,57.88,-31.89,1
387,11.16,91.96,-83.79,1
388,11.17,97.89,-62.58,1
389,11.19,97.12,-99.01,1
390,11.2,79.26,-91.91,1
391,11.21,96.53,-66.36,1
392,11.23,74.94,-51.66,1
393,11.24,66.84,-8.72,1
394,11.25,33.29,28.68,1
395,11.27,57.04,16.03,1
396,11.28,29.23,1.35,1
397,11.29,22.42,46.57,1
398,11.31,17.02,82.05,1
399,11.32,16.76,96.18,1
400,11.33,9.93,57.91,1
401,11.35,-11.01,45.66,1
402,11.36,-13.41,47.04,1
403,11.37,-28.4,34.02,1
404,11.39,-24.6,0.83,1
405,11.4,-32.6,-1.82,1
406,11.41,-41.86,-45.47,1
407,11.43,-27.13,-31.94,1
408,11.44,-39.52,-24.2,1
409,11.45,-33.85,-27.2,1
410,11.47,-30.78,-8.38,1
411,11.48,-40.27,-11.54,1
412,11.49,-46.58,-28.35,1
413,11.51,-66.71,-39.42,1
414,11.52,-27.31,-35.91,1
415,11.53,-36.55,-29.86,1
416,11.55,-21.61,-32.77,1
417,11.56,-26.74,-51.88,1
418,11.57,-22.58,-24.31,1
419,11.59,-19.09,-10.82,1
420,11.6,-25.01,-29.67,1
421,11.61,-33.93,-39.27,1
422,11.63,-39.95,-23.13,1
423,11.64,-39.23,-29.05,1
424,11.65,-32.94,-17.13,1
425,11.67,-12.28,0.4,1
426,11.68,-21.58,-61.39,1
427,11.69,-5.7,-23.51,1
428,11.71,-11.78,-10.74,1
429,11.72,-4.82,-23.46,1
430,11.73,-4.43,-34.46,1
431,11.75,14.56,-36.15,1
432,11.76,21.11,-29.43,1
433,11.77,23.6,-21.02,1
434,11.79,-7.83,4.37,1
435,11.8,1.46,-30.49,1
436,11.81,2.67,4.06,1
437,11.83,15.22,-35.12,1
438,11.84,17.2,-1.45,1
439,11.85,2.98,2.71,1
440,11.87,3.2,12.91,1
441,11.88,13.02,2.11,1
442,11.89,19.82,10.5,1
443,11.91,23.77,16.51,1
444,11.92,21.55,15.97,1
445,11.93,19.44,18.56,1
446,11.95,35.73,-8.19,1
447,11.96,1.69,26.15,1
448,11.97,27.08,10.79,1
449,11.99,18.13,17.64,1
450,12.0,10.97,8.63,1
451,12.01,-18.39,62.43,1
452,12.03,15.11,9.09,1
453,12.04,10.17,67.19,1
454,12.05,9.85,51.46,1
455,12.07,7.23,31.37,1
456,12.08,14.41,40.47,1
457,12.09,28.0,3.35,1
458,12.11,22.5,-12.44,1
459,12.12,9.29,73.45,1
460,12.13,34.21,52.21,1
461,12.15,81.22,64.78,1
462,12.16,30.42,240.69,1
463,12.17,-105.59,195.55,1
464,12.19,165.04,-359.33,1
465,12.2,102.0,243.31,1
466,12.21,63.78,426.65,1
467,12.23,-21.73,296.91,1
468,12.24,116.28,241.59,1
469,12.25,198.45,102.23,1
470,12.27,167.18,-6.01,1
471,12.28,-135.48,52.95,1
472,12.29,130.87,-390.7,1
473,12.31,-42.53,-721.72,1
474,12.32,-130.5,-217.21,1
475,12.33,-251.48,-12.68,1
476,12.35,-213.51,-526.71,1
477,12.36,-43.99,-393.91,1
478,12.37,-163.34,-64.87,1
479,12.39,-270.86,-137.56,1
480,12.4,-182.44,199.91,1
481,12.41,-101.82,156.5,1
482,12.43,64.89,-240.7,1
483,12.44,-236.98,-54.06,1
484,12.45,-58.38,-184.61,1
485,12.47,-93.33,274.67,1
486,12.48,-143.12,304.15,1
487,12.49,185.94,-65.94,1
488,12.51,18.2,-96.8,1
489,12.52,157.07,183.91,1
490,12.53,115.13,-296.83,1
491,12.55,288.68,119.55,1
492,12.56,-71.39,168.23,1
493,12.57,12.47,227.45,1
494,12.59,116.35,46.51,1
495,12.6,-42.44,-129.65,1
496,12.61,136.33,120.75,1
497,12.63,-51.18,24.65,1
498,12.64,44.47,-63.94,1
499,12.65,-20.29,101.82,1
500,12.67,158.49,-160.18,1
501,12.68,-181.52,132.65,1
502,12.69,105.74,86.59,1
503,12.71,11.49,-159.89,1
504,12.72,52.53,-130.38,1
505,12.73,13.46,363.13,1
506,12.75,-106.41,119.61,1
507,12.76,99.34,-32.47,1
508,12.77,-50.89,254.16,1
509,12.79,-36.83,-245.72,1
510,12.8,95.65,-29.53,1
511,12.81,-40.02,-68.67,1
512,12.83,-70.21,176.49,1
513,12.84,65.18,-28.74,1
514,12.85,101.69,3.43,1
515,12.87,-55.97,3.44,1
516,12.88,31.43,1.5,1
517,12.89,15.13,-140.86,1
518,12.91,-8.58,-137.88,1
519,12.92,-58.24,-115.02,1
520,12.93,-95.43,-39.89,1
521,12.95,-173.59,148.47,1
522,12.96,-135.63,277.58,1
523,12.97,-86.72,273.54,1
524,12.99,-11.14,111.29,1
525,13.0,38.46,78.58,1
526,13.01,80.7,-216.66,1
527,13.03,112.59,-223.88,1
528,13.04,122.74,-243.55,1
529,13.05,122.05,-294.37,1
530,13.07,88.18,-220.36,1
531,13.08,100.41,-161.07,1
532,13.09,93.14,-76.36,1
533,13.11,94.3,-6.92,1
534,13.12,91.21,50.11,1
535,13.13,81.39,152.05,1
536,13.15,72.99,155.0,1
537,13.16,49.47,172.26,1
538,13.17,35.47,192.65,1
539,13.19,24.32,202.2,1
540,13.2,16.33,186.43,1
541,13.21,-4.49,155.69,1
542,13.23,-11.95,144.75,1
543,13.24,-38.48,114.91,1
544,13.25,-28.87,110.48,1
545,13.27,-39.82,50.99,1
546,13.28,-47.24,73.26,1
547,13.29,-51.0,86.42,1
548,13.31,-53.37,19.88,1
549,13.32,-35.7,0.19,1
550,13.33,-90.71,-51.21,1
551,13.35,-70.76,-41.08,1
552,13.36,-60.68,-85.85,1
553,13.37,-59.99,-84.96,1
554,13.39,-29.17,-74.49,1
555,13.4,-60.27,-74.33,1
556,13.41,-42.05,-63.78,1
557,13.43,-44.7,-111.29,1
558,13.44,-56.98,-74.84,1
559,13.45,-42.9,-77.3,1
560,13.47,-37.12,-81.49,1
561,13.48,-41.3,-58.82,1
562,13.49,-40.21,-49.73,1
563,13.51,-13.62,-78.53,1
564,13.52,-21.87,-90.39,1
565,13.53,-39.54,-57.09,1
566,13.55,-24.47,-79.24,1
567,13.56,-14.06,-73.72,1
568,13.57,-2.53,-54.95,1
569,13.59,-1.69,-75.45,1
570,13.6,-16.63,-61.36,1
571,13.61,2.65,-69.37,1
572,13.63,-2.39,-39.04,1
573,13.64,5.44,-46.77,1
574,13.65,-1.04,-20.89,1
575,13.67,-3.26,3.1,1
576,13.68,-5.19,15.49,1
577,13.69,-0.71,-14.35,1
578,13.71,17.35,9.51,1
579,13.72,17.98,2.25,1
580,13.73,13.99,-15.51,1
581,13.75,2.18,29.24,1
582,13.76,20.56,49.4,1
583,13.77,11.76,27.05,1
584,13.79,17.15,28.97,1
585,13.8,20.42,0.94,1
586,13.81,31.32,17.66,1
587,13.83,13.67,10.48,1
588,13.84,12.73,55.05,1
589,13.85,17.62,52.72,1
590,13.87,33.97,45.16,1
591,13.88,22.37,37.2,1
592,13.89,7.37,39.5,1
593,13.91,27.56,29.03,1
594,13.92,23.61,26.36,1
595,13.93,20.67,41.29,1
596,13.95,10.35,38.49,1
597,13.96,18.82,35.64,1
598,13.97,15.38,27.78,1
599,13.99,24.83,5.3,1
600,14.0,14.41,44.51,1
601,14.01,19.42,2.99,1
602,14.03,4.91,31.93,1
603,14.04,0.92,12.47,1
604,14.05,6.86,5.07,1
605,14.07,1.71,25.07,1
606,14.08,14.09,19.94,1
607,14.09,5.49,18.69,1
608,14.11,18.85,4.97,1
609,14.12,0.89,11.56,1
610,14.13,2.09,29.35,1
611,14.15,9.62,119.65,1
612,14.16,41.46,437.09,1
613,14.17,-286.14,-1.35,1
614,14.19,-182.52,-538.93,1
615,14.2,231.31,125.93,1
616,14.21,229.22,416.63,1
617,14.23,31.79,270.05,1
618,14.24,366.92,67.93,1
619,14.25,4.59,-270.51,1
620,14.27,143.0,63.94,1
621,14.28,227.3,188.09,1
622,14.29,160.81,-33.15,1
623,14.31,-15.85,-294.69,1
624,14.32,-116.98,-141.14,1
625,14.33,-145.84,-111.26,1
626,14.35,-308.3,-116.67,1
627,14.36,-244.42,-366.14,1
628,14.37,-55.26,-574.01,1
629,14.39,-69.01,-177.7,1
630,14.4,-132.38,51.67,1
631,14.41,-191.61,-5.07,1
632,14.43,-37.16,23.9,1
633,14.44,64.21,189.71,1
634,14.45,-117.47,-114.91,1
635,14.47,-206.63,151.84,1
636,14.48,-62.79,-247.8,1
637,14.49,-9.05,159.16,1
638,14.51,56.81,-402.88,1
639,14.52,49.44,138.72,1
640,14.53,132.46,90.63,1
641,14.55,-198.42,-231.64,1
642,14.56,-29.6,69.51,1
643,14.57,-223.71,-122.24,1
644,14.59,-267.84,-227.02,1
645,14.6,228.96,106.12,1
646,14.61,-157.48,-294.91,1
647,14.63,194.45,354.91,1
648,14.64,81.24,2.18,1
649,14.65,-278.36,-54.98,1
650,14.67,74.67,415.2,1
651,14.68,53.16,264.87,1
652,14.69,76.97,28.5,1
653,14.71,105.21,360.96,1
654,14.72,168.63,272.02,1
655,14.73,323.69,337.8,1
656,14.75,148.44,242.34,1
657,14.76,139.9,33.92,1
658,14.77,-15.07,314.65,1
659,14.79,154.67,49.49,1
660,14.8,94.91,-171.93,1
661,14.81,87.02,-286.14,1
662,14.83,-12.9,210.69,1
663,14.84,88.29,-221.45,1
664,14.85,106.94,188.11,1
665,14.87,-90.19,-112.34,1
666,14.88,79.76,162.02,1
667,14.89,-147.86,-149.32,1
668,14.91,-12.83,-41.56,1
669,14.92,-169.42,-371.34,1
670,14.93,6.73,-272.57,1
671,14.95,-57.25,-286.31,1
672,14.96,-136.31,56.52,1
673,14.97,4.13,191.73,1
674,14.99,-71.97,-227.21,1
675,15.0,-30.94,-266.28,1
676,15.01,37.4,-136.4,1
677,15.03,16.63,-96.38,1
678,15.04,-44.77,-140.4,1
679,15.05,20.45,-177.06,1
680,15.07,-103.68,-138.45,1
681,15.08,-109.53,53.27,1
682,15.09,-92.38,109.76,1
683,15.11,-40.37,243.23,1
684,15.12,-10.86,251.91,1
685,15.13,63.02,94.51,1
686,15.15,95.73,-113.38,1
687,15.16,94.01,-77.91,1
688,15.17,85.01,-176.43,1
689,15.19,90.28,-149.0,1
690,15.2,94.44,-44.0,1
691,15.21,67.9,20.32,1
692,15.23,79.23,84.87,1
693,15.24,68.48,155.3,1
694,15.25,72.87,177.66,1
695,15.27,61.24,223.57,1
696,15.28,25.5,222.62,1
697,15.29,31.35,238.6,1
698,15.31,22.54,186.85,1
699,15.32,17.85,195.72,1
700,15.33,-2.45,136.58,1
701,15.35,-10.23,114.74,1
702,15.36,-20.52,80.36,1
703,15.37,-37.11,50.88,1
704,15.39,-51.15,75.07,1
705,15.4,-36.14,37.96,1
706,15.41,-53.79,34.77,1
707,15.43,-58.21,-17.33,1
708,15.44,-61.76,9.9,1
709,15.45,-59.11,-28.64,1
710,15.47,-46.54,-10.56,1
711,15.48,-42.41,-33.51,1
712,15.49,-65.44,-10.61,1
713,15.51,-56.32,-70.25,1
714,15.52,-61.27,-89.05,1
715,15.53,-58.51,-82.84,1
716,15.55,-55.37,-90.61,1
717,15.56,-43.15,-69.03,1
718,15.57,-40.27,-77.57,1
719,15.59,-52.98,-88.98,1
720,15.6,-39.42,-85.0,1
721,15.61,-20.31,-80.93,1
722,15.63,-1.63,-81.87,1
723,15.64,-14.61,-56.03,1
724,15.65,-19.3,-95.74,1
725,15.67,-9.92,-74.12,1
726,15.68,-10.33,-86.66,1
727,15.69,-19.33,-65.3,1
728,15.71,-19.54,-41.43,1
729,15.72,-11.32,-53.79,1
730,15.73,-9.85,-90.08,1
731,15.75,-4.86,-63.52,1
732,15.76,6.99,-33.31,1
733,15.77,16.86,-61.95,1
734,15.79,26.19,-18.47,1
735,15.8,5.55,-24.82,1
736,15.81,8.57,-38.84,1
737,15.83,21.27,-37.69,1
738,15.84,20.93,-2.17,1
739,15.85,26.96,-6.12,1
740,15.87,25.15,-13.7,1
741,15.88,19.06,-23.73,1
742,15.89,24.66,19.07,1
743,15.91,16.08,28.87,1
744,15.92,23.65,-1.3,1
745,15.93,14.9,-12.94,1
746,15.95,22.04,0.35,1
747,15.96,15.47,17.45,1
748,15.97,24.55,2.19,1
749,15.99,10.39,22.44,1
750,16.0,18.19,27.64,1
751,16.01,19.25,47.45,1
752,16.03,13.48,49.98,1
753,16.04,6.73,32.37,1
754,16.05,26.61,54.59,1
755,16.07,24.97,37.67,1
756,16.08,12.53,87.38,1
757,16.09,27.77,129.06,1
758,16.11,28.39,85.64,1
759,16.12,-34.62,82.18,1
760,16.13,-123.0,-23.08,1
761,16.15,-29.37,206.16,1
762,16.16,121.47,408.09,1
763,16.17,83.25,323.5,1
764,16.19,208.12,187.94,1
765,16.2,-76.09,34.56,1
766,16.21,287.73,151.11,1
767,16.23,284.54,78.46,1
768,16.24,256.98,39.35,1
769,16.25,110.92,-69.49,1
770,16.27,-25.07,-158.23,1
771,16.28,-300.69,-52.96,1
772,16.29,-92.97,-284.48,1
773,16.31,-23.75,-605.23,1
774,16.32,24.42,-597.29,1
775,16.33,-121.62,-764.4,1
776,16.35,104.86,-453.81,1
777,16.36,-252.15,-155.0,1
778,16.37,-281.25,-176.51,1
779,16.39,-135.87,-408.11,1
780,16.4,-170.37,-60.25,1
781,16.41,-188.98,59.13,1
782,16.43,65.27,140.25,1
783,16.44,-161.21,403.59,1
784,16.45,-140.02,253.4,1
785,16.47,-96.44,757.62,1
786,16.48,63.74,177.13,1
787,16.49,153.38,-148.75,1
788,16.51,-379.05,-52.04,1
789,16.52,-53.28,98.31,1
790,16.53,119.08,293.42,1
791,16.55,295.56,-263.84,1
792,16.56,-25.17,160.69,1
793,16.57,127.7,429.26,1
794,16.59,196.67,50.87,1
795,16.6,-122.98,182.91,1
796,16.61,16.02,370.2,1
797,16.63,-65.69,51.34,1
798,16.64,60.08,515.66,1
799,16.65,105.94,9.35,1
800,16.67,39.59,56.93,1
801,16.68,-190.42,-189.58,1
802,16.69,50.43,-120.25,1
803,16.71,-34.59,23.32,1
804,16.72,143.28,14.45,1
805,16.73,104.15,-57.66,1
806,16.75,179.81,-189.63,1
807,16.76,-266.0,-107.29,1
808,16.77,-153.36,-276.81,1
809,16.79,-240.13,37.4,1
810,16.8,54.1,-55.07,1
811,16.81,-22.9,-70.67,1
812,16.83,-15.8,-23.21,1
813,16.84,80.43,-123.22,1
814,16.85,-45.09,-123.33,1
815,16.87,64.59,461.49,1
816,16.88,168.76,-125.94,1
817,16.89,142.29,111.91,1
818,16.91,-88.08,112.05,1
819,16.92,109.6,-376.82,1
820,16.93,-8.84,-104.93,1
821,16.95,50.0,-25.6,1
822,16.96,99.05,263.64,1
823,16.97,72.69,-30.04,1
824,16.99,104.0,-89.47,1
825,17.0,-40.29,-84.34,1
826,17.01,4.96,3.11,1
827,17.03,-83.86,-153.49,1
828,17.04,-81.79,-240.57,1
829,17.05,-182.1,19.0,1
830,17.06,-153.78,-23.32,1
831,17.08,-112.54,343.41,1
832,17.09,16.39,72.47,1
833,17.11,62.67,136.64,1
834,17.12,104.64,-127.07,1
835,17.13,150.95,-143.38,1
836,17.15,138.82,-324.5,1
837,17.16,146.81,-227.44,1
838,17.17,145.42,-197.48,1
839,17.19,138.51,-106.25,1
840,17.2,137.64,-39.62,1
841,17.21,105.64,29.54,1
842,17.23,79.55,23.88,1
843,17.24,83.56,159.29,1
844,17.25,52.67,123.4,1
845,17.27,30.53,186.96,1
846,17.28,9.15,188.07,1
847,17.29,3.61,144.86,1
848,17.31,-14.13,104.78,1
849,17.32,-16.2,85.5,1
850,17.33,-45.87,96.65,1
851,17.35,-52.4,72.42,1
852,17.36,-48.93,9.21,1
853,17.37,-59.38,78.36,1
854,17.39,-57.69,64.53,1
855,17.4,-65.09,50.22,1
856,17.41,-67.74,12.12,1
857,17.43,-95.09,-1.38,1
858,17.44,-85.46,-9.67,1
859,17.45,-74.93,9.75,1
860,17.47,-78.28,29.3,1
861,17.48,-72.31,4.25,1
862,17.49,-76.91,-35.3,1
863,17.51,-64.2,-23.92,1
864,17.52,-63.25,-13.12,1
865,17.53,-55.04,-12.37,1
866,17.55,-71.5,-47.82,1
867,17.56,-77.76,-65.21,1
868,17.57,-64.1,-14.89,1
869,17.59,-39.01,-63.25,1
870,17.6,-49.6,-28.33,1
871,17.61,-30.43,-62.56,1
872,17.63,-27.5,-41.26,1
873,17.64,-29.02,-47.75,1
874,17.65,-34.67,-29.12,1
875,17.67,-16.22,-67.18,1
876,17.68,-13.69,-77.89,1
877,17.69,-0.05,-39.07,1
878,17.7,-15.97,-11.49,1
879,17.72,-18.14,-42.57,1
880,17.73,-5.21,-30.21,1
881,17.75,2.59,-26.85,1
882,17.76,27.52,-32.29,1
883,17.77,13.39,9.26,1
884,17.79,12.65,-21.34,1
885,17.8,18.96,-14.67,1
886,17.81,30.82,-24.92,1
887,17.83,38.96,4.94,1
888,17.84,34.27,-18.21,1
889,17.85,35.94,-6.49,1
890,17.87,23.64,-14.83,1
891,17.88,23.97,17.45,1
892,17.89,11.46,-15.01,1
893,17.91,37.0,3.64,1
894,17.92,40.89,4.43,1
895,17.93,28.05,28.44,1
896,17.95,31.11,0.78,1
897,17.96,27.07,33.76,1
898,17.97,45.6,23.48,1
899,17.99,21.37,23.88,1
900,18.0,19.06,1.24,1
901,18.01,24.66,19.12,1
902,18.03,14.31,-8.98,1
903,18.04,-4.08,9.53,1
904,18.05,22.79,6.89,1
905,18.07,15.4,32.69,1
906,18.08,24.01,43.4,1
907,18.09,42.88,28.29,1
908,18.11,22.35,-4.38,1
909,18.12,28.1,18.1,1
910,18.13,-5.42,31.73,1
911,18.15,7.68,67.73,1
912,18.16,26.55,72.02,1
913,18.17,130.82,113.12,1
914,18.19,74.07,349.69,1
915,18.2,-72.49,181.29,1
916,18.21,-312.84,-101.58,1
917,18.23,65.15,207.49,1
918,18.24,155.29,38.79,1
919,18.25,114.65,-155.1,1
920,18.27,157.64,115.76,1
921,18.28,-6.39,204.84,1
922,18.29,160.52,114.49,1
923,18.31,-22.22,61.6,1
924,18.32,181.31,-66.83,1
925,18.33,63.59,-60.7,1
926,18.34,-13.49,-52.3,1
927,18.36,-38.92,-104.86,1
928,18.37,-292.59,-237.3,1
929,18.39,-155.92,-652.54,1
930,18.4,11.39,-538.82,1
931,18.41,-24.92,-403.59,1
932,18.43,-151.47,-156.12,1
933,18.44,-111.94,-222.34,1
934,18.45,-145.41,-205.55,1
935,18.47,-212.74,139.67,1
936,18.48,38.85,-292.05,1
937,18.49,-183.27,-341.78,1
938,18.51,19.55,-46.36,1
939,18.52,-184.77,67.01,1
940,18.53,28.49,-60.78,1
941,18.55,4.68,327.39,1
942,18.56,214.98,-104.01,1
943,18.57,2.9,-39.55,1
944,18.59,41.7,-21.0,1
945,18.6,-219.52,292.05,1
946,18.61,-83.47,203.26,1
947,18.63,-52.77,401.18,1
948,18.64,65.45,558.02,1
949,18.65,-116.98,396.89,1
950,18.67,-96.84,21.7,1
951,18.68,-144.75,227.06,1
952,18.69,135.73,122.52,1
953,18.71,-5.49,317.51,1
954,18.72,183.07,47.55,1
955,18.73,75.09,448.45,1
956,18.75,78.04,42.4,1
957,18.76,177.26,265.55,1
958,18.77,-47.62,-383.26,1
959,18.79,75.14,-66.6,1
960,18.8,64.59,32.82,1
961,18.81,-16.58,-63.29,1
962,18.83,52.43,-159.45,1
963,18.84,109.48,295.17,1
964,18.85,186.24,-157.4,1
965,18.87,119.87,-109.87,1
966,18.88,-31.42,-177.6,1
967,18.89,15.29,-288.85,1
968,18.91,116.01,-232.37,1
969,18.92,44.68,135.33,1
970,18.93,24.9,34.15,1
971,18.95,31.02,179.1,1
972,18.96,210.79,-137.43,1
973,18.97,-115.83,-23.89,1
974,18.98,-83.13,-51.61,1
975,19.0,30.89,-223.87,1
976,19.01,-0.03,325.43,1
977,19.025,-183.25,-1.46,1
978,19.04,93.64,-3.62,1
979,19.05,-108.76,-11.77,1
980,19.07,-37.25,-3.32,1
981,19.08,-73.42,-125.22,1
982,19.09,-67.68,-159.49,1
983,19.11,-167.13,-5.83,1
984,19.12,-159.78,84.41,1
985,19.13,-126.48,173.54,1
986,19.15,-18.07,75.58,1
987,19.16,18.57,118.7,1
988,19.17,66.01,-66.28,1
989,19.19,83.84,-209.59,1
990,19.2,84.83,-185.72,1
991,19.21,102.02,-265.92,1
992,19.23,93.22,-243.3,1
993,19.24,113.18,-219.08,1
994,19.25,97.29,-76.13,1
995,19.27,90.86,16.1,1
996,19.28,82.0,52.21,1
997,19.29,77.46,34.96,1
998,19.31,61.48,71.99,1
999,19.32,26.52,90.1,1
1000,19.33,20.84,75.97,1
1001,19.35,26.23,48.12,1
1002,19.36,16.37,58.82,1
1003,19.37,3.05,32.06,1
1004,19.39,-28.45,29.26,1
1005,19.4,-17.37,60.21,1
1006,19.41,-25.37,52.45,1
1007,19.43,-36.64,42.38,1
1008,19.44,-55.71,50.53,1
1009,19.45,-44.89,32.17,1
1010,19.47,-50.42,20.09,1
1011,19.48,-51.1,26.77,1
1012,19.49,-67.63,28.97,1
1013,19.51,-72.07,23.48,1
1014,19.52,-62.14,16.05,1
1015,19.53,-65.4,14.89,1
1016,19.55,-57.51,-2.37,1
1017,19.56,-63.82,38.21,1
1018,19.57,-51.14,-1.96,1
1019,19.59,-67.21,24.35,1
1020,19.6,-42.87,-1.79,1
1021,19.61,-43.85,-8.43,1
1022,19.62,-51.12,-15.91,1
1023,19.64,-41.03,-26.84,1
1024,19.65,-50.89,4.43,1
1025,19.67,-33.6,-27.29,1
1026,19.68,-34.25,-30.58,1
1027,19.69,-19.94,-0.45,1
1028,19.71,-16.0,-11.4,1
1029,19.72,-24.89,-4.69,1
1030,19.73,-18.26,-34.13,1
1031,19.75,-9.17,-41.94,1
1032,19.76,10.81,-14.24,1
1033,19.77,-3.21,-46.92,1
1034,19.79,12.21,-42.3,1
1035,19.8,12.79,-25.79,1
1036,19.81,-1.21,-28.84,1
1037,19.83,17.23,-34.52,1
1038,19.84,18.37,-12.89,1
1039,19.85,17.07,-11.26,1
1040,19.87,34.62,-13.97,1
1041,19.88,13.34,-9.37,1
1042,19.89,25.83,9.03,1
1043,19.91,24.13,-3.73,1
1044,19.92,39.63,-4.05,1
1045,19.93,31.15,-32.99,1
1046,19.95,16.88,-38.22,1
1047,19.96,22.74,13.72,1
1048,19.97,40.31,-0.87,1
1049,19.99,24.44,-4.78,1
1050,20.0,10.5,11.62,1
1051,20.01,24.44,14.83,1
1052,20.03,27.66,18.23,1
1053,20.04,19.56,27.38,1
1054,20.05,-2.73,-11.12,1
1055,20.07,19.36,5.74,1
1056,20.08,36.3,16.59,1
1057,20.09,18.11,32.97,1
1058,20.11,28.23,37.3,1
1059,20.12,39.48,29.69,1
1060,20.13,25.54,21.09,1
1061,20.15,17.1,70.31,1
1062,20.16,18.65,66.01,1
1063,20.17,-2.13,168.02,1
1064,20.19,12.24,185.9,1
1065,20.2,-0.78,-103.11,1
1066,20.21,273.11,313.03,1
1067,20.23,206.23,28.6,1
1068,20.24,142.29,268.96,1
1069,20.25,-43.36,-39.96,1
1070,20.26,-29.99,288.95,1
1071,20.28,118.31,83.5,1
1072,20.29,17.72,95.32,1
1073,20.3,-54.63,-259.32,1
1074,20.32,-342.25,-575.56,1
1075,20.33,-359.44,-160.61,1
1076,20.35,258.82,-601.31,1
1077,20.36,-109.64,-436.84,1
1078,20.37,-134.26,-147.94,1
1079,20.39,-103.83,-549.15,1
1080,20.4,-31.33,-155.27,1
1081,20.41,165.22,-390.44,1
1082,20.43,-92.49,-153.81,1
1083,20.44,170.93,7.36,1
1084,20.45,-391.74,412.49,1
1085,20.47,-122.83,132.19,1
1086,20.48,-243.27,41.89,1
1087,20.49,36.86,313.83,1
1088,20.51,-87.04,254.48,1
1089,20.52,-76.37,670.62,1
1090,20.53,114.28,451.55,1
1091,20.55,-3.28,552.23,1
1092,20.56,79.37,41.48,1
1093,20.57,141.5,-226.63,1
1094,20.59,-32.53,461.81,1
1095,20.6,33.32,-297.21,1
1096,20.61,8.39,-357.49,1
1097,20.63,-20.28,29.98,1
1098,20.64,112.35,-30.47,1
1099,20.65,150.92,58.88,1
1100,20.67,-155.73,31.99,1
1101,20.68,119.93,194.88,1
1102,20.69,-106.12,87.38,1
1103,20.71,-23.18,270.89,1
1104,20.72,142.54,-80.09,1
1105,20.73,85.79,25.42,1
1106,20.75,14.39,-336.84,1
1107,20.76,13.95,9.73,1
1108,20.77,-119.96,-165.24,1
1109,20.79,-11.74,-238.58,1
1110,20.8,45.81,-308.61,1
1111,20.81,-204.93,191.94,1
1112,20.83,118.65,-318.98,1
1113,20.84,104.73,249.67,1
1114,20.85,-32.99,-408.43,1
1115,20.87,116.28,-131.63,1
1116,20.88,32.81,-129.37,1
1117,20.89,66.34,508.0,1
1118,20.9,79.1,-192.35,1
1119,20.92,96.0,-156.63,1
1120,20.93,34.62,109.43,1
1121,20.94,48.52,24.25,1
1122,20.96,62.37,311.29,1
1123,20.97,-65.95,409.82,1
1124,20.985,-88.28,232.86,1
1125,21.0,113.28,-120.85,1
1126,21.01,164.02,-391.91,1
1127,21.03,-184.58,-177.75,1
1128,21.04,-48.62,-4.6,1
1129,21.05,211.26,294.89,1
1130,21.07,-178.33,-201.75,1
1131,21.08,-17.43,-173.06,1
1132,21.09,-30.36,-173.83,1
1133,21.11,-41.56,-127.86,1
1134,21.12,-147.73,-153.37,1
1135,21.13,-96.05,-167.23,1
1136,21.15,-168.34,-1.56,1
1137,21.16,-188.89,111.56,1
1138,21.17,-178.97,374.8,1
1139,21.19,-90.09,311.16,1
1140,21.2,-49.58,20.57,1
1141,21.21,31.21,-47.5,1
1142,21.23,64.2,-277.07,1
1143,21.24,120.22,-245.08,1
1144,21.25,109.69,-166.56,1
1145,21.27,118.08,-110.44,1
1146,21.28,145.66,-28.28,1
1147,21.29,141.06,50.56,1
1148,21.31,110.15,109.61,1
1149,21.32,111.62,156.0,1
1150,21.33,82.67,180.09,1
1151,21.35,50.81,188.83,1
1152,21.36,42.34,186.27,1
1153,21.37,41.13,145.63,1
1154,21.39,40.67,104.77,1
1155,21.4,34.81,83.62,1
1156,21.41,13.47,100.58,1
1157,21.43,15.03,65.6,1
1158,21.44,-5.26,60.52,1
1159,21.45,-7.32,27.47,1
1160,21.47,-43.25,43.03,1
1161,21.48,-22.54,26.24,1
1162,21.49,-36.15,2.66,1
1163,21.51,-32.11,29.34,1
1164,21.52,-34.95,84.21,1
1165,21.53,-28.64,4.48,1
1166,21.54,-50.84,-2.33,1
1167,21.56,-44.6,-26.39,1
1168,21.57,-63.68,-47.16,1
1169,21.58,-60.89,-68.19,1
1170,21.6,-59.44,-58.24,1
1171,21.61,-59.81,-57.12,1
1172,21.625,-50.95,-79.4,1
1173,21.64,-51.94,-65.27,1
1174,21.65,-51.45,-58.84,1
1175,21.67,-54.01,-74.45,1
1176,21.68,-47.68,-33.06,1
1177,21.69,-30.37,-58.4,1
1178,21.71,-48.46,-56.41,1
1179,21.72,-30.85,-73.18,1
1180,21.73,-27.17,-43.82,1
1181,21.75,-5.81,-19.48,1
1182,21.76,-8.85,-59.08,1
1183,21.77,-18.14,-55.33,1
1184,21.79,-10.11,-47.38,1
1185,21.8,-17.39,-53.22,1
1186,21.81,-1.16,-41.52,1
1187,21.83,5.64,-12.16,1
1188,21.84,7.26,-48.64,1
1189,21.85,13.87,-5.56,1
1190,21.87,-10.76,-20.89,1
1191,21.88,-7.02,-12.71,1
1192,21.89,9.07,-21.52,1
1193,21.91,17.42,-8.74,1
1194,21.92,5.4,-30.65,1
1195,21.93,19.96,-23.88,1
1196,21.95,19.73,15.56,1
1197,21.96,22.48,14.44,1
1198,21.97,36.3,19.59,1
1199,21.99,21.38,16.06,1
1200,22.0,13.11,4.47,1
1201,22.01,23.45,17.79,1
1202,22.03,27.83,13.85,1
1203,22.04,2.94,22.74,1
1204,22.05,11.16,30.38,1
1205,22.07,21.46,34.48,1
1206,22.08,34.22,8.58,1
1207,22.09,35.21,-12.34,1
1208,22.11,34.53,4.46,1
1209,22.12,13.16,36.13,1
1210,22.13,26.89,27.62,1
1211,22.15,20.92,46.49,1
1212,22.16,7.68,102.48,1
1213,22.17,15.35,274.23,1
1214,22.18,-17.84,364.01,1
1215,22.2,-92.55,307.57,1
1216,22.21,-153.05,209.07,1
1217,22.22,-80.91,36.38,1
1218,22.24,200.05,-149.11,1
1219,22.25,280.34,135.17,1
1220,22.26,158.6,-195.28,1
1221,22.28,-78.7,-111.04,1
1222,22.29,261.33,37.01,1
1223,22.31,-47.88,-161.68,1
1224,22.32,306.82,-107.73,1
1225,22.33,177.26,-405.47,1
1226,22.35,-40.16,-528.2,1
1227,22.36,-204.33,-415.27,1
1228,22.37,91.57,-319.96,1
1229,22.39,-148.87,60.47,1
1230,22.4,-131.23,-316.74,1
1231,22.41,-25.45,-4.23,1
1232,22.43,-208.27,-54.15,1
1233,22.44,-167.18,267.46,1
1234,22.45,-198.51,176.57,1
1235,22.47,-237.96,322.68,1
1236,22.48,-47.36,-88.75,1
1237,22.49,-117.32,-337.57,1
1238,22.51,54.78,-232.24,1
1239,22.52,-66.83,142.5,1
1240,22.53,-176.01,78.03,1
1241,22.55,138.24,16.66,1
1242,22.56,156.6,330.71,1
1243,22.57,67.55,551.29,1
1244,22.59,-85.94,300.0,1
1245,22.6,-93.24,204.32,1
1246,22.61,-85.88,17.77,1
1247,22.63,-58.23,-283.16,1
1248,22.64,72.94,87.07,1
1249,22.65,154.13,-499.41,1
1250,22.67,270.84,-17.48,1
1251,22.68,86.93,92.49,1
1252,22.69,244.91,90.59,1
1253,22.71,-114.57,26.43,1
1254,22.72,67.02,544.06,1
1255,22.73,-81.09,53.47,1
1256,22.75,-64.28,-137.29,1
1257,22.76,-104.97,-83.92,1
1258,22.77,-53.35,287.13,1
1259,22.79,157.7,225.59,1
1260,22.8,-50.11,-156.24,1
1261,22.81,-13.1,260.07,1
1262,22.82,116.37,-105.02,1
1263,22.84,-64.39,-106.66,1
1264,22.85,179.26,143.11,1
1265,22.86,-164.51,42.89,1
1266,22.88,-24.8,-421.46,1
1267,22.89,-227.65,156.91,1
1268,22.9,-134.95,-236.39,1
1269,22.92,173.06,122.15,1
1270,22.93,-60.88,340.43,1
1271,22.95,3.63,-10.83,1
1272,22.96,111.92,-208.08,1
1273,22.97,143.01,-362.35,1
1274,22.99,199.37,-147.32,1
1275,23.0,95.63,-119.24,1
1276,23.01,101.41,317.7,1
1277,23.03,-24.55,-83.81,1
1278,23.04,-44.78,-75.03,1
1279,23.05,-30.59,-75.24,1
1280,23.07,-88.73,-90.24,1
1281,23.08,29.49,131.27,1
1282,23.09,118.12,-105.11,1
1283,23.11,38.39,209.47,1
1284,23.12,8.94,-337.61,1
1285,23.13,-16.98,-173.31,1
1286,23.15,-53.59,-318.69,1
1287,23.16,-100.53,110.91,1
1288,23.17,-152.19,138.8,1
1289,23.19,-193.76,242.48,1
1290,23.2,-196.07,204.22,1
1291,23.21,-133.66,65.38,1
1292,23.23,-87.42,134.89,1
1293,23.24,-46.5,-55.3,1
1294,23.25,-7.34,-287.74,1
1295,23.27,20.81,-261.21,1
1296,23.28,72.12,-243.44,1
1297,23.29,97.6,-212.44,1
1298,23.31,119.91,-101.09,1
1299,23.32,139.85,-52.29,1
1300,23.33,120.44,-6.7,1
1301,23.35,107.97,81.08,1
1302,23.36,92.4,98.82,1
1303,23.37,71.45,81.16,1
1304,23.39,73.55,147.66,1
1305,23.4,46.26,163.3,1
1306,23.41,52.98,139.66,1
1307,23.43,45.33,151.58,1
1308,23.44,21.51,125.18,1
1309,23.45,8.06,117.58,1
1310,23.46,1.87,133.85,1
1311,23.48,-7.76,89.98,1
1312,23.49,-0.82,81.45,1
1313,23.5,-12.74,66.73,1
1314,23.52,-19.08,77.14,1
1315,23.53,-25.16,38.06,1
1316,23.54,-30.33,31.55,1
1317,23.56,-48.22,28.31,1
1318,23.57,-40.26,31.62,1
1319,23.59,-44.41,1.69,1
1320,23.6,-51.52,-23.43,1
1321,23.61,-47.07,-15.74,1
1322,23.63,-49.36,-16.38,1
1323,23.64,-37.17,-49.68,1
1324,23.65,-37.69,-43.85,1
1325,23.67,-41.62,-45.5,1
1326,23.68,-41.22,-31.18,1
1327,23.69,-37.46,-30.31,1
1328,23.71,-29.54,-35.19,1
1329,23.72,-32.75,-19.94,1
1330,23.73,-38.97,-40.8,1
1331,23.75,-29.97,-58.92,1
1332,23.76,-30.81,-49.12,1
1333,23.77,-26.06,-61.52,1
1334,23.79,-18.26,-81.75,1
1335,23.8,-19.48,-41.8,1
1336,23.81,-13.57,-48.02,1
1337,23.83,-12.13,-32.98,1
1338,23.84,0.45,-32.65,1
1339,23.85,1.53,-67.62,1
1340,23.87,-19.88,-29.03,1
1341,23.88,4.58,-11.55,1
1342,23.89,15.36,-52.4,1
1343,23.91,-2.59,-23.19,1
1344,23.92,1.96,-24.47,1
1345,23.93,10.25,-48.11,1
1346,23.95,22.54,-15.19,1
1347,23.96,6.72,-13.91,1
1348,23.97,13.9,-18.83,1
1349,23.99,3.09,-27.62,1
1350,24.0,13.66,4.87,1
1351,24.01,19.32,-23.74,1
1352,24.03,18.84,18.74,1
1353,24.04,-10.23,12.36,1
1354,24.05,16.62,-13.38,1
1355,24.07,14.76,-19.5,1
1356,24.08,16.49,6.78,1
1357,24.09,29.3,35.82,1
1358,24.1,28.35,24.3,1
1359,24.12,31.51,4.36,1
1360,24.13,26.64,27.12,1
1361,24.14,29.46,79.93,1
1362,24.16,31.1,157.76,1
1363,24.17,77.83,181.49,1
1364,24.18,-97.67,117.8,1
1365,24.2,349.58,289.38,1
1366,24.21,219.59,194.85,1
1367,24.22,-44.27,181.51,1
1368,24.24,-196.9,1.0,1
1369,24.25,-215.62,175.96,1
1370,24.27,-61.84,74.99,1
1371,24.28,206.58,39.17,1
1372,24.29,207.6,-138.8,1
1373,24.31,-15.3,-476.4,1
1374,24.32,64.81,-378.9,1
1375,24.33,-134.68,-430.39,1
1376,24.35,170.93,151.66,1
1377,24.36,99.93,-257.5,1
1378,24.37,-207.8,-105.65,1
1379,24.39,86.22,-472.79,1
1380,24.4,-155.97,-471.63,1
1381,24.41,-189.87,-101.54,1
1382,24.43,-178.86,28.52,1
1383,24.44,-142.11,-365.52,1
1384,24.45,-245.63,-213.13,1
1385,24.47,-159.46,-82.41,1
1386,24.48,-73.58,320.52,1
1387,24.49,0.39,260.2,1
1388,24.51,-88.16,143.68,1
1389,24.52,-165.89,-196.76,1
1390,24.53,89.48,102.37,1
1391,24.55,-82.61,273.44,1
1392,24.56,85.54,352.37,1
1393,24.57,74.0,787.94,1
1394,24.59,-85.14,326.28,1
1395,24.6,188.21,-32.39,1
1396,24.61,53.67,597.63,1
1397,24.63,72.06,112.5,1
1398,24.64,68.35,9.96,1
1399,24.65,18.37,-307.34,1
1400,24.67,161.37,-180.69,1
1401,24.68,248.09,194.17,1
1402,24.69,90.45,23.59,1
1403,24.71,82.98,-68.51,1
1404,24.72,-62.22,95.69,1
1405,24.73,142.4,-12.0,1
1406,24.75,-61.5,344.33,1
1407,24.76,-1.84,439.63,1
1408,24.77,-1.87,72.58,1
1409,24.78,-11.73,-478.69,1
1410,24.8,31.32,-213.34,1
1411,24.81,80.49,12.36,1
1412,24.82,-88.7,130.38,1
1413,24.84,188.02,136.01,1
1414,24.85,-175.33,-3.93,1
1415,24.86,0.86,-68.44,1
1416,24.88,-32.15,76.54,1
1417,24.89,101.45,-59.43,1
1418,24.91,-12.6,-607.15,1
1419,24.92,104.62,16.13,1
1420,24.93,-167.74,137.52,1
1421,24.95,36.31,-256.21,1
1422,24.96,-163.48,-196.11,1
1423,24.97,-36.11,3.16,1
1424,24.99,142.87,70.37,1
1425,25.0,26.5,2.63,1
1426,25.01,7.8,-408.99,1
1427,25.03,51.98,-246.4,1
1428,25.04,-104.89,35.69,1
1429,25.05,34.48,-327.1,1
1430,25.07,61.87,242.13,1
1431,25.08,89.08,-317.83,1
1432,25.09,74.58,152.31,1
1433,25.11,94.05,23.67,1
1434,25.12,-3.63,418.52,1
1435,25.13,-54.76,307.43,1
1436,25.15,-222.27,180.41,1
1437,25.16,-214.92,-75.01,1
1438,25.17,-167.68,-115.04,1
1439,25.19,-112.71,-207.11,1
1440,25.2,-55.92,-294.27,1
1441,25.21,-50.37,-274.39,1
1442,25.23,16.19,-252.63,1
1443,25.24,41.26,-162.97,1
1444,25.25,48.53,-101.84,1
1445,25.27,76.6,-46.18,1
1446,25.28,71.58,42.15,1
1447,25.29,78.33,100.73,1
1448,25.31,53.7,78.9,1
1449,25.32,42.21,113.24,1
1450,25.33,33.38,140.17,1
1451,25.35,47.04,135.62,1
1452,25.36,9.95,140.42,1
1453,25.37,36.48,139.68,1
1454,25.38,6.29,85.81,1
1455,25.4,5.1,111.52,1
1456,25.41,-14.74,136.38,1
1457,25.42,-16.63,81.97,1
1458,25.44,-14.55,91.27,1
1459,25.45,6.95,71.9,1
1460,25.46,4.37,85.93,1
1461,25.48,-11.17,77.54,1
1462,25.49,-6.99,52.36,1
1463,25.5,-29.4,61.95,1
1464,25.52,-26.15,12.39,1
1465,25.53,-30.02,13.31,1
1466,25.55,-41.28,33.67,1
1467,25.56,-36.26,1.61,1
1468,25.57,-26.3,23.11,1
1469,25.59,-19.69,-23.12,1
1470,25.6,-21.12,2.0,1
1471,25.61,-34.19,-1.55,1
1472,25.63,-43.79,-14.39,1
1473,25.64,-13.38,-30.31,1
1474,25.65,-18.63,-39.3,1
1475,25.67,-16.64,-36.92,1
1476,25.68,-2.05,-38.78,1
1477,25.69,-10.77,-25.37,1
1478,25.71,-16.06,-31.15,1
1479,25.72,2.05,-16.65,1
1480,25.73,0.69,-46.46,1
1481,25.75,4.98,-40.13,1
1482,25.76,-18.47,-43.12,1
1483,25.77,-1.15,-36.91,1
1484,25.79,-14.39,-58.28,1
1485,25.8,9.44,-35.54,1
1486,25.81,-2.36,-34.19,1
1487,25.83,10.96,-15.14,1
1488,25.84,10.41,-59.21,1
1489,25.85,34.01,-77.85,1
1490,25.87,15.23,-1.55,1
1491,25.88,-0.01,-18.21,1
1492,25.89,-0.92,-41.82,1
1493,25.91,-2.96,-59.44,1
1494,25.92,4.5,-62.56,1
1495,25.93,17.98,-11.57,1
1496,25.95,13.24,-34.69,1
1497,25.96,10.49,4.86,1
1498,25.97,1.83,5.07,1
1499,25.99,-6.2,-21.3,1
1500,26.0,16.5,-76.1,1
1501,26.01,22.94,-4.99,1
1502,26.02,21.54,83.6,1
1503,26.04,6.09,20.39,1
1504,26.05,-25.04,29.16,1
1505,26.06,-2.47,119.67,1
1506,26.08,-12.81,48.12,1
1507,26.09,4.68,12.29,1
1508,26.1,22.13,-153.93,1
1509,26.12,19.97,29.19,1
1510,26.13,34.32,215.01,1
1511,26.14,-2.05,98.43,1
1512,26.16,46.93,389.44,1
1513,26.17,14.53,319.54,1
1514,26.19,92.32,262.35,1
1515,26.2,350.64,180.79,1
1516,26.21,163.44,117.04,1
1517,26.23,95.43,-89.36,1
1518,26.24,239.8,-245.15,1
1519,26.25,89.83,-76.58,1
1520,26.27,71.98,-602.02,1
1521,26.28,-128.11,-436.94,1
1522,26.29,-101.02,-413.04,1
1523,26.31,74.81,-78.83,1
1524,26.32,-178.54,-5.67,1
1525,26.33,-153.05,-125.45,1
1526,26.35,-271.97,383.8,1
1527,26.36,-367.49,-220.38,1
1528,26.37,-77.17,-345.14,1
1529,26.39,-340.48,88.37,1
1530,26.4,-428.32,-165.01,1
1531,26.41,-54.73,463.89,1
1532,26.43,-365.99,31.49,1
1533,26.44,106.41,-325.05,1
1534,26.45,26.31,-88.76,1
1535,26.47,18.54,-9.38,1
1536,26.48,103.87,-225.92,1
1537,26.49,164.95,-164.42,1
1538,26.51,266.86,-193.05,1
1539,26.52,137.23,-122.57,1
1540,26.53,-149.12,185.36,1
1541,26.55,-27.91,571.16,1
1542,26.56,63.41,194.12,1
1543,26.57,94.11,158.24,1
1544,26.59,100.86,119.67,1
1545,26.6,66.06,-290.92,1
1546,26.61,-83.66,15.89,1
1547,26.63,-7.89,-57.02,1
1548,26.64,-16.07,19.43,1
1549,26.65,119.72,307.56,1
1550,26.67,5.27,458.25,1
1551,26.68,9.34,203.66,1
1552,26.69,41.4,139.48,1
1553,26.7,46.5,146.94,1
1554,26.72,369.55,482.78,1
1555,26.73,111.06,402.14,1
1556,26.75,374.21,103.43,1
1557,26.76,62.99,333.3,1
1558,26.77,-144.11,-63.96,1
1559,26.78,-122.19,-154.15,1
1560,26.8,-44.65,135.49,1
1561,26.81,-32.16,90.2,1
1562,26.82,74.15,-372.76,1
1563,26.84,52.74,-89.87,1
1564,26.85,42.42,-57.78,1
1565,26.87,-139.41,-452.07,1
1566,26.88,48.88,77.2,1
1567,26.89,-81.94,-168.8,1
1568,26.91,-49.62,-384.73,1
1569,26.92,-147.82,-253.01,1
1570,26.93,-82.1,-420.01,1
1571,26.95,42.24,-73.04,1
1572,26.96,91.66,202.97,1
1573,26.97,232.26,-48.39,1
1574,26.99,-62.92,460.62,1
1575,27.0,197.53,-98.77,1
1576,27.01,-182.4,-102.98,1
1577,27.03,-144.04,-35.87,1
1578,27.04,-16.32,-215.59,1
1579,27.05,-107.61,-120.43,1
1580,27.07,-1.87,-109.64,1
1581,27.08,-82.65,-274.74,1
1582,27.09,-95.21,-20.64,1
1583,27.11,-132.7,177.54,1
1584,27.12,-153.09,233.26,1
1585,27.13,-163.07,179.18,1
1586,27.15,-161.07,119.54,1
1587,27.16,-96.8,37.04,1
1588,27.17,-58.18,-153.59,1
1589,27.19,-18.02,-204.7,1
1590,27.2,12.64,-344.88,1
1591,27.21,63.33,-217.4,1
1592,27.23,85.38,-131.29,1
1593,27.24,101.84,-29.93,1
1594,27.25,109.83,-1.82,1
1595,27.27,139.9,12.64,1
1596,27.28,115.94,62.83,1
1597,27.29,127.76,136.06,1
1598,27.3,93.11,89.52,1
1599,27.32,92.11,121.92,1
1600,27.33,78.37,167.86,1
1601,27.34,77.31,139.29,1
1602,27.36,47.17,117.34,1
1603,27.37,43.35,82.89,1
1604,27.38,25.73,89.48,1
1605,27.4,16.81,58.42,1
1606,27.41,20.22,54.78,1
1607,27.42,20.65,69.15,1
1608,27.44,9.18,63.13,1
1609,27.45,-9.97,79.49,1
1610,27.46,1.17,69.73,1
1611,27.48,-24.23,51.63,1
1612,27.49,-37.59,7.03,1
1613,27.51,-27.62,65.39,1
1614,27.52,-43.28,32.99,1
1615,27.53,-37.16,37.16,1
1616,27.55,-43.02,29.03,1
1617,27.56,-32.45,-5.06,1
1618,27.57,-54.51,-16.67,1
1619,27.59,-45.2,-4.01,1
1620,27.6,-30.08,-18.86,1
1621,27.61,-29.53,-23.73,1
1622,27.63,-26.92,-4.07,1
1623,27.64,-36.92,-37.05,1
1624,27.65,-31.1,-30.41,1
1625,27.67,-30.26,-50.43,1
1626,27.68,-22.26,-44.81,1
1627,27.69,-25.01,-73.8,1
1628,27.71,-35.3,-89.13,1
1629,27.72,-29.48,-65.94,1
1630,27.73,-26.99,-62.06,1
1631,27.75,-26.77,-53.09,1
1632,27.76,-23.3,-69.61,1
1633,27.77,-19.71,-46.09,1
1634,27.79,-21.43,-43.12,1
1635,27.8,-4.2,-27.12,1
1636,27.81,6.67,-31.49,1
1637,27.83,-23.58,-29.49,1
1638,27.84,1.79,-38.32,1
1639,27.85,0.54,-20.71,1
1640,27.87,15.61,-14.12,1
1641,27.88,2.17,-14.69,1
1642,27.89,3.6,-20.45,1
1643,27.91,22.07,-33.78,1
1644,27.92,5.73,-16.69,1
1645,27.93,8.49,-16.9,1
1646,27.94,19.45,-11.1,1
1647,27.96,11.65,33.39,1
1648,27.97,21.05,5.05,1
1649,27.98,8.05,5.48,1
1650,28.0,10.07,14.55,1
1651,28.01,8.59,8.9,1
1652,28.02,4.96,-2.61,1
1653,28.04,6.19,-18.89,1
1654,28.05,-8.11,-3.96,1
1655,28.06,8.93,40.06,1
1656,28.08,16.4,8.6,1
1657,28.09,29.0,20.34,1
1658,28.1,43.71,48.83,1
1659,28.12,23.21,93.83,1
1660,28.13,4.18,86.9,1
1661,28.15,6.13,146.67,1
1662,28.16,26.97,212.05,1
1663,28.17,6.63,418.56,1
1664,28.19,-24.23,242.86,1
1665,28.2,-121.25,214.97,1
1666,28.21,48.69,136.41,1
1667,28.23,-24.28,-178.94,1
1668,28.24,78.71,-633.4,1
1669,28.25,307.55,2.21,1
1670,28.27,221.42,162.91,1
1671,28.28,313.26,-23.4,1
1672,28.29,178.19,-195.74,1
1673,28.31,158.2,-192.6,1
1674,28.32,20.67,-431.26,1
1675,28.33,-96.73,39.45,1
1676,28.35,-162.6,75.14,1
1677,28.36,-128.16,173.83,1
1678,28.37,-300.01,19.72,1
1679,28.39,-113.84,-208.58,1
1680,28.4,-268.84,-433.27,1
1681,28.41,-323.56,-464.2,1
1682,28.43,-393.27,-52.21,1
1683,28.44,121.92,-516.13,1
1684,28.45,-92.3,-54.22,1
1685,28.47,220.09,6.92,1
1686,28.48,-2.88,262.39,1
1687,28.49,-50.93,-301.13,1
1688,28.51,-51.92,495.76,1
1689,28.52,122.26,173.89,1
1690,28.53,-32.24,75.98,1
1691,28.55,-99.9,-355.71,1
1692,28.56,-2.95,-77.13,1
1693,28.57,-15.96,58.21,1
1694,28.58,-68.3,486.52,1
1695,28.6,-150.16,118.14,1
1696,28.61,121.02,323.51,1
1697,28.62,-109.74,42.86,1
1698,28.64,7.67,30.75,1
1699,28.65,345.28,198.87,1
1700,28.67,-16.01,253.74,1
1701,28.68,131.87,355.81,1
1702,28.69,-156.74,444.5,1
1703,28.7,-35.37,-7.63,1
1704,28.72,-111.03,-231.63,1
1705,28.73,55.15,324.31,1
1706,28.75,50.9,304.9,1
1707,28.76,146.01,157.23,1
1708,28.77,144.59,-158.72,1
1709,28.79,215.58,-40.07,1
1710,28.8,190.18,49.76,1
1711,28.81,285.1,-551.9,1
1712,28.83,-135.77,-438.12,1
1713,28.84,94.81,-134.52,1
1714,28.85,143.77,-63.86,1
1715,28.87,183.35,23.34,1
1716,28.88,-80.43,64.06,1
1717,28.89,53.68,-240.13,1
1718,28.91,-73.16,4.24,1
1719,28.92,10.71,-237.06,1
1720,28.93,-30.66,15.39,1
1721,28.95,-335.44,372.89,1
1722,28.96,-185.21,19.99,1
1723,28.97,-137.99,-67.49,1
1724,28.99,-111.47,-121.5,1
1725,29.0,73.5,-487.52,1
1726,29.01,26.16,27.72,1
1727,29.03,-61.79,82.26,1
1728,29.04,-97.0,-46.36,1
1729,29.05,-176.89,-2.69,1
1730,29.07,-69.08,-10.19,1
1731,29.08,-52.59,-7.4,1
1732,29.09,-50.33,43.05,1
1733,29.11,-51.27,-58.9,1
1734,29.12,-112.86,102.4,1
1735,29.13,-97.07,145.91,1
1736,29.15,-105.79,273.77,1
1737,29.16,-21.4,127.39,1
1738,29.17,22.35,162.2,1
1739,29.19,83.22,9.52,1
1740,29.2,114.27,-136.82,1
1741,29.21,145.65,-76.17,1
1742,29.22,130.45,-260.13,1
1743,29.24,163.39,-274.13,1
1744,29.25,164.18,-136.09,1
1745,29.26,187.11,-81.32,1
1746,29.28,174.44,-52.58,1
1747,29.29,139.03,-21.41,1
1748,29.3,146.87,65.46,1
1749,29.32,126.05,77.49,1
1750,29.33,83.41,99.89,1
1751,29.34,61.94,165.59,1
1752,29.36,49.46,115.65,1
1753,29.37,26.04,124.46,1
1754,29.38,17.18,138.57,1
1755,29.4,-5.11,103.62,1
1756,29.41,-11.49,58.91,1
1757,29.42,-37.72,63.87,1
1758,29.44,-31.7,44.67,1
1759,29.45,-45.75,52.37,1
1760,29.47,-55.73,91.64,1
1761,29.48,-42.31,82.95,1
1762,29.49,-58.62,69.35,1
1763,29.51,-63.62,41.06,1
1764,29.52,-63.76,-4.3,1
1765,29.53,-64.77,-12.01,1
1766,29.55,-75.69,-31.31,1
1767,29.56,-78.22,0.67,1
1768,29.57,-97.7,-66.74,1
1769,29.59,-81.82,-56.43,1
1770,29.6,-85.16,-46.34,1
1771,29.61,-73.09,-59.02,1
1772,29.63,-67.35,-38.96,1
1773,29.64,-73.93,-57.97,1
1774,29.65,-69.38,-78.45,1
1775,29.67,-45.0,-62.46,1
1776,29.68,-43.49,-64.94,1
1777,29.69,-41.41,-62.74,1
1778,29.71,-34.37,-92.66,1
1779,29.72,-37.46,-38.9,1
1780,29.73,-23.81,-51.11,1
1781,29.75,-33.55,-49.72,1
1782,29.76,-22.92,-72.15,1
1783,29.77,-11.65,-21.21,1
1784,29.79,2.43,-49.88,1
1785,29.8,-7.8,-30.61,1
1786,29.81,-9.97,-38.16,1
1787,29.83,7.65,-22.17,1
1788,29.84,-13.92,-7.69,1
1789,29.85,-10.13,-38.42,1
1790,29.86,5.03,-18.46,1
1791,29.88,25.43,-8.81,1
1792,29.89,13.67,-22.75,1
1793,29.9,14.08,-1.57,1
1794,29.92,22.56,-14.83,1
1795,29.93,21.68,-5.17,1
1796,29.94,17.89,22.04,1
1797,29.96,19.88,23.3,1
1798,29.97,23.55,10.62,1
1799,29.98,25.65,9.0,1
1800,30.0,44.89,13.22,1
1801,30.01,32.33,22.11,1
1802,30.02,20.71,19.35,1
1803,30.04,13.77,15.91,1
1804,30.05,6.48,5.31,1
1805,30.06,27.84,32.93,1
1806,30.08,22.76,26.03,1
1807,30.09,53.71,37.56,1
1808,30.11,36.79,60.17,1
1809,30.12,24.1,46.03,1
1810,30.13,29.43,-46.17,1
1811,30.15,8.59,-115.93,1
1812,30.16,20.88,114.98,1
1813,30.17,87.96,495.15,1
1814,30.19,56.05,337.18,1
1815,30.2,111.01,69.11,1
1816,30.21,132.29,-242.54,1
1817,30.23,71.94,91.19,1
1818,30.24,-75.48,-93.15,1
1819,30.25,14.64,297.95,1
1820,30.27,203.0,22.44,1
1821,30.28,199.41,-147.08,1
1822,30.29,104.36,-50.16,1
1823,30.31,3.6,-313.21,1
1824,30.32,-66.47,-450.65,1
1825,30.33,-106.09,-232.35,1
1826,30.35,-288.49,-409.35,1
1827,30.36,37.18,-194.14,1
1828,30.37,34.07,-60.37,1
1829,30.39,-303.01,-229.06,1
1830,30.4,-137.52,121.54,1
1831,30.41,-259.82,-169.51,1
1832,30.43,-65.75,440.56,1
1833,30.44,-271.31,13.79,1
1834,30.45,105.23,19.48,1
1835,30.47,-200.02,643.04,1
1836,30.48,89.49,161.63,1
1837,30.49,-36.59,105.83,1
1838,30.5,53.12,-125.17,1
1839,30.52,-69.66,128.1,1
1840,30.53,164.57,-148.5,1
1841,30.54,-51.84,409.52,1
1842,30.56,161.48,-46.51,1
1843,30.57,17.06,162.47,1
1844,30.58,-73.39,-132.44,1
1845,30.6,-87.91,323.61,1
1846,30.61,-99.2,143.57,1
1847,30.62,89.58,-88.32,1
1848,30.64,15.38,13.27,1
1849,30.65,-138.54,241.59,1
1850,30.67,-15.74,-277.82,1
1851,30.68,159.05,-454.06,1
1852,30.69,304.11,-12.7,1
1853,30.7,180.01,-273.96,1
1854,30.72,-96.31,31.26,1
1855,30.73,-150.81,65.56,1
1856,30.75,-13.13,355.98,1
1857,30.76,150.78,222.87,1
1858,30.77,37.28,32.8,1
1859,30.79,-2.13,-114.4,1
1860,30.8,-76.1,-177.83,1
1861,30.81,-50.1,324.78,1
1862,30.83,179.09,-16.34,1
1863,30.84,201.46,149.49,1
1864,30.85,66.32,-134.24,1
1865,30.87,-6.89,-645.33,1
1866,30.88,22.16,-283.27,1
1867,30.89,-158.32,313.38,1
1868,30.91,23.88,-271.87,1
1869,30.92,60.54,-442.5,1
1870,30.93,119.46,149.26,1
1871,30.95,-5.93,8.97,1
1872,30.96,-126.11,193.07,1
1873,30.97,51.76,-186.46,1
1874,30.99,-139.05,-363.42,1
1875,31.0,396.04,370.04,1
1876,31.01,-8.98,-60.92,1
1877,31.03,141.85,-275.73,1
1878,31.04,-40.58,199.14,1
1879,31.05,92.9,-161.35,1
1880,31.07,-113.62,220.96,1
1881,31.08,-9.81,-111.46,1
1882,31.09,-70.13,93.94,1
1883,31.11,-62.59,-127.33,1
1884,31.12,-57.54,-9.1,1
1885,31.13,-144.92,-21.93,1
1886,31.14,-153.06,128.56,1
1887,31.16,-167.23,136.66,1
1888,31.17,-210.24,358.15,1
1889,31.18,-199.19,310.3,1
1890,31.2,-102.23,103.38,1
1891,31.21,-22.15,101.88,1
1892,31.22,27.42,39.88,1
1893,31.24,58.05,-191.42,1
1894,31.25,79.22,-145.68,1
1895,31.26,77.0,-195.66,1
1896,31.28,89.58,-221.67,1
1897,31.29,91.57,-187.6,1
1898,31.3,76.34,-106.72,1
1899,31.32,98.54,-32.93,1
1900,31.33,108.33,43.42,1
1901,31.34,106.36,116.0,1
1902,31.36,67.01,147.64,1
1903,31.37,54.0,124.52,1
1904,31.39,27.54,150.12,1
1905,31.4,28.16,97.87,1
1906,31.41,15.75,127.28,1
1907,31.43,3.3,163.56,1
1908,31.44,7.4,137.39,1
1909,31.45,-4.07,108.57,1
1910,31.47,-12.88,82.47,1
1911,31.48,-22.84,60.48,1
1912,31.49,-16.38,53.53,1
1913,31.51,-30.78,47.28,1
1914,31.52,-39.78,49.09,1
1915,31.53,-32.62,24.6,1
1916,31.55,-45.87,-14.82,1
1917,31.56,-68.43,-9.49,1
1918,31.57,-68.47,-3.86,1
1919,31.59,-53.89,-27.33,1
1920,31.6,-32.61,-26.24,1
1921,31.61,-29.68,-36.73,1
1922,31.63,-37.63,-30.46,1
1923,31.64,-33.38,-46.57,1
1924,31.65,-29.49,-57.04,1
1925,31.67,-18.6,-45.35,1
1926,31.68,-26.83,-57.53,1
1927,31.69,-24.39,-58.91,1
1928,31.71,-10.81,-35.91,1
1929,31.72,2.06,-71.76,1
1930,31.73,-9.8,-36.7,1
1931,31.75,-3.63,-75.01,1
1932,31.76,-22.28,-49.09,1
1933,31.77,-6.58,-64.04,1
1934,31.78,-14.37,-42.74,1
1935,31.8,-14.53,-62.64,1
1936,31.81,0.63,-54.73,1
1937,31.82,-7.93,-36.69,1
1938,31.84,3.37,-41.17,1
1939,31.85,4.21,-45.14,1
1940,31.86,-3.64,-64.66,1
1941,31.88,6.67,-45.83,1
1942,31.89,-9.12,-63.59,1
1943,31.9,10.29,-32.45,1
1944,31.92,15.73,-66.19,1
1945,31.93,29.65,4.93,1
1946,31.94,8.26,-25.71,1
1947,31.96,33.55,-15.42,1
1948,31.97,-2.59,-3.3,1
1949,31.98,6.96,17.49,1
1950,32.0,6.48,19.32,1
1951,32.01,15.34,-15.17,1
1952,32.03,10.64,13.63,1
1953,32.04,18.52,1.61,1
1954,32.05,10.14,12.36,1
1955,32.07,22.33,-12.78,1
1956,32.08,11.1,-9.94,1
1957,32.09,10.17,-10.58,1
1958,32.11,4.05,6.43,1
1959,32.12,28.5,19.1,1
1960,32.13,17.56,39.21,1
1961,32.15,19.54,42.6,1
1962,32.16,11.07,33.64,1
1963,32.17,22.98,187.23,1
1964,32.19,36.97,422.66,1
1965,32.2,-5.92,168.72,1
1966,32.21,-218.09,199.21,1
1967,32.23,-41.3,-12.3,1
1968,32.24,-23.19,-13.58,1
1969,32.25,280.52,-602.04,1
1970,32.27,322.53,47.03,1
1971,32.28,-86.22,148.39,1
1972,32.29,114.17,75.36,1
1973,32.31,73.9,60.36,1
1974,32.32,303.1,-444.41,1
1975,32.33,196.89,-86.8,1
1976,32.35,48.74,273.95,1
1977,32.36,-77.89,-69.27,1
1978,32.37,-93.63,5.39,1
1979,32.39,-232.5,-305.23,1
1980,32.4,-174.96,-276.68,1
1981,32.41,-76.02,-404.32,1
1982,32.43,11.6,-243.91,1
1983,32.44,65.13,224.2,1
1984,32.45,-217.78,128.47,1
1985,32.47,-144.64,430.98,1
1986,32.48,0.12,195.55,1
1987,32.49,-228.62,-77.14,1
1988,32.51,-247.31,6.74,1
1989,32.52,-62.29,-461.32,1
1990,32.53,-56.75,-271.35,1
1991,32.54,278.26,92.33,1
1992,32.56,35.63,333.64,1
1993,32.57,-220.21,74.89,1
1994,32.59,48.36,-49.57,1
1995,32.6,-30.93,-300.47,1
1996,32.61,-84.16,237.42,1
1997,32.63,-48.86,295.69,1
1998,32.64,-376.83,191.55,1
1999,32.65,147.83,521.85,1
2000,32.67,76.51,-35.96,1
2001,32.68,120.74,71.53,1
2002,32.69,59.55,452.04,1
2003,32.71,-315.16,21.44,1
2004,32.72,53.12,130.07,1
2005,32.73,-100.85,158.95,1
2006,32.75,167.96,-63.5,1
2007,32.76,-54.37,59.96,1
2008,32.77,69.02,-487.34,1
2009,32.79,-117.54,-103.47,1
2010,32.8,240.85,80.42,1
2011,32.81,-21.14,-229.09,1
2012,32.83,202.34,-410.41,1
2013,32.84,253.93,-42.7,1
2014,32.85,259.05,-365.09,1
2015,32.87,250.61,112.27,1
2016,32.88,30.12,-110.97,1
2017,32.89,122.4,-168.72,1
2018,32.91,272.58,226.6,1
2019,32.92,-107.19,-191.44,1
2020,32.93,-31.02,-82.94,1
2021,32.95,-71.6,405.16,1
2022,32.96,-51.43,103.85,1
2023,32.97,148.9,251.44,1
2024,32.99,-78.37,-212.88,1
2025,33.0,-35.18,-26.71,1
2026,33.01,-57.81,62.23,1
2027,33.03,-85.4,-27.75,1
2028,33.04,-108.17,-93.68,1
2029,33.05,87.88,92.12,1
2030,33.06,-30.06,19.89,1
2031,33.08,-1.23,5.71,1
2032,33.09,-31.12,-77.79,1
2033,33.11,-59.37,26.26,1
2034,33.12,-107.5,134.72,1
2035,33.13,-163.46,231.4,1
2036,33.15,-191.37,254.23,1
2037,33.16,-125.34,103.87,1
2038,33.17,-53.88,150.5,1
2039,33.19,-3.51,-81.53,1
2040,33.2,23.86,-194.01,1
2041,33.21,36.68,-238.29,1
2042,33.22,56.22,-368.37,1
2043,33.24,78.7,-270.86,1
2044,33.25,66.27,-227.11,1
2045,33.27,85.39,-174.87,1
2046,33.28,102.61,-107.3,1
2047,33.29,92.21,-22.24,1
2048,33.31,84.49,39.82,1
2049,33.32,77.85,78.59,1
2050,33.33,54.01,104.88,1
2051,33.35,25.41,125.47,1
2052,33.36,18.26,141.17,1
2053,33.37,16.84,117.11,1
2054,33.39,18.13,117.22,1
2055,33.4,4.19,132.39,1
2056,33.41,-11.6,144.23,1
2057,33.43,-9.44,109.73,1
2058,33.44,-22.52,97.93,1
2059,33.45,-13.26,88.64,1
2060,33.47,-20.58,63.56,1
2061,33.48,-23.46,23.16,1
2062,33.49,-28.75,62.51,1
2063,33.51,-40.17,-1.16,1
2064,33.52,-53.19,13.18,1
2065,33.53,-55.91,-0.76,1
2066,33.55,-51.02,-3.71,1
2067,33.56,-40.26,-12.37,1
2068,33.57,-34.97,-40.96,1
2069,33.59,-45.6,-54.27,1
2070,33.6,-37.58,12.96,1
2071,33.61,-46.37,-39.56,1
2072,33.63,-48.14,-33.55,1
2073,33.64,-35.96,-30.36,1
2074,33.65,-43.7,-27.9,1
2075,33.67,-50.46,-59.38,1
2076,33.68,-42.91,-56.32,1
2077,33.69,-29.41,-47.68,1
2078,33.71,-29.19,-54.06,1
2079,33.72,-29.2,-50.42,1
2080,33.73,-21.2,-46.65,1
2081,33.75,-7.95,-76.61,1
2082,33.76,-18.07,-40.93,1
2083,33.77,-9.86,-37.62,1
2084,33.79,-2.54,-60.17,1
2085,33.8,-2.95,-34.54,1
2086,33.81,-0.33,-44.55,1
2087,33.83,20.48,-37.51,1
2088,33.84,10.83,2.27,1
2089,33.85,11.56,-28.25,1
2090,33.87,12.32,-7.39,1
2091,33.88,18.42,-8.14,1
2092,33.89,15.75,-14.16,1
2093,33.9,28.71,-13.07,1
2094,33.92,5.94,-6.9,1
2095,33.93,9.31,-28.73,1
2096,33.95,9.61,-15.4,1
2097,33.96,23.6,48.69,1
2098,33.97,26.42,7.91,1
2099,33.99,26.28,5.64,1
2100,34.0,21.18,16.95,1
2101,34.01,22.36,18.65,1
2102,34.03,25.07,-11.29,1
2103,34.04,25.31,24.05,1
2104,34.05,10.9,0.3,1
2105,34.07,10.88,15.31,1
2106,34.08,17.48,4.26,1
2107,34.09,16.51,31.43,1
2108,34.11,30.45,42.35,1
2109,34.12,29.5,25.74,1
2110,34.13,29.32,32.5,1
2111,34.15,30.35,74.93,1
2112,34.16,25.87,219.92,1
2113,34.17,13.14,91.43,1
2114,34.19,-157.36,-153.16,1
2115,34.2,-42.31,-41.87,1
2116,34.21,-55.64,176.76,1
2117,34.23,338.22,-184.55,1
2118,34.24,178.39,-47.43,1
2119,34.25,71.15,244.17,1
2120,34.27,196.26,152.14,1
2121,34.28,9.28,277.19,1
2122,34.29,270.55,117.68,1
2123,34.31,2.43,-175.57,1
2124,34.32,-228.12,-89.79,1
2125,34.33,92.55,-85.48,1
2126,34.35,-120.0,-6.72,1
2127,34.36,-109.9,128.48,1
2128,34.37,-75.16,-67.3,1
2129,34.38,-54.47,-348.88,1
2130,34.4,-156.84,-427.82,1
2131,34.41,-149.94,-251.22,1
2132,34.43,-172.99,-558.42,1
2133,34.44,-212.06,-266.4,1
2134,34.45,67.55,-13.85,1
2135,34.47,-96.52,5.73,1
2136,34.48,-171.51,-110.92,1
2137,34.49,70.73,81.88,1
2138,34.51,180.01,-127.66,1
2139,34.52,-423.37,392.14,1
2140,34.53,-80.48,483.78,1
2141,34.54,-301.35,482.99,1
2142,34.56,2.43,39.8,1
2143,34.57,88.39,-49.85,1
2144,34.59,20.93,-30.94,1
2145,34.6,-18.36,354.45,1
2146,34.61,350.23,-174.43,1
2147,34.63,61.66,512.25,1
2148,34.64,119.2,-156.49,1
2149,34.65,140.83,-41.93,1
2150,34.67,176.54,358.43,1
2151,34.68,53.31,-64.51,1
2152,34.69,245.72,122.51,1
2153,34.71,25.39,9.06,1
2154,34.72,12.32,-179.55,1
2155,34.73,16.86,120.25,1
2156,34.75,142.13,181.76,1
2157,34.76,89.58,-277.67,1
2158,34.77,106.66,-91.75,1
2159,34.79,67.07,-185.88,1
2160,34.8,-136.12,-51.5,1
2161,34.81,-56.55,49.38,1
2162,34.83,-202.99,301.61,1
2163,34.84,103.09,295.34,1
2164,34.85,-184.1,56.36,1
2165,34.87,59.49,-234.27,1
2166,34.88,-126.35,-505.16,1
2167,34.89,108.42,10.92,1
2168,34.91,120.66,-86.73,1
2169,34.92,-154.92,11.42,1
2170,34.93,-260.47,165.54,1
2171,34.95,-283.45,-202.2,1
2172,34.96,146.52,-229.1,1
2173,34.97,246.91,-256.29,1
2174,34.99,-77.44,-146.79,1
2175,35.0,90.2,-13.16,1
2176,35.01,50.68,8.29,1
2177,35.03,109.3,64.66,1
2178,35.04,94.46,327.27,1
2179,35.05,41.19,-47.74,1
2180,35.06,-103.92,64.16,1
2181,35.08,49.38,-23.66,1
2182,35.09,-88.96,-113.86,1
2183,35.11,-93.07,113.82,1
2184,35.12,-100.98,-54.18,1
2185,35.13,-150.91,-52.94,1
2186,35.15,-162.55,-72.4,1
2187,35.16,-154.06,-6.35,1
2188,35.17,-195.63,57.74,1
2189,35.19,-205.38,170.47,1
2190,35.2,-225.93,269.96,1
2191,35.21,-183.11,157.32,1
2192,35.22,-61.93,59.56,1
2193,35.24,31.69,12.84,1
2194,35.25,84.99,19.37,1
2195,35.27,142.41,-33.79,1
2196,35.28,177.36,-144.31,1
2197,35.29,172.45,-196.96,1
2198,35.31,185.48,-158.71,1
2199,35.32,174.66,-174.67,1
2200,35.33,173.08,-131.53,1
2201,35.35,162.5,-94.75,1
2202,35.36,152.24,-25.38,1
2203,35.37,155.72,-10.71,1
2204,35.39,140.22,39.82,1
2205,35.4,129.26,81.63,1
2206,35.41,89.1,56.52,1
2207,35.43,88.69,70.72,1
2208,35.44,59.93,81.61,1
2209,35.45,49.97,56.08,1
2210,35.47,21.1,59.4,1
2211,35.48,16.05,69.6,1
2212,35.49,-0.78,53.39,1
2213,35.51,-12.74,33.41,1
2214,35.52,-10.1,33.73,1
2215,35.53,-17.55,59.74,1
2216,35.55,-24.31,70.26,1
2217,35.56,-32.03,71.02,1
2218,35.57,-44.57,56.94,1
2219,35.59,-41.97,56.44,1
2220,35.6,-55.72,27.28,1
2221,35.61,-61.09,25.34,1
2222,35.63,-61.45,14.04,1
2223,35.64,-67.96,-0.56,1
2224,35.65,-66.35,11.1,1
2225,35.67,-54.94,19.84,1
2226,35.68,-56.26,-11.29,1
2227,35.69,-80.31,-36.36,1
2228,35.71,-65.42,-45.93,1
2229,35.72,-58.8,-9.29,1
2230,35.73,-55.73,-23.68,1
2231,35.75,-52.87,-56.35,1
2232,35.76,-54.91,-38.81,1
2233,35.77,-52.54,-34.95,1
2234,35.79,-43.38,-54.92,1
2235,35.8,-43.56,-44.04,1
2236,35.81,-43.49,-24.01,1
2237,35.83,-35.03,-34.33,1
2238,35.84,-23.3,-43.05,1
2239,35.85,-30.48,-11.47,1
2240,35.87,-31.58,-22.59,1
2241,35.88,-22.1,-29.65,1
2242,35.89,-24.34,-14.04,1
2243,35.9,-7.86,-33.17,1
2244,35.92,-22.21,-37.76,1
2245,35.93,0.06,-25.52,1
2246,35.95,6.78,-14.26,1
2247,35.96,8.73,8.2,1
2248,35.97,6.47,-14.87,1
2249,35.99,23.8,-7.76,1
2250,36.0,19.43,-22.82,1
2251,36.01,5.95,-4.85,1
2252,36.03,16.67,25.0,1
2253,36.04,31.25,-2.78,1
2254,36.05,-6.46,-3.46,1
2255,36.07,25.22,-11.06,1
2256,36.08,1.82,-16.82,1
2257,36.09,27.41,-21.39,1
2258,36.11,28.49,2.35,1
2259,36.12,12.37,-26.96,1
2260,36.13,51.52,8.32,1
2261,36.15,24.89,17.42,1
2262,36.16,22.57,15.39,1
2263,36.17,16.96,102.84,1
2264,36.19,12.32,209.07,1
2265,36.2,27.67,105.16,1
2266,36.21,34.97,-77.82,1
2267,36.23,-31.81,485.94,1
2268,36.24,204.85,-23.95,1
2269,36.25,149.82,-235.4,1
2270,36.27,191.93,55.12,1
2271,36.28,145.14,44.47,1
2272,36.29,-36.9,229.16,1
2273,36.31,-21.42,112.83,1
2274,36.32,135.91,-45.32,1
2275,36.33,79.15,-261.95,1
2276,36.35,-94.29,-229.93,1
2277,36.36,66.65,-112.17,1
2278,36.37,-17.21,-198.36,1
2279,36.38,-53.17,-515.21,1
2280,36.4,-87.04,-113.92,1
2281,36.41,-191.33,271.27,1
2282,36.43,-109.41,-68.26,1
2283,36.44,-412.77,-204.14,1
2284,36.45,195.06,-84.93,1
2285,36.47,-126.07,-140.34,1
2286,36.48,-123.58,-67.45,1
2287,36.49,-43.37,-289.55,1
2288,36.51,-208.37,103.09,1
2289,36.52,15.7,292.76,1
2290,36.53,-115.44,60.72,1
2291,36.54,-136.46,125.0,1
2292,36.56,-69.85,-165.55,1
2293,36.57,14.97,-108.56,1
2294,36.59,-131.08,-4.64,1
2295,36.6,186.78,203.83,1
2296,36.61,174.19,254.5,1
2297,36.63,-56.72,462.47,1
2298,36.64,-173.54,405.36,1
2299,36.65,-6.82,87.12,1
2300,36.67,-20.22,-197.02,1
2301,36.68,98.81,404.8,1
2302,36.69,128.8,-90.67,1
2303,36.71,-5.13,313.23,1
2304,36.72,-232.02,-221.64,1
2305,36.73,128.82,83.14,1
2306,36.75,208.43,273.47,1
2307,36.76,104.9,61.94,1
2308,36.77,64.43,-301.0,1
2309,36.79,-194.46,-620.75,1
2310,36.8,33.95,-387.6,1
2311,36.81,76.55,35.71,1
2312,36.83,71.52,48.86,1
2313,36.84,81.78,-223.22,1
2314,36.85,317.35,-107.57,1
2315,36.87,39.5,489.37,1
2316,36.88,20.2,144.83,1
2317,36.89,19.98,-205.86,1
2318,36.9,209.67,-258.33,1
2319,36.92,-43.58,9.68,1
2320,36.93,15.6,401.22,1
2321,36.95,-61.26,283.38,1
2322,36.96,-38.84,-22.03,1
2323,36.97,46.92,-36.08,1
2324,36.99,199.2,145.82,1
2325,37.0,251.14,-574.74,1
2326,37.01,-142.28,-177.16,1
2327,37.03,27.52,224.12,1
2328,37.04,132.1,46.31,1
2329,37.05,-67.15,71.69,1
2330,37.06,-70.68,-118.25,1
2331,37.08,36.67,-51.9,1
2332,37.09,38.65,-121.18,1
2333,37.11,-30.0,-95.97,1
2334,37.12,-32.52,9.85,1
2335,37.13,-51.33,133.8,1
2336,37.15,-99.85,226.46,1
2337,37.16,-137.45,249.13,1
2338,37.17,-128.52,159.73,1
2339,37.19,-113.93,82.16,1
2340,37.2,-46.01,55.96,1
2341,37.21,17.42,-114.76,1
2342,37.22,-0.23,-157.29,1
2343,37.24,28.51,-164.87,1
2344,37.25,30.86,-275.75,1
2345,37.27,30.18,-276.13,1
2346,37.28,30.7,-136.49,1
2347,37.29,36.41,-69.03,1
2348,37.31,48.25,24.5,1
2349,37.32,46.03,99.24,1
2350,37.33,33.37,48.49,1
2351,37.35,16.17,74.41,1
2352,37.36,0.16,37.26,1
2353,37.37,-23.62,62.84,1
2354,37.39,-24.5,96.42,1
2355,37.4,-31.16,121.58,1
2356,37.41,-16.32,113.4,1
2357,37.43,-7.56,111.38,1
2358,37.44,-17.04,97.12,1
2359,37.45,-47.22,90.17,1
2360,37.47,-46.56,116.04,1
2361,37.48,-67.91,108.32,1
2362,37.49,-55.83,53.87,1
2363,37.51,-49.89,32.49,1
2364,37.52,-46.1,38.14,1
2365,37.53,-44.88,-20.24,1
2366,37.54,-50.23,-15.32,1
2367,37.56,-29.71,-58.17,1
2368,37.57,-41.94,-25.5,1
2369,37.59,-33.88,-29.64,1
2370,37.6,-46.67,-63.53,1
2371,37.61,-39.21,-21.93,1
2372,37.63,-34.97,-67.06,1
2373,37.64,-49.51,-36.22,1
2374,37.65,-24.73,-58.73,1
2375,37.67,-31.78,-34.89,1
2376,37.68,-22.71,-47.95,1
2377,37.69,-18.49,-23.73,1
2378,37.71,-9.92,-52.25,1
2379,37.72,-0.64,-73.51,1
2380,37.73,-10.41,-31.23,1
2381,37.75,-10.73,-48.83,1
2382,37.76,4.63,-38.05,1
2383,37.77,6.9,-23.81,1
2384,37.79,14.32,-36.88,1
2385,37.8,8.84,-59.54,1
2386,37.81,11.05,-54.54,1
2387,37.83,26.25,-35.2,1
2388,37.84,14.11,-39.58,1
2389,37.85,34.31,-14.38,1
2390,37.87,33.64,-27.98,1
2391,37.88,18.05,-28.78,1
2392,37.89,30.57,-28.51,1
2393,37.91,39.76,-11.81,1
2394,37.92,15.44,-8.87,1
2395,37.93,17.22,-32.98,1
2396,37.95,39.14,-4.19,1
2397,37.96,18.08,10.91,1
2398,37.97,24.99,-10.56,1
2399,37.99,28.88,0.18,1
2400,38.0,33.98,17.86,1
2401,38.01,30.09,38.79,1
2402,38.03,28.51,27.06,1
2403,38.04,35.54,17.02,1
2404,38.05,28.65,-7.03,1
2405,38.07,15.7,47.99,1
2406,38.08,-6.24,32.55,1
2407,38.09,52.15,53.85,1
2408,38.11,26.33,70.02,1
2409,38.12,17.4,74.78,1
2410,38.13,34.41,-59.91,1
2411,38.15,10.6,-31.69,1
2412,38.16,-5.89,579.86,1
2413,38.17,34.95,282.6,1
2414,38.19,339.33,252.66,1
2415,38.2,208.3,117.4,1
2416,38.21,-111.53,140.8,1
2417,38.22,239.25,-2.64,1
2418,38.24,-277.32,106.09,1
2419,38.25,170.63,-105.65,1
2420,38.27,-71.41,-285.09,1
2421,38.28,153.28,-74.96,1
2422,38.29,-141.52,-130.34,1
2423,38.31,48.95,-254.4,1
2424,38.32,-287.07,-502.3,1
2425,38.33,135.38,-392.37,1
2426,38.35,-103.46,-218.14,1
2427,38.36,-249.2,-255.62,1
2428,38.37,-84.04,-337.88,1
2429,38.38,-147.02,-273.62,1
2430,38.4,-155.84,-181.42,1
2431,38.41,-134.96,-105.99,1
2432,38.43,50.69,-126.81,1
2433,38.44,-201.92,-198.51,1
2434,38.45,2.22,295.98,1
2435,38.47,-311.6,128.74,1
2436,38.48,-95.98,-90.26,1
2437,38.49,5.01,397.21,1
2438,38.51,120.81,534.82,1
2439,38.52,45.13,466.14,1
2440,38.53,-83.61,-55.39,1
2441,38.55,-35.81,-139.3,1
2442,38.56,-98.6,213.62,1
2443,38.57,152.89,261.36,1
2444,38.59,-60.5,335.34,1
2445,38.6,174.12,-188.82,1
2446,38.61,31.2,175.19,1
2447,38.63,20.08,-208.55,1
2448,38.64,68.44,104.58,1
2449,38.65,3.18,114.71,1
2450,38.67,166.98,222.48,1
2451,38.68,-35.21,-39.73,1
2452,38.69,58.91,233.86,1
2453,38.71,26.93,6.25,1
2454,38.72,128.32,240.66,1
2455,38.73,133.74,137.0,1
2456,38.75,-50.91,91.46,1
2457,38.76,76.19,-365.39,1
2458,38.77,65.54,65.63,1
2459,38.79,24.89,-340.71,1
2460,38.8,84.27,125.81,1
2461,38.81,144.4,-124.16,1
2462,38.83,-35.42,-1.4,1
2463,38.84,414.11,-14.72,1
2464,38.85,-97.71,277.28,1
2465,38.87,-27.48,222.42,1
2466,38.88,21.34,-228.1,1
2467,38.89,73.72,-23.36,1
2468,38.9,54.82,-59.88,1
2469,38.92,106.52,-346.1,1
2470,38.93,-4.21,224.77,1
2471,38.95,46.49,-152.71,1
2472,38.96,64.04,84.64,1
2473,38.97,-63.54,-135.32,1
2474,38.99,157.33,-69.01,1
2475,39.0,-491.65,-51.5,1
2476,39.01,-104.93,86.25,1
2477,39.03,-142.12,-53.81,1
2478,39.04,-117.39,-168.79,1
2479,39.05,-250.52,-79.73,1
2480,39.06,-86.12,-88.78,1
2481,39.08,-107.63,-62.47,1
2482,39.09,-77.22,113.92,1
2483,39.11,-106.09,250.14,1
2484,39.12,-82.27,143.85,1
2485,39.13,-74.0,68.67,1
2486,39.15,-44.15,74.01,1
2487,39.16,19.28,-104.75,1
2488,39.17,-12.26,-108.6,1
2489,39.19,-25.1,-186.82,1
2490,39.2,-49.44,-251.27,1
2491,39.21,29.38,-227.12,1
2492,39.23,61.64,-215.21,1
2493,39.24,109.75,-187.12,1
2494,39.25,132.78,-92.9,1
2495,39.27,132.2,-21.32,1
2496,39.28,150.87,-18.42,1
2497,39.29,125.36,13.17,1
2498,39.31,115.44,84.4,1
2499,39.32,91.38,96.88,1
2500,39.33,76.61,80.48,1
2501,39.35,61.87,69.94,1
2502,39.36,45.35,60.54,1
2503,39.37,42.76,135.17,1
2504,39.39,34.01,103.2,1
2505,39.4,27.53,111.52,1
2506,39.41,-3.75,135.61,1
2507,39.43,-6.74,86.62,1
2508,39.44,-5.45,94.1,1
2509,39.45,-25.07,51.89,1
2510,39.47,-18.28,33.6,1
2511,39.48,-34.06,14.77,1
2512,39.49,-27.99,-8.7,1
2513,39.51,-48.98,47.21,1
2514,39.52,-45.59,-6.06,1
2515,39.53,-35.07,-1.09,1
2516,39.54,-28.15,14.43,1
2517,39.56,-31.72,-26.54,1
2518,39.57,-43.61,-1.98,1
2519,39.59,-37.23,-23.74,1
2520,39.6,-46.64,-33.94,1
2521,39.61,-49.04,-9.24,1
2522,39.63,-38.37,-16.87,1
2523,39.64,-35.55,-24.05,1
2524,39.65,-35.17,1.29,1
2525,39.67,-38.88,-25.73,1
2526,39.68,-20.69,-4.89,1
2527,39.69,-34.04,-47.19,1
2528,39.71,-17.51,-22.88,1
2529,39.72,-16.41,-28.09,1
2530,39.73,-29.62,-25.66,1
2531,39.75,-26.59,-16.69,1
2532,39.76,-35.37,-10.98,1
2533,39.77,-29.17,1.51,1
2534,39.79,-11.14,-10.58,1
2535,39.8,4.49,13.89,1
2536,39.81,-11.48,-6.54,1
2537,39.83,9.08,-20.09,1
2538,39.84,-0.04,-17.85,1
2539,39.85,2.26,-32.4,1
2540,39.87,14.44,-9.33,1
2541,39.88,-1.17,-3.97,1
2542,39.89,4.35,5.86,1
2543,39.91,14.37,0.51,1
2544,39.92,15.68,-5.29,1
2545,39.93,24.49,18.24,1
2546,39.95,25.98,2.05,1
2547,39.96,5.37,-7.0,1
2548,39.97,14.85,-21.16,1
2549,39.99,6.67,10.69,1
2550,40.0,14.0,-5.34,1
2551,40.01,-1.01,-21.66,1
2552,40.03,17.9,24.19,1
2553,40.04,35.46,0.48,1
2554,40.05,18.02,8.75,1
2555,40.07,3.11,49.6,1
2556,40.08,21.34,15.84,1
2557,40.09,7.86,55.93,1
2558,40.11,20.02,109.6,1
2559,40.12,31.62,72.3,1
2560,40.13,52.19,329.39,1
2561,40.15,20.25,-29.49,1
2562,40.16,76.87,-128.21,1
2563,40.17,109.66,204.64,1
2564,40.19,112.98,-55.53,1
2565,40.2,124.21,231.17,1
2566,40.21,-67.61,164.24,1
2567,40.22,203.06,128.76,1
2568,40.24,0.22,4.28,1
2569,40.25,144.93,-268.2,1
2570,40.27,-37.18,-454.27,1
2571,40.28,12.28,-433.54,1
2572,40.29,0.37,-237.52,1
2573,40.31,79.27,32.88,1
2574,40.32,-25.76,-480.45,1
2575,40.33,-130.85,261.79,1
2576,40.35,-236.04,-101.72,1
2577,40.36,-75.33,-253.02,1
2578,40.37,-243.23,150.37,1
2579,40.38,-146.19,-266.89,1
2580,40.4,-201.42,-341.79,1
2581,40.41,-293.35,62.19,1
2582,40.43,-120.28,158.84,1
2583,40.44,-9.63,-149.91,1
2584,40.45,59.32,-54.6,1
2585,40.47,-175.85,536.95,1
2586,40.48,-63.13,297.42,1
2587,40.49,-104.52,200.95,1
2588,40.51,176.43,311.22,1
2589,40.52,-147.69,-136.6,1
2590,40.53,199.67,13.34,1
2591,40.55,0.77,33.65,1
2592,40.56,18.22,-55.51,1
2593,40.57,215.72,450.77,1
2594,40.59,49.76,112.36,1
2595,40.6,-14.94,132.48,1
2596,40.61,-24.6,-160.92,1
2597,40.63,-12.62,-173.81,1
2598,40.64,-160.31,-359.13,1
2599,40.65,219.53,-79.2,1
2600,40.67,18.78,255.2,1
2601,40.68,121.96,160.25,1
2602,40.69,205.23,125.1,1
2603,40.71,299.49,14.68,1
2604,40.72,30.04,-336.19,1
2605,40.73,-88.2,332.06,1
2606,40.75,-22.29,-5.29,1
2607,40.76,322.75,322.08,1
2608,40.77,-98.23,97.94,1
2609,40.79,66.05,-135.65,1
2610,40.8,-94.65,-419.24,1
2611,40.81,-93.65,-339.57,1
2612,40.83,-120.73,87.64,1
2613,40.84,12.48,-324.77,1
2614,40.85,-24.78,336.7,1
2615,40.87,-95.81,-10.15,1
2616,40.88,7.62,-275.96,1
2617,40.89,194.31,-166.67,1
2618,40.9,-134.71,139.62,1
2619,40.92,43.86,-162.4,1
2620,40.93,144.53,69.96,1
2621,40.95,-36.88,-34.95,1
2622,40.96,103.29,-44.78,1
2623,40.97,-108.19,-29.02,1
2624,40.99,21.71,0.83,1
2625,41.0,-30.2,49.03,1
2626,41.01,10.12,146.19,1
2627,41.03,-41.15,276.7,1
2628,41.04,-74.55,355.32,1
2629,41.05,-96.12,193.25,1
2630,41.06,-109.19,104.02,1
2631,41.08,-46.86,57.82,1
2632,41.09,8.19,20.38,1
2633,41.11,80.74,1.65,1
2634,41.12,72.39,-167.13,1
2635,41.13,75.02,-211.09,1
2636,41.15,59.28,-196.78,1
2637,41.16,64.72,-143.08,1
2638,41.17,48.59,-83.87,1
2639,41.19,66.52,-50.47,1
2640,41.2,40.68,19.75,1
2641,41.21,39.05,-2.8,1
2642,41.23,50.66,22.62,1
2643,41.24,40.72,10.8,1
2644,41.25,34.34,18.43,1
2645,41.27,32.76,65.33,1
2646,41.28,2.66,58.38,1
2647,41.29,-2.65,46.35,1
2648,41.31,-9.06,50.71,1
2649,41.32,-17.02,74.98,1
2650,41.33,-32.92,54.39,1
2651,41.35,-36.85,46.1,1
2652,41.36,-51.49,75.81,1
2653,41.37,-39.57,60.23,1
2654,41.38,-35.07,50.68,1
2655,41.4,-43.55,23.2,1
2656,41.41,-42.86,13.4,1
2657,41.43,-48.06,-2.04,1
2658,41.44,-6.2,-13.7,1
2659,41.45,-40.34,-34.98,1
2660,41.47,-54.82,-28.21,1
2661,41.48,-54.52,-29.79,1
2662,41.49,-55.03,-67.54,1
2663,41.51,-52.39,-57.26,1
2664,41.52,-39.88,36.94,1
2665,41.53,-38.14,-23.26,1
2666,41.54,-48.03,-27.71,1
2667,41.56,-44.93,-28.16,1
2668,41.57,-37.66,-11.54,1
2669,41.59,-34.39,-35.95,1
2670,41.6,-23.12,-18.93,1
2671,41.61,-16.48,-57.62,1
2672,41.63,-33.97,-52.84,1
2673,41.64,-19.78,-45.34,1
2674,41.65,-24.27,-22.61,1
2675,41.67,-6.07,-34.67,1
2676,41.68,-3.14,-26.47,1
2677,41.69,-9.21,4.95,1
2678,41.71,1.47,-52.22,1
2679,41.72,-2.25,-6.97,1
2680,41.73,6.88,10.05,1
2681,41.75,5.23,-26.38,1
2682,41.76,24.09,-8.81,1
2683,41.77,22.44,-16.9,1
2684,41.79,28.13,-24.75,1
2685,41.8,21.55,-3.66,1
2686,41.81,15.66,-17.09,1
2687,41.83,17.26,-35.49,1
2688,41.84,30.05,-9.21,1
2689,41.85,21.17,-31.26,1
2690,41.87,25.83,13.38,1
2691,41.88,14.51,21.45,1
2692,41.89,35.76,3.21,1
2693,41.91,39.65,-5.01,1
2694,41.92,19.17,-20.83,1
2695,41.93,8.88,0.46,1
2696,41.95,10.27,11.23,1
2697,41.96,23.35,10.17,1
2698,41.97,21.37,5.88,1
2699,41.99,21.81,28.56,1
2700,42.0,28.43,22.37,1
2701,42.01,20.05,14.04,1
2702,42.03,10.28,19.41,1
2703,42.04,27.87,11.37,1
2704,42.05,16.01,6.99,1
2705,42.06,4.07,30.97,1
2706,42.08,4.12,28.31,1
2707,42.09,2.83,21.55,1
2708,42.11,26.03,60.8,1
2709,42.12,-0.42,206.19,1
2710,42.13,10.79,257.55,1
2711,42.15,35.04,213.51,1
2712,42.16,16.75,-153.17,1
2713,42.17,66.61,-80.58,1
2714,42.19,-190.96,99.47,1
2715,42.2,65.48,287.8,1
2716,42.21,-18.02,97.26,1
2717,42.22,248.43,12.0,1
2718,42.24,123.72,-48.29,1
2719,42.25,223.36,-255.04,1
2720,42.27,70.38,9.73,1
2721,42.28,-57.36,-582.19,1
2722,42.29,212.75,-254.42,1
2723,42.31,23.14,127.37,1
2724,42.32,-55.04,-89.19,1
2725,42.33,63.0,107.3,1
2726,42.35,-341.17,-161.37,1
2727,42.36,-51.59,-0.23,1
2728,42.37,-92.52,-390.33,1
2729,42.38,-89.61,408.16,1
2730,42.4,-40.44,100.56,1
2731,42.41,-353.58,195.06,1
2732,42.43,-79.15,-34.36,1
2733,42.44,-210.0,-229.45,1
2734,42.45,-87.24,-255.62,1
2735,42.47,-79.97,-553.61,1
2736,42.48,-201.95,-84.13,1
2737,42.49,-140.06,-263.47,1
2738,42.51,-101.66,48.54,1
2739,42.52,60.53,-79.9,1
2740,42.53,-150.1,-205.72,1
2741,42.55,142.06,76.94,1
2742,42.56,-25.34,-303.79,1
2743,42.57,9.36,111.04,1
2744,42.59,63.71,16.36,1
2745,42.6,131.2,712.29,1
2746,42.61,-70.95,97.8,1
2747,42.63,-87.52,36.73,1
2748,42.64,65.72,-268.27,1
2749,42.65,174.98,14.16,1
2750,42.67,179.23,283.8,1
2751,42.68,131.43,554.94,1
2752,42.69,83.13,460.95,1
2753,42.71,-106.6,-5.87,1
2754,42.72,83.16,-43.48,1
2755,42.73,-175.78,101.71,1
2756,42.75,106.59,252.46,1
2757,42.76,89.05,353.96,1
2758,42.77,205.03,105.39,1
2759,42.79,-19.71,127.46,1
2760,42.8,225.33,-71.41,1
2761,42.81,109.42,-193.61,1
2762,42.83,340.51,-45.0,1
2763,42.84,66.05,103.15,1
2764,42.85,251.44,392.67,1
2765,42.87,-135.86,114.99,1
2766,42.88,-136.2,-83.29,1
2767,42.89,-236.54,384.14,1
2768,42.9,-311.08,-29.55,1
2769,42.92,-161.87,106.13,1
2770,42.93,-44.52,-256.77,1
2771,42.95,-263.33,-28.18,1
2772,42.96,116.8,214.94,1
2773,42.97,-86.05,-139.61,1
2774,42.99,-12.96,-278.37,1
2775,43.0,-11.52,-94.1,1
2776,43.01,41.44,-526.43,1
2777,43.03,129.77,-291.03,1
2778,43.04,224.32,-368.27,1
2779,43.05,91.78,-205.68,1
2780,43.06,23.29,-221.91,1
2781,43.08,131.11,-165.57,1
2782,43.09,-30.45,-162.59,1
2783,43.11,54.89,-118.97,1
2784,43.12,-57.37,-76.56,1
2785,43.13,-37.79,53.12,1
2786,43.15,-78.2,238.44,1
2787,43.16,-120.41,153.74,1
2788,43.17,-138.33,120.4,1
2789,43.19,-68.36,87.62,1
2790,43.2,-17.36,85.08,1
2791,43.21,49.2,-133.38,1
2792,43.23,57.06,-143.09,1
2793,43.24,74.83,-202.7,1
2794,43.25,89.23,-303.65,1
2795,43.27,69.22,-226.24,1
2796,43.28,81.28,-178.2,1
2797,43.29,55.82,-58.54,1
2798,43.31,35.43,42.16,1
2799,43.32,54.08,87.21,1
2800,43.33,55.01,98.29,1
2801,43.35,63.71,150.34,1
2802,43.36,48.73,163.78,1
2803,43.37,42.96,141.95,1
2804,43.38,19.18,154.32,1
2805,43.4,7.24,207.07,1
2806,43.41,-14.67,136.05,1
2807,43.43,-30.88,155.71,1
2808,43.44,-25.24,179.96,1
2809,43.45,-27.68,138.7,1
2810,43.47,-30.91,110.05,1
2811,43.48,-35.23,105.77,1
2812,43.49,-35.67,101.2,1
2813,43.51,-53.1,79.47,1
2814,43.52,-58.51,50.8,1
2815,43.53,-51.2,66.31,1
2816,43.54,-67.12,22.82,1
2817,43.56,-44.83,32.38,1
2818,43.57,-63.6,2.95,1
2819,43.59,-43.49,-5.03,1
2820,43.6,-44.47,-6.51,1
2821,43.61,-35.68,-41.2,1
2822,43.63,-60.14,-0.59,1
2823,43.64,-49.71,-6.62,1
2824,43.65,-41.07,-38.37,1
2825,43.67,-29.99,-29.71,1
2826,43.68,-43.0,-40.43,1
2827,43.69,-36.21,-47.32,1
2828,43.71,-45.76,-60.75,1
2829,43.72,-33.83,-25.33,1
2830,43.73,-29.74,-47.21,1
2831,43.75,-28.16,-70.3,1
2832,43.76,-20.78,-56.47,1
2833,43.77,0.65,-39.25,1
2834,43.79,11.05,-62.98,1
2835,43.8,-1.71,-67.93,1
2836,43.81,0.02,-40.54,1
2837,43.83,-4.94,-29.81,1
2838,43.84,17.83,-47.92,1
2839,43.85,12.96,-39.11,1
2840,43.87,22.62,-60.55,1
2841,43.88,9.51,-42.92,1
2842,43.89,18.16,-63.07,1
2843,43.91,15.05,-69.18,1
2844,43.92,31.96,-20.71,1
2845,43.93,17.03,-35.94,1
2846,43.95,16.13,-64.66,1
2847,43.96,21.87,-50.93,1
2848,43.97,29.4,25.3,1
2849,43.99,21.25,-18.22,1
2850,44.0,18.82,-23.62,1
2851,44.01,8.21,-36.35,1
2852,44.03,12.86,-11.52,1
2853,44.04,28.51,49.0,1
2854,44.05,42.66,23.78,1
2855,44.06,3.93,27.09,1
2856,44.08,18.2,-33.18,1
2857,44.09,5.64,6.86,1
2858,44.11,-8.4,40.1,1
2859,44.12,20.97,-1.47,1
2860,44.13,19.45,25.61,1
2861,44.15,21.77,105.8,1
2862,44.16,47.02,264.29,1
2863,44.17,35.75,224.95,1
2864,44.19,29.33,-174.75,1
2865,44.2,-25.56,66.48,1
2866,44.21,-149.99,9.05,1
2867,44.22,-109.27,344.66,1
2868,44.24,278.0,24.08,1
2869,44.25,146.57,192.46,1
2870,44.27,-42.58,48.98,1
2871,44.28,65.31,103.27,1
2872,44.29,327.38,95.05,1
2873,44.31,16.88,-1.24,1
2874,44.32,269.48,-67.13,1
2875,44.33,-34.43,-94.88,1
2876,44.35,168.39,-392.99,1
2877,44.36,-121.31,-323.78,1
2878,44.37,23.42,-523.31,1
2879,44.39,19.76,-31.58,1
2880,44.4,21.7,-115.27,1
2881,44.41,-373.38,-191.89,1
2882,44.43,-268.59,-299.53,1
2883,44.44,-262.97,94.77,1
2884,44.45,-42.03,-194.04,1
2885,44.47,-245.39,-176.43,1
2886,44.48,-26.02,-162.67,1
2887,44.49,11.75,458.12,1
2888,44.51,-75.57,-29.93,1
2889,44.52,55.45,378.18,1
2890,44.53,-59.55,236.83,1
2891,44.55,-59.43,70.2,1
2892,44.56,-92.23,346.15,1
2893,44.57,41.71,22.11,1
2894,44.59,-138.54,-181.7,1
2895,44.6,183.46,318.72,1
2896,44.61,-130.32,-81.58,1
2897,44.63,-82.79,-19.5,1
2898,44.64,-123.96,188.5,1
2899,44.65,-203.06,-14.75,1
2900,44.67,126.68,-516.88,1
2901,44.68,134.33,-162.42,1
2902,44.69,-48.53,285.39,1
2903,44.71,-73.38,5.11,1
2904,44.72,1.05,95.73,1
2905,44.73,105.57,-247.78,1
2906,44.75,77.32,177.22,1
2907,44.76,184.15,-19.62,1
2908,44.77,44.95,386.36,1
2909,44.79,55.8,-179.58,1
2910,44.8,221.33,27.89,1
2911,44.81,-226.62,394.11,1
2912,44.83,31.96,29.6,1
2913,44.84,-42.56,-2.33,1
2914,44.85,47.87,198.64,1
2915,44.87,45.02,-206.35,1
2916,44.88,99.9,-136.51,1
2917,44.89,-30.02,-468.31,1
2918,44.9,-33.86,29.57,1
2919,44.92,-71.58,-113.96,1
2920,44.93,258.74,99.19,1
2921,44.95,43.0,-141.27,1
2922,44.96,292.95,-346.1,1
2923,44.97,-23.86,178.22,1
2924,44.99,132.67,171.28,1
2925,45.0,52.61,226.34,1
2926,45.01,181.92,302.78,1
2927,45.03,153.75,-151.04,1
2928,45.04,-125.62,190.23,1
2929,45.05,85.0,16.73,1
2930,45.07,310.99,413.56,1
2931,45.08,-81.98,-172.94,1
2932,45.09,-5.84,-73.62,1
2933,45.11,-128.68,89.95,1
2934,45.12,87.45,-128.95,1
2935,45.13,-40.43,-54.83,1
2936,45.15,122.17,-225.25,1
2937,45.16,-79.53,-15.01,1
2938,45.17,-75.53,0.14,1
2939,45.19,-110.41,-23.27,1
2940,45.2,-161.01,-49.73,1
2941,45.21,-134.87,300.1,1
2942,45.22,-230.66,233.98,1
2943,45.24,-211.57,84.81,1
2944,45.25,-192.7,54.79,1
2945,45.27,-112.76,26.61,1
2946,45.28,-42.94,-134.36,1
2947,45.29,5.43,-204.46,1
2948,45.31,10.02,-227.85,1
2949,45.32,20.08,-215.86,1
2950,45.33,31.78,-221.6,1
2951,45.35,41.07,-214.03,1
2952,45.36,52.49,-135.35,1
2953,45.37,36.59,-31.83,1
2954,45.38,43.51,-9.44,1
2955,45.4,46.64,-3.43,1
2956,45.41,44.85,61.99,1
2957,45.43,42.25,103.34,1
2958,45.44,20.13,100.8,1
2959,45.45,22.56,115.37,1
2960,45.47,8.17,84.43,1
2961,45.48,11.85,115.87,1
2962,45.49,4.28,108.68,1
2963,45.51,-2.11,96.56,1
2964,45.52,-9.81,81.94,1
2965,45.53,-4.95,87.39,1
2966,45.54,-5.17,62.99,1
2967,45.56,-3.92,75.87,1
2968,45.57,-15.53,19.84,1
2969,45.59,-7.41,45.99,1
2970,45.6,-15.77,16.35,1
2971,45.61,-10.93,1.38,1
2972,45.63,-34.84,-26.42,1
2973,45.64,-35.17,-13.55,1
2974,45.65,-31.71,-43.91,1
2975,45.67,-29.96,-24.1,1
2976,45.68,-29.75,-34.22,1
2977,45.69,-22.1,-47.31,1
2978,45.71,-12.71,-53.41,1
2979,45.72,-17.58,-47.37,1
2980,45.73,-27.06,-70.1,1
2981,45.75,-29.33,-65.09,1
2982,45.76,-20.33,-21.86,1
2983,45.77,-9.54,-56.03,1
2984,45.79,-5.32,-29.42,1
2985,45.8,-11.98,-40.59,1
2986,45.81,-7.83,-38.79,1
2987,45.83,-5.98,-26.25,1
2988,45.84,1.33,-46.05,1
2989,45.85,6.65,-20.91,1
2990,45.87,-9.06,-35.65,1
2991,45.88,10.85,-11.06,1
2992,45.89,15.7,-16.07,1
2993,45.9,16.34,-40.25,1
2994,45.92,12.26,-38.13,1
2995,45.93,4.48,3.88,1
2996,45.95,20.4,-2.25,1
2997,45.96,32.94,-20.38,1
2998,45.97,23.92,6.17,1
2999,45.99,10.35,3.38,1
3000,46.0,22.99,31.62,1
3001,46.01,17.78,12.01,1
3002,46.03,26.89,13.33,1
3003,46.04,22.97,24.63,1
3004,46.05,16.54,-12.54,1
3005,46.06,-6.26,-15.47,1
3006,46.08,-1.18,26.69,1
3007,46.09,0.7,0.78,1
3008,46.11,10.21,29.19,1
3009,46.12,15.37,26.83,1
3010,46.13,21.16,183.42,1
3011,46.15,16.35,438.1,1
3012,46.16,-0.4,293.77,1
3013,46.17,-50.54,260.72,1
3014,46.19,26.84,171.72,1
3015,46.2,2.22,-113.88,1
3016,46.21,86.95,-485.43,1
3017,46.22,88.64,14.1,1
3018,46.24,170.42,131.78,1
3019,46.25,152.94,33.27,1
3020,46.27,199.31,53.33,1
3021,46.28,55.04,-123.76,1
3022,46.29,190.3,-465.81,1
3023,46.31,111.57,-693.76,1
3024,46.32,-70.64,-252.08,1
3025,46.33,50.1,72.15,1
3026,46.35,-109.05,-451.86,1
3027,46.36,-203.65,-96.51,1
3028,46.37,-163.74,-231.69,1
3029,46.39,-156.87,-135.25,1
3030,46.4,60.42,-161.35,1
3031,46.41,-72.69,236.98,1
3032,46.43,-172.01,146.6,1
3033,46.44,-191.67,58.2,1
3034,46.45,-61.24,261.09,1
3035,46.47,-379.35,-228.92,1
3036,46.48,-209.88,-107.09,1
3037,46.49,14.14,-172.46,1
3038,46.51,-78.11,27.83,1
3039,46.52,-139.69,193.99,1
3040,46.53,25.46,92.44,1
3041,46.54,-45.58,-21.11,1
3042,46.56,-208.63,196.03,1
3043,46.57,-109.12,65.22,1
3044,46.59,-55.1,331.96,1
3045,46.6,297.05,280.8,1
3046,46.61,24.58,357.33,1
3047,46.63,-16.36,391.52,1
3048,46.64,108.84,267.15,1
3049,46.65,-10.81,173.65,1
3050,46.67,-23.18,331.35,1
3051,46.68,209.99,333.82,1
3052,46.69,-175.6,145.14,1
3053,46.71,220.15,211.51,1
3054,46.72,317.89,-1.14,1
3055,46.73,-163.96,-169.82,1
3056,46.75,126.55,39.3,1
3057,46.76,24.08,-556.37,1
3058,46.77,83.64,-202.64,1
3059,46.79,84.89,-227.45,1
3060,46.8,40.37,108.33,1
3061,46.81,122.24,269.48,1
3062,46.83,77.27,44.82,1
3063,46.84,109.72,223.84,1
3064,46.85,61.54,-274.49,1
3065,46.87,333.73,-60.38,1
3066,46.88,123.37,263.13,1
3067,46.89,76.53,-170.54,1
3068,46.9,-274.17,119.55,1
3069,46.92,-87.75,184.37,1
3070,46.93,-38.78,-165.05,1
3071,46.95,-44.31,-68.98,1
3072,46.96,-64.39,-226.27,1
3073,46.97,-91.28,-205.89,1
3074,46.99,65.54,-654.76,1
3075,47.0,-56.46,-306.57,1
3076,47.01,259.58,102.25,1
3077,47.03,175.56,-132.84,1
3078,47.04,133.89,-106.23,1
3079,47.05,-11.85,-86.28,1
3080,47.07,-190.82,-65.75,1
3081,47.08,-87.74,-238.82,1
3082,47.09,-84.08,-275.8,1
3083,47.11,158.03,-111.75,1
3084,47.12,-231.77,32.1,1
3085,47.13,178.12,31.02,1
3086,47.15,-167.26,70.96,1
3087,47.16,-13.26,-66.65,1
3088,47.17,-81.98,-30.55,1
3089,47.19,-35.02,215.93,1
3090,47.2,-40.59,213.29,1
3091,47.21,-50.19,411.89,1
3092,47.22,-160.6,231.73,1
3093,47.24,-168.49,195.61,1
3094,47.25,-157.19,75.13,1
3095,47.27,-105.81,-110.94,1
3096,47.28,-50.31,-133.57,1
3097,47.29,-0.05,-322.0,1
3098,47.31,18.49,-362.84,1
3099,47.32,30.88,-308.43,1
3100,47.33,61.7,-201.81,1
3101,47.35,59.15,-141.13,1
3102,47.36,56.91,-33.05,1
3103,47.37,63.61,61.37,1
3104,47.38,83.42,61.79,1
3105,47.4,85.55,139.51,1
3106,47.41,58.0,193.43,1
3107,47.43,53.3,141.23,1
3108,47.44,68.7,151.74,1
3109,47.45,52.03,150.07,1
3110,47.47,37.13,137.53,1
3111,47.48,33.16,148.87,1
3112,47.49,33.47,149.09,1
3113,47.51,29.03,120.74,1
3114,47.52,12.58,143.42,1
3115,47.53,4.01,129.15,1
3116,47.54,6.26,107.77,1
3117,47.56,-18.21,129.71,1
3118,47.57,-7.37,87.41,1
3119,47.59,-12.07,56.84,1
3120,47.6,-23.39,52.95,1
3121,47.61,-16.39,2.38,1
3122,47.63,-29.37,12.63,1
3123,47.64,-19.06,-3.76,1
3124,47.65,-36.48,-21.28,1
3125,47.67,-29.39,-18.35,1
3126,47.68,-35.3,-23.57,1
3127,47.69,-21.79,-31.7,1
3128,47.71,-31.65,-38.91,1
3129,47.72,-52.96,-18.46,1
3130,47.73,-45.39,-12.04,1
3131,47.75,-55.1,-20.06,1
3132,47.76,-36.63,-78.33,1
3133,47.77,-32.89,-61.79,1
3134,47.79,-32.45,-51.22,1
3135,47.8,-22.02,-66.69,1
3136,47.81,-16.27,-54.27,1
3137,47.83,-19.18,-65.59,1
3138,47.84,-21.58,-18.07,1
3139,47.85,-7.77,-48.97,1
3140,47.87,-6.74,-15.36,1
3141,47.88,-12.5,-72.6,1
3142,47.89,-2.85,-31.6,1
3143,47.9,13.94,-22.75,1
3144,47.92,4.28,-53.66,1
3145,47.93,6.83,-51.02,1
3146,47.95,9.75,-8.49,1
3147,47.96,15.95,-54.71,1
3148,47.97,10.17,-39.74,1
3149,47.99,-3.91,-44.32,1
3150,48.0,11.59,-76.68,1
3151,48.01,5.38,-34.71,1
3152,48.03,9.36,-16.83,1
3153,48.04,14.86,-58.79,1
3154,48.05,15.91,-32.53,1
3155,48.06,10.84,-7.53,1
3156,48.08,2.32,-0.27,1
3157,48.09,15.95,-3.34,1
3158,48.11,18.62,-25.19,1
3159,48.12,36.74,-2.01,1
3160,48.13,26.48,1.67,1
3161,48.15,17.37,26.36,1
3162,48.16,2.83,94.24,1
3163,48.17,31.11,199.35,1
3164,48.19,-2.9,140.29,1
3165,48.2,6.65,58.77,1
3166,48.21,6.49,421.36,1
3167,48.22,-95.7,137.2,1
3168,48.24,-186.34,-16.49,1
3169,48.25,-93.72,-151.0,1
3170,48.27,365.42,-222.2,1
3171,48.28,52.75,-108.34,1
3172,48.29,415.68,141.39,1
3173,48.31,-1.03,60.73,1
3174,48.32,193.0,-112.81,1
3175,48.33,17.39,7.23,1
3176,48.35,-143.25,-193.83,1
3177,48.36,30.41,-343.79,1
3178,48.37,81.03,-231.38,1
3179,48.39,-43.34,-123.46,1
3180,48.4,-59.93,-549.09,1
3181,48.41,109.47,-195.36,1
3182,48.43,-2.54,169.88,1
3183,48.44,115.81,152.68,1
3184,48.45,-387.32,-118.42,1
3185,48.47,7.34,390.88,1
3186,48.48,-442.22,-167.21,1
3187,48.49,38.72,198.65,1
3188,48.51,-233.72,17.11,1
3189,48.52,-9.48,-36.64,1
3190,48.53,110.79,59.25,1
3191,48.54,-20.25,285.78,1
3192,48.56,-50.29,407.39,1
3193,48.57,-96.06,-53.62,1
3194,48.59,-137.95,-50.96,1
3195,48.6,114.77,279.98,1
3196,48.61,-111.41,-294.32,1
3197,48.63,24.94,193.94,1
3198,48.64,-87.57,-317.02,1
3199,48.65,165.48,252.19,1
3200,48.67,-40.23,357.93,1
3201,48.68,41.41,206.03,1
3202,48.69,-106.91,476.52,1
3203,48.71,7.42,172.07,1
3204,48.72,-73.07,206.2,1
3205,48.73,65.08,-452.3,1
3206,48.75,-98.36,-193.21,1
3207,48.76,-98.74,120.34,1
3208,48.77,-4.46,184.87,1
3209,48.79,-1.76,-239.55,1
3210,48.8,141.05,-60.27,1
3211,48.81,-7.2,477.02,1
3212,48.83,222.59,63.95,1
3213,48.84,-52.51,-183.62,1
3214,48.85,266.08,-305.35,1
3215,48.87,-78.3,-391.43,1
3216,48.88,148.96,-94.24,1
3217,48.89,167.76,-93.42,1
3218,48.9,25.93,-128.8,1
3219,48.92,164.91,344.89,1
3220,48.93,-43.44,-217.65,1
3221,48.95,152.85,-26.54,1
3222,48.96,82.52,-122.83,1
3223,48.97,100.32,30.99,1
3224,48.99,40.54,68.78,1
3225,49.0,-93.58,-174.71,1
3226,49.01,26.23,129.8,1
3227,49.03,-287.91,-113.66,1
3228,49.04,84.17,-474.19,1
3229,49.05,-296.54,-214.23,1
3230,49.06,276.76,58.12,1
3231,49.08,-177.07,-133.74,1
3232,49.09,-38.98,66.89,1
3233,49.11,47.79,-78.02,1
3234,49.12,-128.16,-16.77,1
3235,49.13,56.31,-45.63,1
3236,49.15,26.35,-10.05,1
3237,49.16,-6.42,123.42,1
3238,49.17,-6.07,221.14,1
3239,49.19,-22.02,399.42,1
3240,49.2,-90.76,332.41,1
3241,49.21,-143.6,141.01,1
3242,49.22,-133.27,148.35,1
3243,49.24,-57.08,81.48,1
3244,49.25,9.01,-130.26,1
3245,49.27,62.91,-115.85,1
3246,49.28,45.53,-218.52,1
3247,49.29,42.45,-252.39,1
3248,49.31,70.21,-242.26,1
3249,49.32,69.44,-179.87,1
3250,49.33,57.74,-91.04,1
3251,49.35,78.52,-54.25,1
3252,49.36,70.76,-23.08,1
3253,49.37,72.66,-12.89,1
3254,49.38,71.3,15.89,1
3255,49.4,68.1,71.96,1
3256,49.41,43.02,149.51,1
3257,49.43,31.32,143.43,1
3258,49.44,18.31,96.75,1
3259,49.45,4.74,133.22,1
3260,49.47,7.35,166.94,1
3261,49.48,-17.09,126.55,1
3262,49.49,-5.04,114.67,1
3263,49.51,-2.29,115.15,1
3264,49.52,-20.01,66.19,1
3265,49.53,-36.94,70.84,1
3266,49.54,-47.87,-1.93,1
3267,49.56,-40.76,15.55,1
3268,49.57,-37.66,7.6,1
3269,49.59,-33.22,20.13,1
3270,49.6,-50.79,6.09,1
3271,49.61,-45.9,-40.83,1
3272,49.63,-41.89,-43.85,1
3273,49.64,-55.93,-11.17,1
3274,49.65,-50.0,-29.03,1
3275,49.67,-27.28,-10.42,1
3276,49.68,-54.56,0.12,1
3277,49.69,-52.75,-16.83,1
3278,49.71,-45.97,-1.26,1
3279,49.72,-35.48,-21.95,1
3280,49.73,-36.06,-6.29,1
3281,49.75,-39.95,-56.32,1
3282,49.76,-17.34,-50.39,1
3283,49.77,-28.93,-35.59,1
3284,49.79,-33.08,-55.32,1
3285,49.8,-32.53,-52.06,1
3286,49.81,-15.72,-37.77,1
3287,49.83,-15.92,-15.9,1
3288,49.84,-3.62,-29.04,1
3289,49.85,8.18,-39.35,1
3290,49.87,-3.32,-41.56,1
3291,49.88,5.41,-47.91,1
3292,49.89,-2.22,-61.29,1
3293,49.9,3.83,-61.06,1
3294,49.92,9.14,-38.8,1
3295,49.93,16.97,-26.06,1
3296,49.95,10.1,-21.4,1
3297,49.96,28.35,-14.14,1
3298,49.97,18.91,-25.1,1
3299,49.99,22.43,1.35,1
3300,50.0,18.62,-32.3,1
3301,50.01,3.51,-29.47,1
3302,50.03,13.93,-25.32,1
3303,50.04,22.19,-22.41,1
3304,50.05,42.08,1.6,1
3305,50.06,21.67,6.15,1
3306,50.08,8.89,28.11,1
3307,50.09,31.53,-5.38,1
3308,50.11,20.03,0.36,1
3309,50.12,25.35,-2.68,1
3310,50.13,28.6,-3.43,1
3311,50.15,16.41,-101.49,1
3312,50.16,32.22,16.8,1
3313,50.17,38.27,345.75,1
3314,50.19,41.48,286.42,1
3315,50.2,-117.75,83.04,1
3316,50.21,-174.81,347.96,1
3317,50.22,140.19,29.74,1
3318,50.24,130.47,239.04,1
3319,50.25,119.51,-76.02,1
3320,50.27,-59.33,62.94,1
3321,50.28,19.23,-42.49,1
3322,50.29,266.97,-187.82,1
3323,50.31,-168.64,-95.12,1
3324,50.32,336.93,-405.95,1
3325,50.33,-303.62,258.62,1
3326,50.35,397.55,-252.9,1
3327,50.36,-135.32,-123.41,1
3328,50.37,263.44,165.05,1
3329,50.38,-248.21,-107.55,1
3330,50.4,-10.22,-333.66,1
3331,50.41,-260.33,-138.93,1
3332,50.43,-90.89,-61.16,1
3333,50.44,13.66,-125.09,1
3334,50.45,-55.88,-111.35,1
3335,50.47,-22.36,156.25,1
3336,50.48,23.72,-527.83,1
3337,50.49,-54.06,-340.56,1
3338,50.51,-8.4,-24.85,1
3339,50.52,-133.31,134.02,1
3340,50.53,-92.94,-263.68,1
3341,50.54,-73.26,194.5,1
3342,50.56,-25.85,-52.46,1
3343,50.57,24.49,381.31,1
3344,50.59,142.33,89.38,1
3345,50.6,35.09,318.25,1
3346,50.61,92.87,171.39,1
3347,50.63,102.2,201.44,1
3348,50.64,-69.52,1.71,1
3349,50.65,-111.29,-45.0,1
3350,50.67,130.06,-87.78,1
3351,50.68,-247.77,128.93,1
3352,50.69,13.08,3.34,1
3353,50.71,-116.3,46.86,1
3354,50.72,36.7,205.67,1
3355,50.73,-241.77,523.21,1
3356,50.75,168.12,-117.49,1
3357,50.76,8.66,-64.41,1
3358,50.77,-47.22,172.62,1
3359,50.79,19.17,161.91,1
3360,50.8,-163.59,-28.05,1
3361,50.81,166.76,-32.24,1
3362,50.83,88.07,-36.8,1
3363,50.84,4.48,-294.28,1
3364,50.85,10.56,78.14,1
3365,50.87,88.92,565.17,1
3366,50.88,23.63,1.23,1
3367,50.89,-71.58,-49.4,1
3368,50.91,103.88,253.39,1
3369,50.92,-121.18,-130.95,1
3370,50.93,-11.67,24.64,1
3371,50.95,118.55,-83.51,1
3372,50.96,17.95,-319.91,1
3373,50.97,-183.71,-41.43,1
3374,50.99,34.41,-390.19,1
3375,51.0,-77.48,-272.94,1
3376,51.01,86.89,-137.24,1
3377,51.03,-73.7,78.56,1
3378,51.04,233.62,-19.25,1
3379,51.05,11.24,3.84,1
3380,51.06,194.69,-86.1,1
3381,51.08,44.4,194.98,1
3382,51.09,84.35,229.72,1
3383,51.11,-190.58,271.0,1
3384,51.12,288.4,203.14,1
3385,51.13,-99.25,104.36,1
3386,51.15,73.38,94.08,1
3387,51.16,81.5,-39.0,1
3388,51.17,58.75,-116.81,1
3389,51.19,-55.1,-75.08,1
3390,51.2,-80.71,143.09,1
3391,51.21,-86.37,118.46,1
3392,51.22,-62.11,154.46,1
3393,51.24,-154.4,267.02,1
3394,51.25,-180.31,72.41,1
3395,51.27,-196.13,33.13,1
3396,51.28,-93.8,-209.91,1
3397,51.29,-45.14,-291.94,1
3398,51.31,11.67,-380.09,1
3399,51.32,36.49,-493.54,1
3400,51.33,87.4,-480.63,1
3401,51.35,124.64,-390.93,1
3402,51.36,92.48,-257.54,1
3403,51.37,55.04,-183.68,1
3404,51.38,59.18,-46.5,1
3405,51.4,52.53,-25.17,1
3406,51.41,71.26,75.93,1
3407,51.43,103.64,58.01,1
3408,51.44,89.45,62.39,1
3409,51.45,106.35,139.43,1
3410,51.47,70.18,109.22,1
3411,51.48,36.8,114.07,1
3412,51.49,44.89,117.6,1
3413,51.51,14.91,103.86,1
3414,51.52,13.63,106.28,1
3415,51.53,-5.18,97.55,1
3416,51.55,10.17,107.63,1
3417,51.56,-0.05,83.4,1
3418,51.57,-25.55,63.05,1
3419,51.59,-26.23,66.52,1
3420,51.6,-55.35,91.35,1
3421,51.61,-64.37,64.74,1
3422,51.63,-56.56,33.62,1
3423,51.64,-57.6,48.16,1
3424,51.65,-62.78,42.44,1
3425,51.67,-64.96,48.26,1
3426,51.68,-65.76,-8.87,1
3427,51.69,-48.48,-12.25,1
3428,51.71,-45.16,-50.86,1
3429,51.72,-60.98,3.86,1
3430,51.73,-62.79,-35.93,1
3431,51.75,-50.97,-19.17,1
3432,51.76,-45.31,-1.06,1
3433,51.77,-32.79,-28.58,1
3434,51.79,-50.54,-9.08,1
3435,51.8,-41.18,-20.12,1
3436,51.81,-46.48,-10.1,1
3437,51.83,-34.96,-33.49,1
3438,51.84,-17.21,-3.9,1
3439,51.85,-25.15,-50.91,1
3440,51.87,-13.85,-9.69,1
3441,51.88,-14.63,-9.89,1
3442,51.89,-0.37,-11.61,1
3443,51.9,0.21,15.11,1
3444,51.92,-3.46,-30.31,1
3445,51.93,0.01,-16.53,1
3446,51.95,8.82,3.08,1
3447,51.96,18.02,-15.55,1
3448,51.97,1.12,-52.53,1
3449,51.99,21.27,-8.31,1
3450,52.0,11.71,-35.95,1
3451,52.01,35.87,-10.86,1
3452,52.03,15.71,9.33,1
3453,52.04,29.45,-4.39,1
3454,52.05,16.19,8.27,1
3455,52.06,14.1,1.53,1
3456,52.08,-0.72,-4.06,1
3457,52.09,13.21,14.44,1
3458,52.11,36.56,48.99,1
3459,52.12,18.08,29.14,1
3460,52.13,31.59,81.6,1
3461,52.15,38.59,135.21,1
3462,52.16,16.64,240.6,1
3463,52.17,28.37,399.47,1
3464,52.19,-28.24,168.94,1
3465,52.2,45.42,49.95,1
3466,52.21,32.97,140.89,1
3467,52.23,343.31,-281.58,1
3468,52.24,-215.39,-231.87,1
3469,52.25,-230.58,251.76,1
3470,52.27,132.31,11.34,1
3471,52.28,270.73,113.73,1
3472,52.29,-235.46,-197.77,1
3473,52.31,50.22,-495.4,1
3474,52.32,38.37,-247.48,1
3475,52.33,65.06,-412.01,1
3476,52.35,90.84,-158.14,1
3477,52.36,260.21,-522.55,1
3478,52.37,159.26,30.77,1
3479,52.38,204.5,-41.94,1
3480,52.4,-79.29,-398.83,1
3481,52.41,-156.1,-15.44,1
3482,52.43,136.15,187.66,1
3483,52.44,-253.4,-91.69,1
3484,52.45,-110.29,-329.29,1
3485,52.47,-0.22,-77.28,1
3486,52.48,-203.12,374.56,1
3487,52.49,-199.38,230.56,1
3488,52.51,-43.53,-109.0,1
3489,52.52,-218.23,299.4,1
3490,52.53,0.39,-107.05,1
3491,52.54,-306.89,474.21,1
3492,52.56,65.1,-12.87,1
3493,52.57,27.7,457.81,1
3494,52.59,9.08,304.35,1
3495,52.6,-19.34,-293.59,1
3496,52.61,49.32,-148.23,1
3497,52.63,63.9,66.7,1
3498,52.64,70.13,348.61,1
3499,52.65,161.06,-38.57,1
3500,52.67,50.53,407.4,1
3501,52.68,-64.94,-8.06,1
3502,52.69,-120.76,615.39,1
3503,52.71,106.11,210.59,1
3504,52.72,-213.86,-176.39,1
3505,52.73,319.61,189.96,1
3506,52.75,100.68,47.15,1
3507,52.76,-7.72,-365.67,1
3508,52.77,-53.12,228.39,1
3509,52.79,-35.52,-53.26,1
3510,52.8,-119.79,-347.92,1
3511,52.81,2.63,21.07,1
3512,52.83,-159.06,-39.62,1
3513,52.84,-258.7,-119.01,1
3514,52.85,123.54,-211.92,1
3515,52.87,81.04,117.51,1
3516,52.88,-234.77,18.52,1
3517,52.89,255.73,-207.7,1
3518,52.9,144.68,127.47,1
3519,52.92,15.11,-122.48,1
3520,52.93,128.91,-251.84,1
3521,52.95,239.62,100.3,1
3522,52.96,-172.21,299.93,1
3523,52.97,-151.29,-219.21,1
3524,52.99,113.47,-61.66,1
3525,53.0,192.63,-333.79,1
3526,53.01,24.1,276.67,1
3527,53.03,227.95,-34.81,1
3528,53.04,-48.41,-182.75,1
3529,53.05,204.7,-25.77,1
3530,53.06,-92.71,-62.27,1
3531,53.08,-2.37,4.62,1
3532,53.09,-102.22,-5.79,1
3533,53.11,-16.06,68.83,1
3534,53.12,-77.22,179.75,1
3535,53.13,-72.64,240.63,1
3536,53.15,-85.01,126.72,1
3537,53.16,-132.5,107.84,1
3538,53.17,-149.72,-37.0,1
3539,53.19,-86.57,-122.99,1
3540,53.2,-59.81,-260.27,1
3541,53.21,10.96,-335.21,1
3542,53.22,31.36,-374.91,1
3543,53.24,47.55,-302.3,1
3544,53.25,38.41,-199.61,1
3545,53.27,79.47,-114.93,1
3546,53.28,78.07,-38.85,1
3547,53.29,82.31,-56.96,1
3548,53.31,80.96,53.63,1
3549,53.32,60.2,51.1,1
3550,53.33,57.29,80.28,1
3551,53.35,54.29,49.0,1
3552,53.36,43.14,72.15,1
3553,53.37,45.61,92.79,1
3554,53.38,26.82,128.75,1
3555,53.4,23.98,107.91,1
3556,53.41,19.76,121.82,1
3557,53.43,18.77,135.41,1
3558,53.44,6.38,126.57,1
3559,53.45,-9.63,120.6,1
3560,53.47,-12.53,144.3,1
3561,53.48,-41.23,116.64,1
3562,53.49,-33.87,86.45,1
3563,53.51,-36.02,68.83,1
3564,53.52,-29.21,78.32,1
3565,53.53,-69.91,49.41,1
3566,53.54,-52.47,32.77,1
3567,53.56,-58.29,29.45,1
3568,53.57,-42.34,7.82,1
3569,53.59,-51.63,42.17,1
3570,53.6,-38.58,-0.94,1
3571,53.61,-37.19,-11.69,1
3572,53.63,-33.89,-19.85,1
3573,53.64,-28.13,-29.81,1
3574,53.65,-37.65,-27.59,1
3575,53.67,-25.23,-36.03,1
3576,53.68,-22.93,-10.97,1
3577,53.69,-32.4,-33.66,1
3578,53.71,-31.31,-54.86,1
3579,53.72,-14.14,-43.87,1
3580,53.73,-22.51,-44.74,1
3581,53.75,-30.8,-42.79,1
3582,53.76,-13.48,-67.81,1
3583,53.77,-29.19,-71.56,1
3584,53.79,-11.36,-0.82,1
3585,53.8,-4.57,-26.12,1
3586,53.81,-0.39,-29.37,1
3587,53.83,11.31,-28.89,1
3588,53.84,20.85,1.94,1
3589,53.85,9.72,-41.06,1
3590,53.87,-0.99,-25.41,1
3591,53.88,-12.65,-37.13,1
3592,53.89,5.96,24.89,1
3593,53.9,13.12,-60.02,1
3594,53.92,1.96,-38.56,1
3595,53.93,26.9,-27.51,1
3596,53.95,9.15,-7.42,1
3597,53.96,18.26,-10.38,1
3598,53.97,15.52,-15.65,1
3599,53.99,31.32,-0.03,1
3600,54.0,27.81,-30.34,1
3601,54.01,25.2,-33.89,1
3602,54.03,12.2,-10.01,1
3603,54.04,23.08,-15.58,1
3604,54.05,25.56,-36.8,1
3605,54.06,20.7,27.47,1
3606,54.08,-19.58,24.49,1
3607,54.09,17.79,49.36,1
3608,54.11,9.1,32.74,1
3609,54.12,14.38,53.99,1
3610,54.13,20.08,116.6,1
3611,54.15,10.16,-0.53,1
3612,54.16,21.09,111.24,1
3613,54.17,18.57,339.19,1
3614,54.19,32.02,160.71,1
3615,54.2,-5.23,14.11,1
3616,54.21,256.76,-109.52,1
3617,54.22,270.11,189.78,1
3618,54.24,79.98,198.61,1
3619,54.25,62.77,146.21,1
3620,54.27,-125.95,96.39,1
3621,54.28,-40.76,63.23,1
3622,54.29,-183.53,-18.64,1
3623,54.31,60.81,-168.92,1
3624,54.32,-54.2,-501.28,1
3625,54.33,78.1,-589.14,1
3626,54.35,158.02,-110.09,1
3627,54.36,-84.0,-346.85,1
3628,54.37,-218.07,234.66,1
3629,54.38,-87.5,-372.57,1
3630,54.4,30.86,-503.18,1
3631,54.41,72.05,32.64,1
3632,54.43,-188.49,261.15,1
3633,54.44,-161.26,-115.42,1
3634,54.45,41.84,130.94,1
3635,54.47,-165.55,-351.84,1
3636,54.48,-19.11,90.9,1
3637,54.49,-188.89,-236.27,1
3638,54.51,-153.41,332.36,1
3639,54.52,-253.68,-347.1,1
3640,54.53,-130.1,-34.69,1
3641,54.54,-183.29,-27.33,1
3642,54.56,-86.71,90.45,1
3643,54.57,253.45,540.15,1
3644,54.59,-129.47,325.34,1
3645,54.6,224.14,-332.93,1
3646,54.61,-125.03,-43.55,1
3647,54.63,205.95,1.02,1
3648,54.64,135.65,349.16,1
3649,54.65,93.45,544.41,1
3650,54.67,89.02,-192.6,1
3651,54.68,65.93,44.06,1
3652,54.69,-141.64,425.56,1
3653,54.71,94.84,530.65,1
3654,54.72,-230.41,173.07,1
3655,54.73,156.28,-76.01,1
3656,54.75,147.63,51.03,1
3657,54.76,104.35,-228.16,1
3658,54.77,-203.26,-97.47,1
3659,54.79,-14.85,210.62,1
3660,54.8,208.62,424.97,1
3661,54.81,344.38,-228.96,1
3662,54.83,261.49,-118.03,1
3663,54.84,163.59,-30.11,1
3664,54.85,-201.53,210.82,1
3665,54.87,-169.77,-99.38,1
3666,54.88,324.56,280.87,1
3667,54.89,-108.36,-180.08,1
3668,54.9,61.57,-45.89,1
3669,54.92,-290.2,96.69,1
3670,54.93,75.56,-177.16,1
3671,54.95,-9.49,72.94,1
3672,54.96,-36.2,-407.98,1
3673,54.97,206.29,-180.5,1
3674,54.99,30.63,177.85,1
3675,55.0,-20.7,-43.02,1
3676,55.01,203.21,-301.6,1
3677,55.03,77.71,-121.63,1
3678,55.04,51.4,95.47,1
3679,55.05,-71.47,-4.82,1
3680,55.06,-61.04,-70.64,1
3681,55.08,102.44,-56.47,1
3682,55.09,1.21,178.63,1
3683,55.11,-34.17,136.29,1
3684,55.12,-85.44,140.89,1
3685,55.13,-91.71,177.64,1
3686,55.15,-113.8,70.36,1
3687,55.16,-116.67,-49.93,1
3688,55.17,-117.19,-236.89,1
3689,55.19,-108.79,-422.94,1
3690,55.2,-98.25,-403.11,1
3691,55.21,-37.59,-315.45,1
3692,55.22,-18.72,-223.95,1
3693,55.24,25.56,-140.34,1
3694,55.25,29.48,-43.48,1
3695,55.27,53.59,-13.26,1
3696,55.28,28.62,45.64,1
3697,55.29,57.13,61.97,1
3698,55.31,76.64,79.19,1
3699,55.32,41.32,62.56,1
3700,55.33,38.46,86.1,1
3701,55.35,20.02,62.13,1
3702,55.36,17.45,72.48,1
3703,55.37,17.18,82.08,1
3704,55.38,3.88,46.25,1
3705,55.4,7.09,50.21,1
3706,55.41,-7.16,46.8,1
3707,55.43,-19.22,74.31,1
3708,55.44,-27.6,55.29,1
3709,55.45,-34.47,50.46,1
3710,55.47,-48.23,54.11,1
3711,55.48,-49.07,38.43,1
3712,55.49,-49.61,43.9,1
3713,55.51,-43.65,34.07,1
3714,55.52,-35.14,28.46,1
3715,55.53,-33.63,44.25,1
3716,55.54,-42.86,34.85,1
3717,55.56,-28.3,22.21,1
3718,55.57,-49.08,-12.51,1
3719,55.59,-54.28,-25.57,1
3720,55.6,-52.91,2.43,1
3721,55.61,-20.06,-11.0,1
3722,55.63,-22.59,14.69,1
3723,55.64,-11.43,1.61,1
3724,55.65,-13.97,-19.14,1
3725,55.67,-20.49,-26.21,1
3726,55.68,-16.88,-10.69,1
3727,55.69,-20.57,-38.06,1
3728,55.71,-9.48,-34.93,1
3729,55.72,-7.39,-18.18,1
3730,55.73,-9.12,-34.43,1
3731,55.75,6.49,-8.05,1
3732,55.76,2.57,-24.04,1
3733,55.77,4.75,38.19,1
3734,55.79,12.33,-1.14,1
3735,55.8,-4.09,14.73,1
3736,55.81,22.22,9.21,1
3737,55.83,19.45,-19.81,1
3738,55.84,28.32,-25.63,1
3739,55.85,26.4,-0.22,1
3740,55.87,14.71,9.79,1
3741,55.88,33.13,14.69,1
3742,55.89,14.75,19.16,1
3743,55.9,23.03,10.19,1
3744,55.92,13.25,4.86,1
3745,55.93,30.27,21.33,1
3746,55.95,28.35,13.92,1
3747,55.96,22.88,-11.21,1
3748,55.97,23.39,-4.43,1
3749,55.99,24.06,1.91,1
3750,56.0,12.74,-15.16,1
3751,56.01,22.49,-27.44,1
3752,56.03,24.53,8.71,1
3753,56.04,13.09,-36.34,1
3754,56.05,8.35,-28.28,1
3755,56.06,6.84,38.98,1
3756,56.08,-3.72,6.05,1
3757,56.09,8.78,12.92,1
3758,56.11,21.81,4.8,1
3759,56.12,43.0,16.86,1
3760,56.13,6.36,46.0,1
3761,56.15,7.78,66.99,1
3762,56.16,30.09,256.73,1
3763,56.17,5.09,281.57,1
3764,56.19,-1.04,21.91,1
3765,56.2,51.94,220.29,1
3766,56.21,-243.27,-82.83,1
3767,56.22,97.15,-249.71,1
3768,56.24,195.42,173.3,1
3769,56.25,44.16,-255.54,1
3770,56.27,123.35,228.25,1
3771,56.28,94.42,-303.17,1
3772,56.29,289.69,-29.21,1
3773,56.31,4.43,-287.32,1
3774,56.32,-143.89,-353.67,1
3775,56.33,66.68,-193.1,1
3776,56.35,-75.44,-84.99,1
3777,56.36,81.35,-174.34,1
3778,56.37,83.39,169.0,1
3779,56.38,-139.16,30.73,1
3780,56.4,-33.75,166.46,1
3781,56.41,-147.51,285.58,1
3782,56.43,-250.19,183.53,1
3783,56.44,-122.4,-157.05,1
3784,56.45,-509.1,-123.65,1
3785,56.47,31.9,78.61,1
3786,56.48,-251.59,-196.76,1
3787,56.49,104.79,-294.0,1
3788,56.51,-172.64,-105.34,1
3789,56.52,49.14,280.05,1
3790,56.53,-183.13,198.86,1
3791,56.54,-10.18,-162.36,1
3792,56.56,-42.55,91.57,1
3793,56.57,138.45,322.3,1
3794,56.59,15.41,52.76,1
3795,56.6,62.34,-39.0,1
3796,56.61,139.36,-416.22,1
3797,56.63,81.28,-145.02,1
3798,56.64,38.16,82.55,1
3799,56.65,-76.48,163.59,1
3800,56.67,-98.95,-256.21,1
3801,56.68,65.43,-175.9,1
3802,56.69,71.69,45.73,1
3803,56.71,-124.79,185.35,1
3804,56.72,211.67,296.63,1
3805,56.73,131.61,-227.38,1
3806,56.75,92.71,-78.85,1
3807,56.76,-131.0,39.42,1
3808,56.77,-33.89,124.71,1
3809,56.79,119.75,-72.24,1
3810,56.8,260.62,118.46,1
3811,56.81,123.99,433.87,1
3812,56.83,9.29,281.01,1
3813,56.84,149.74,60.16,1
3814,56.85,-4.98,199.76,1
3815,56.87,134.22,-502.11,1
3816,56.88,-63.79,95.82,1
3817,56.89,100.01,-8.97,1
3818,56.9,-69.49,151.43,1
3819,56.92,-71.92,-71.26,1
3820,56.93,55.36,-267.36,1
3821,56.95,41.11,-183.6,1
3822,56.96,127.9,13.88,1
3823,56.97,-35.83,-186.89,1
3824,56.99,-167.71,201.32,1
3825,57.0,71.31,-127.36,1
3826,57.01,136.02,144.84,1
3827,57.03,-167.84,-104.9,1
3828,57.04,-179.19,332.17,1
3829,57.05,121.79,-272.12,1
3830,57.06,35.65,213.53,1
3831,57.08,-158.62,106.54,1
3832,57.09,253.43,152.26,1
3833,57.11,-129.57,-16.76,1
3834,57.12,-55.94,35.94,1
3835,57.13,-177.13,74.16,1
3836,57.15,-137.29,264.98,1
3837,57.16,-144.49,373.29,1
3838,57.17,-147.43,108.17,1
3839,57.19,-122.59,76.28,1
3840,57.2,-100.61,60.83,1
3841,57.21,-72.07,-35.32,1
3842,57.22,-16.99,-70.6,1
3843,57.24,20.62,-243.08,1
3844,57.25,46.38,-216.49,1
3845,57.27,42.7,-337.39,1
3846,57.28,67.08,-328.51,1
3847,57.29,53.09,-287.54,1
3848,57.31,60.05,-216.76,1
3849,57.32,70.77,-128.61,1
3850,57.33,89.98,-62.55,1
3851,57.35,82.77,-41.61,1
3852,57.36,59.39,17.48,1
3853,57.37,38.35,11.98,1
3854,57.38,43.11,61.46,1
3855,57.4,28.68,53.91,1
3856,57.41,37.38,66.79,1
3857,57.43,25.79,65.5,1
3858,57.44,19.65,59.52,1
3859,57.45,19.82,25.18,1
3860,57.47,8.67,26.61,1
3861,57.48,13.18,58.75,1
3862,57.49,2.9,37.3,1
3863,57.51,-12.74,50.84,1
3864,57.52,-14.7,46.27,1
3865,57.53,-16.14,58.12,1
3866,57.54,-15.72,16.12,1
3867,57.56,-27.61,22.6,1
3868,57.57,0.71,-11.13,1
3869,57.59,-5.06,25.49,1
3870,57.6,3.68,53.16,1
3871,57.61,-6.86,11.92,1
3872,57.63,-13.81,11.3,1
3873,57.64,-26.84,-2.14,1
3874,57.65,-27.57,-13.01,1
3875,57.67,-43.76,-2.29,1
3876,57.68,-24.81,-52.58,1
3877,57.69,-22.73,-57.88,1
3878,57.71,-36.3,22.27,1
3879,57.72,-19.3,-35.82,1
3880,57.73,-28.63,8.56,1
3881,57.75,-18.8,-23.0,1
3882,57.76,-7.63,-8.56,1
3883,57.77,-17.92,-19.73,1
3884,57.79,-12.98,-13.87,1
3885,57.8,-11.66,3.96,1
3886,57.81,-14.51,-8.78,1
3887,57.83,-14.51,-42.08,1
3888,57.84,0.8,-11.5,1
3889,57.85,12.77,-25.19,1
3890,57.87,2.11,-1.77,1
3891,57.88,-9.95,-14.24,1
3892,57.89,0.68,-35.32,1
3893,57.9,0.37,-11.15,1
3894,57.92,4.25,-51.42,1
3895,57.93,-0.24,-43.16,1
3896,57.95,-7.39,-18.95,1
3897,57.96,-3.45,-32.97,1
3898,57.97,9.5,-15.59,1
3899,57.99,11.4,6.23,1
3900,58.0,12.66,-3.16,1
3901,58.01,2.66,14.8,1
3902,58.025000000000006,9.13,14.59,1
3903,58.04,21.75,16.71,1
3904,58.05,4.2,11.1,1
3905,58.06,12.89,25.77,1
3906,58.08,-23.75,3.34,1
3907,58.09,-15.67,54.65,1
3908,58.11,10.19,-0.79,1
3909,58.12,20.12,-17.46,1
3910,58.13,24.71,103.96,1
3911,58.15,21.93,168.35,1
3912,58.16,23.12,155.21,1
3913,58.17,32.76,160.75,1
3914,58.19,-12.79,337.57,1
3915,58.2,45.37,204.79,1
3916,58.21,136.37,221.81,1
3917,58.22,-8.21,128.64,1
3918,58.24,69.4,86.8,1
3919,58.25,-10.01,-12.72,1
3920,58.27,98.72,-158.17,1
3921,58.28,204.23,-267.24,1
3922,58.29,28.88,-365.72,1
3923,58.31,-148.68,-162.6,1
3924,58.32,-55.42,-169.27,1
3925,58.33,-152.18,-700.32,1
3926,58.35,-146.17,-458.77,1
3927,58.36,-51.69,-139.29,1
3928,58.37,307.78,303.31,1
3929,58.38,168.82,90.54,1
3930,58.4,-80.97,125.46,1
3931,58.41,-82.1,-85.34,1
3932,58.43,-164.61,-10.13,1
3933,58.44,-175.94,-144.79,1
3934,58.45,-170.39,240.87,1
3935,58.47,1.53,-300.15,1
3936,58.48,181.28,-137.14,1
3937,58.49,-123.98,-6.67,1
3938,58.51,231.06,68.38,1
3939,58.52,-61.51,286.78,1
3940,58.53,-148.94,127.24,1
3941,58.54,-169.53,-415.63,1
3942,58.56,-156.9,-298.13,1
3943,58.57,-62.21,99.33,1
3944,58.59,-14.56,310.83,1
3945,58.6,109.71,-118.41,1
3946,58.61,92.49,71.59,1
3947,58.63,-63.32,-222.59,1
3948,58.64,30.03,507.71,1
3949,58.65,-96.37,534.22,1
3950,58.66,86.34,118.57,1
3951,58.68,7.52,-349.7,1
3952,58.69,5.47,103.29,1
3953,58.71,-148.3,329.56,1
3954,58.72,94.17,403.14,1
3955,58.73,-50.92,139.98,1
3956,58.75,111.64,-208.27,1
3957,58.76,172.07,65.56,1
3958,58.77,180.14,312.5,1
3959,58.79,-23.0,-61.88,1
3960,58.8,61.6,288.41,1
3961,58.81,43.44,125.28,1
3962,58.83,-102.08,-285.32,1
3963,58.84,210.8,-300.09,1
3964,58.85,-140.65,-408.65,1
3965,58.87,-254.06,31.49,1
3966,58.88,133.69,-93.26,1
3967,58.89,-63.11,-276.0,1
3968,58.9,67.49,-121.36,1
3969,58.92,70.2,168.56,1
3970,58.93,41.74,130.28,1
3971,58.95,-66.71,-53.58,1
3972,58.96,28.53,326.05,1
3973,58.97,68.93,194.42,1
3974,58.99,-9.03,153.97,1
3975,59.0,-88.39,-24.06,1
3976,59.01,54.7,-312.08,1
3977,59.03,-149.37,141.76,1
3978,59.04,174.5,6.1,1
3979,59.05,81.88,382.67,1
3980,59.06,303.0,-160.99,1
3981,59.08,280.71,20.34,1
3982,59.09,-178.37,-128.21,1
3983,59.11,199.19,-81.34,1
3984,59.12,-122.72,-106.55,1
3985,59.13,189.84,124.4,1
3986,59.15,-250.87,-271.12,1
3987,59.16,3.63,-99.11,1
3988,59.17,-112.89,-67.58,1
3989,59.19,-121.68,-140.65,1
3990,59.2,-132.2,-10.95,1
3991,59.21,-112.01,225.62,1
3992,59.22,-104.91,234.22,1
3993,59.24,-98.34,109.03,1
3994,59.25,-109.21,41.68,1
3995,59.27,-116.66,97.03,1
3996,59.28,-58.39,-42.55,1
3997,59.29,-7.02,-210.38,1
3998,59.3,20.37,-269.79,1
3999,59.32,41.3,-255.42,1
4000,59.33,59.46,-303.49,1
4001,59.35,64.54,-230.86,1
4002,59.36,46.48,-180.32,1
4003,59.37,57.95,-114.68,1
4004,59.38,74.56,-33.41,1
4005,59.4,66.43,-29.83,1
4006,59.41,58.16,-5.86,1
4007,59.43,49.81,21.76,1
4008,59.44,36.22,80.65,1
4009,59.45,45.32,94.5,1
4010,59.47,29.34,97.9,1
4011,59.48,17.1,99.39,1
4012,59.49,16.66,100.25,1
4013,59.51,2.0,127.0,1
4014,59.52,-4.7,118.93,1
4015,59.53,-11.22,123.57,1
4016,59.54,-10.35,91.33,1
4017,59.56,-18.46,104.97,1
4018,59.57,-14.02,88.31,1
4019,59.59,-20.53,75.02,1
4020,59.6,-14.79,37.92,1
4021,59.61,-7.44,35.46,1
4022,59.63,-20.37,19.76,1
4023,59.64,-28.96,27.01,1
4024,59.65,-0.38,48.97,1
4025,59.67,-15.89,34.37,1
4026,59.68,-16.59,21.84,1
4027,59.69,-40.51,-34.47,1
4028,59.71,-47.58,-12.03,1
4029,59.72,-34.08,-39.42,1
4030,59.73,-46.94,-5.96,1
4031,59.75,-27.71,-36.34,1
4032,59.76,-33.64,-25.0,1
4033,59.77,-8.21,-41.3,1
4034,59.79,-11.79,6.29,1
4035,59.8,-4.14,-41.44,1
4036,59.81,-15.89,-6.9,1
4037,59.83,-9.73,3.62,1
4038,59.84,-17.71,-41.09,1
4039,59.85,2.74,-20.72,1
4040,59.87,-9.63,-35.2,1
4041,59.88,-17.79,-33.36,1
4042,59.89,-19.11,-44.18,1
4043,59.9,-9.16,-25.81,1
4044,59.92,-11.02,-24.85,1
4045,59.93,7.29,-29.53,1
4046,59.94,2.95,15.79,1
4047,59.96,9.93,-53.81,1
4048,59.97,-3.54,-28.04,1
4049,59.98,20.76,20.89,1
4050,60.0,4.52,-27.06,1
