,Timestamp,Data1,Data2,Label
0,6.0,-6.57,3.86,1
1,6.01,-7.51,-2.61,1
2,6.03,-43.59,-8.27,1
3,6.04,3.54,-4.51,1
4,6.05,-14.87,14.46,1
5,6.07,32.98,3.23,1
6,6.08,13.3,0.03,1
7,6.09,-0.71,4.98,1
8,6.11,12.7,-1.44,1
9,6.12,-26.55,-18.72,1
10,6.13,23.29,-10.36,1
11,6.15,29.36,57.19,1
12,6.16,-22.72,97.46,1
13,6.17,-21.01,189.69,1
14,6.19,2.7,177.2,1
15,6.2,-175.9,308.0,1
16,6.21,-75.44,164.38,1
17,6.23,70.75,98.58,1
18,6.24,-122.64,-50.51,1
19,6.25,-50.69,-498.61,1
20,6.27,-180.17,-224.38,1
21,6.28,389.22,-44.02,1
22,6.29,-51.92,-57.53,1
23,6.31,73.79,-49.14,1
24,6.32,253.01,251.8,1
25,6.33,313.42,-29.97,1
26,6.35,-205.17,-68.21,1
27,6.36,-80.83,63.69,1
28,6.37,-61.0,-178.58,1
29,6.39,365.14,-119.24,1
30,6.4,-70.39,-380.85,1
31,6.41,222.87,76.54,1
32,6.43,119.95,-255.51,1
33,6.44,-284.73,-212.66,1
34,6.45,17.39,-363.26,1
35,6.47,179.91,10.8,1
36,6.48,81.73,-122.07,1
37,6.49,-26.82,77.75,1
38,6.51,-206.11,42.82,1
39,6.52,81.28,209.97,1
40,6.53,-22.38,-143.86,1
41,6.55,126.42,-169.22,1
42,6.56,-323.08,135.52,1
43,6.57,151.15,-130.13,1
44,6.59,54.2,-268.64,1
45,6.6,-213.49,194.27,1
46,6.61,-215.93,591.8,1
47,6.63,-258.71,273.94,1
48,6.64,-199.56,90.6,1
49,6.65,-130.73,49.2,1
50,6.67,-206.92,258.93,1
51,6.68,198.71,-346.08,1
52,6.69,96.9,81.83,1
53,6.71,-174.46,-186.61,1
54,6.72,-186.71,-292.67,1
55,6.73,-175.57,37.86,1
56,6.75,-101.36,199.56,1
57,6.76,34.84,430.96,1
58,6.77,-69.77,6.86,1
59,6.79,132.82,-2.68,1
60,6.8,48.53,485.75,1
61,6.81,-11.11,336.28,1
62,6.83,-88.6,-62.23,1
63,6.84,59.76,-136.46,1
64,6.85,77.42,15.86,1
65,6.87,63.36,7.79,1
66,6.88,118.39,39.63,1
67,6.89,111.31,17.88,1
68,6.91,139.63,-124.29,1
69,6.92,108.1,-176.36,1
70,6.93,134.13,-163.7,1
71,6.95,129.97,-154.03,1
72,6.96,164.57,-114.59,1
73,6.97,125.14,-61.67,1
74,6.99,91.52,4.18,1
75,7.0,54.79,-15.03,1
76,7.01,75.32,24.51,1
77,7.03,38.17,99.37,1
78,7.04,10.71,68.6,1
79,7.05,-1.52,55.37,1
80,7.07,0.53,109.0,1
81,7.08,-16.23,121.89,1
82,7.09,9.03,112.12,1
83,7.11,-29.6,98.38,1
84,7.12,-1.45,123.47,1
85,7.13,-20.48,146.91,1
86,7.15,-13.46,116.19,1
87,7.16,-0.71,90.27,1
88,7.17,-22.8,68.99,1
89,7.19,-19.9,53.34,1
90,7.2,-20.18,35.28,1
91,7.21,4.18,24.58,1
92,7.23,-19.8,23.58,1
93,7.24,-33.17,2.69,1
94,7.25,-30.91,-33.62,1
95,7.27,-8.9,-42.44,1
96,7.28,-4.94,-59.26,1
97,7.29,-13.59,-66.93,1
98,7.31,-28.92,-78.9,1
99,7.32,-16.22,-107.45,1
100,7.33,-7.35,-85.62,1
101,7.35,-37.82,-99.19,1
102,7.36,-30.52,-98.83,1
103,7.37,-3.85,-111.94,1
104,7.39,-45.05,-121.16,1
105,7.4,-48.25,-136.11,1
106,7.41,-42.34,-126.79,1
107,7.43,-23.9,-112.42,1
108,7.44,-22.59,-103.21,1
109,7.45,-44.15,-101.48,1
110,7.47,-21.93,-89.81,1
111,7.48,-8.47,-87.29,1
112,7.49,0.72,-81.15,1
113,7.51,-14.16,-88.07,1
114,7.52,-12.22,-56.73,1
115,7.53,-3.41,-54.43,1
116,7.55,-15.8,-27.77,1
117,7.56,-13.74,-23.66,1
118,7.57,16.6,-20.88,1
119,7.59,-6.12,-24.85,1
120,7.6,-5.79,-13.42,1
121,7.61,-11.62,-3.7,1
122,7.63,-5.86,-5.58,1
123,7.64,-10.81,-8.43,1
124,7.65,-2.74,13.2,1
125,7.67,0.81,8.72,1
126,7.68,18.84,13.33,1
127,7.69,8.04,24.38,1
128,7.71,18.21,42.59,1
129,7.72,-2.84,37.59,1
130,7.73,15.99,35.64,1
131,7.75,-3.65,39.2,1
132,7.76,23.72,47.43,1
133,7.77,5.59,53.66,1
134,7.79,11.85,58.98,1
135,7.8,-9.91,44.77,1
136,7.81,-1.99,45.6,1
137,7.83,-4.76,52.9,1
138,7.84,14.2,54.11,1
139,7.85,0.69,46.36,1
140,7.87,-4.36,44.54,1
141,7.88,-14.18,42.43,1
142,7.89,20.58,47.23,1
143,7.91,6.28,31.71,1
144,7.92,0.88,53.75,1
145,7.93,35.47,34.41,1
146,7.95,12.59,30.85,1
147,7.96,13.36,17.12,1
148,7.97,-3.69,18.03,1
149,7.99,19.06,31.4,1
150,8.0,-0.99,2.78,1
151,8.01,-46.6,3.35,1
152,8.03,-41.22,33.9,1
153,8.04,20.97,25.73,1
154,8.05,19.05,10.33,1
155,8.07,10.34,36.11,1
156,8.08,32.93,10.92,1
157,8.09,22.23,20.51,1
158,8.11,5.07,43.38,1
159,8.12,29.16,16.47,1
160,8.13,-3.82,9.75,1
161,8.15,13.41,12.87,1
162,8.16,34.3,66.28,1
163,8.17,-43.06,61.07,1
164,8.19,25.72,59.38,1
165,8.2,-40.02,231.96,1
166,8.21,42.42,313.67,1
167,8.23,172.9,238.92,1
168,8.24,-136.34,48.56,1
169,8.25,-89.35,-153.94,1
170,8.27,119.97,120.61,1
171,8.28,313.89,-24.78,1
172,8.29,122.09,-47.94,1
173,8.31,206.65,-53.25,1
174,8.32,-301.23,-90.88,1
175,8.33,-278.67,-31.95,1
176,8.35,-347.93,-121.28,1
177,8.36,184.23,-149.94,1
178,8.37,-159.26,-297.86,1
179,8.39,163.3,-236.33,1
180,8.4,-103.0,-369.18,1
181,8.41,40.34,6.39,1
182,8.43,-34.53,-387.92,1
183,8.44,-161.88,-549.62,1
184,8.45,-83.58,-47.52,1
185,8.47,2.52,-296.4,1
186,8.48,77.46,-419.22,1
187,8.49,105.06,-28.48,1
188,8.51,-67.72,-219.25,1
189,8.52,311.6,91.83,1
190,8.53,-83.35,-94.28,1
191,8.55,-244.37,80.37,1
192,8.56,111.68,113.75,1
193,8.57,94.36,155.08,1
194,8.59,-179.25,557.1,1
195,8.6,70.48,253.42,1
196,8.61,-238.43,137.23,1
197,8.63,-106.87,208.68,1
198,8.64,-146.27,238.66,1
199,8.65,224.8,40.09,1
200,8.67,105.18,76.28,1
201,8.68,166.33,-410.95,1
202,8.69,248.05,-41.2,1
203,8.71,-189.19,185.7,1
204,8.72,147.77,156.83,1
205,8.73,-205.96,268.32,1
206,8.75,-125.02,-95.14,1
207,8.76,293.77,-357.72,1
208,8.77,-140.47,91.12,1
209,8.79,346.55,-106.39,1
210,8.8,24.39,354.83,1
211,8.81,238.62,247.19,1
212,8.83,-198.45,-191.47,1
213,8.84,-30.54,24.75,1
214,8.85,-137.1,79.04,1
215,8.87,-193.51,131.38,1
216,8.88,-24.84,-7.14,1
217,8.89,-75.67,-25.16,1
218,8.91,-42.7,-53.49,1
219,8.92,-6.24,-59.03,1
220,8.93,-38.61,42.54,1
221,8.95,-50.95,-105.05,1
222,8.96,-45.64,-27.54,1
223,8.97,-20.2,-12.11,1
224,8.99,-22.36,54.55,1
225,9.0,-1.67,44.31,1
226,9.01,-5.94,57.12,1
227,9.03,43.44,75.68,1
228,9.04,55.79,96.04,1
229,9.05,48.8,95.62,1
230,9.07,58.58,126.17,1
231,9.08,42.67,123.85,1
232,9.09,53.82,146.11,1
233,9.11,66.2,173.22,1
234,9.12,71.94,157.66,1
235,9.13,50.26,147.93,1
236,9.15,59.59,120.77,1
237,9.16,49.97,83.64,1
238,9.17,50.46,53.79,1
239,9.19,34.25,55.27,1
240,9.2,11.12,29.47,1
241,9.21,-0.62,18.02,1
242,9.23,27.95,-32.5,1
243,9.24,4.32,-38.5,1
244,9.25,-4.63,-63.5,1
245,9.27,-32.84,-80.31,1
246,9.28,-25.69,-95.6,1
247,9.29,-36.5,-86.91,1
248,9.31,-24.73,-120.27,1
249,9.32,-22.43,-115.78,1
250,9.33,-14.73,-117.64,1
251,9.35,-9.92,-122.79,1
252,9.36,-10.13,-124.73,1
253,9.37,-15.3,-124.0,1
254,9.39,8.46,-123.48,1
255,9.4,-19.07,-110.33,1
256,9.41,-23.51,-106.27,1
257,9.43,-8.67,-124.76,1
258,9.44,-5.13,-88.2,1
259,9.45,-16.17,-88.09,1
260,9.47,-30.63,-83.67,1
261,9.48,-19.23,-98.25,1
262,9.49,-24.4,-77.91,1
263,9.51,-34.18,-85.94,1
264,9.52,-22.19,-61.14,1
265,9.53,-21.75,-80.47,1
266,9.55,-14.35,-61.21,1
267,9.56,-18.77,-29.18,1
268,9.57,-26.04,-41.31,1
269,9.59,-10.26,-20.23,1
270,9.6,-33.16,-9.16,1
271,9.61,-22.06,-1.14,1
272,9.63,-30.58,-13.24,1
273,9.64,19.81,-2.41,1
274,9.65,-5.77,-2.21,1
275,9.67,-10.22,21.57,1
276,9.68,-21.52,20.53,1
277,9.69,12.12,21.51,1
278,9.71,10.16,5.08,1
279,9.72,-16.04,32.33,1
280,9.73,-9.8,36.61,1
281,9.75,24.29,33.34,1
282,9.76,-2.66,32.37,1
283,9.77,0.47,32.26,1
284,9.79,1.95,39.5,1
285,9.8,15.34,48.6,1
286,9.81,4.3,39.58,1
287,9.83,7.4,35.76,1
288,9.84,24.38,48.64,1
289,9.85,22.94,47.59,1
290,9.87,6.99,42.7,1
291,9.88,0.93,45.96,1
292,9.89,11.77,54.75,1
293,9.91,16.82,44.15,1
294,9.92,-0.39,41.29,1
295,9.93,-3.56,44.95,1
296,9.95,25.35,38.79,1
297,9.96,7.48,36.95,1
298,9.97,1.51,22.68,1
299,9.99,-6.09,33.06,1
300,10.0,8.65,32.93,1
301,10.01,-33.55,20.63,1
302,10.03,-26.55,18.8,1
303,10.04,9.67,37.87,1
304,10.05,42.46,17.26,1
305,10.07,35.82,17.98,1
306,10.08,28.15,7.03,1
307,10.09,-17.79,27.63,1
308,10.11,32.14,28.44,1
309,10.12,40.15,68.64,1
310,10.13,-27.88,45.56,1
311,10.15,-71.82,195.7,1
312,10.16,-262.61,429.14,1
313,10.17,73.26,259.11,1
314,10.19,135.65,135.03,1
315,10.2,349.58,18.33,1
316,10.21,265.49,159.11,1
317,10.23,-165.16,34.55,1
318,10.24,196.75,16.93,1
319,10.25,-79.93,-241.35,1
320,10.27,-115.25,-597.18,1
321,10.28,-152.53,-335.68,1
322,10.29,-53.82,-113.19,1
323,10.31,21.54,37.56,1
324,10.32,103.41,-155.02,1
325,10.33,-29.59,-271.76,1
326,10.35,23.77,-240.82,1
327,10.36,118.83,-77.87,1
328,10.37,-198.99,-543.21,1
329,10.39,-195.41,-238.22,1
330,10.4,35.41,-313.65,1
331,10.41,241.71,-87.56,1
332,10.43,100.87,100.16,1
333,10.44,-118.86,123.59,1
334,10.45,-135.06,244.83,1
335,10.47,-107.92,24.76,1
336,10.48,-139.68,-74.61,1
337,10.49,-194.6,109.35,1
338,10.51,-202.07,56.79,1
339,10.52,0.83,-328.94,1
340,10.53,-120.66,-7.5,1
341,10.55,-149.59,-190.9,1
342,10.56,289.68,409.98,1
343,10.57,107.11,95.0,1
344,10.59,115.33,80.12,1
345,10.6,33.12,627.7,1
346,10.61,22.54,386.59,1
347,10.63,-95.5,57.24,1
348,10.64,83.54,-143.8,1
349,10.65,-74.23,185.7,1
350,10.67,-51.54,421.13,1
351,10.68,-76.98,206.25,1
352,10.69,198.12,-83.24,1
353,10.71,111.96,-92.16,1
354,10.72,-178.93,-7.41,1
355,10.73,27.43,-209.05,1
356,10.75,-195.58,170.13,1
357,10.76,-3.62,99.35,1
358,10.77,391.01,94.86,1
359,10.79,-283.66,86.23,1
360,10.8,267.54,207.08,1
361,10.81,42.88,-271.67,1
362,10.83,108.39,-425.57,1
363,10.84,-59.79,-164.42,1
364,10.85,78.16,-101.16,1
365,10.87,96.04,23.84,1
366,10.88,5.34,-96.81,1
367,10.89,127.08,39.99,1
368,10.91,-11.95,-59.28,1
369,10.92,68.79,-74.75,1
370,10.93,26.49,-98.3,1
371,10.95,15.16,-120.05,1
372,10.96,4.91,-138.35,1
373,10.97,-10.1,-65.48,1
374,10.99,10.15,-77.12,1
375,11.0,11.9,-8.99,1
376,11.01,-8.58,12.29,1
377,11.03,3.52,32.26,1
378,11.04,-14.46,35.76,1
379,11.05,11.83,45.4,1
380,11.07,-14.75,61.88,1
381,11.08,-0.06,56.83,1
382,11.09,-29.18,71.14,1
383,11.11,-25.18,94.42,1
384,11.12,-17.9,122.52,1
385,11.13,0.61,151.8,1
386,11.15,-22.57,152.65,1
387,11.16,-27.62,147.23,1
388,11.17,-28.72,128.2,1
389,11.19,-22.56,119.17,1
390,11.2,-37.58,104.24,1
391,11.21,-37.74,78.37,1
392,11.23,-34.7,59.31,1
393,11.24,-23.46,28.32,1
394,11.25,-14.47,39.37,1
395,11.27,-35.2,9.03,1
396,11.28,-20.48,-4.89,1
397,11.29,-23.06,-29.47,1
398,11.31,-39.95,-16.94,1
399,11.32,-15.88,-34.86,1
400,11.33,-0.86,-52.33,1
401,11.35,-28.26,-66.95,1
402,11.36,-31.81,-56.07,1
403,11.37,-46.25,-73.85,1
404,11.39,12.34,-72.4,1
405,11.4,-16.16,-76.95,1
406,11.41,-7.45,-69.16,1
407,11.43,-24.12,-93.86,1
408,11.44,-3.24,-66.52,1
409,11.45,-33.53,-74.03,1
410,11.47,-18.05,-65.89,1
411,11.48,-26.62,-66.65,1
412,11.49,18.37,-81.5,1
413,11.51,-2.18,-79.95,1
414,11.52,17.61,-63.29,1
415,11.53,2.33,-70.86,1
416,11.55,17.81,-57.0,1
417,11.56,5.51,-45.07,1
418,11.57,2.28,-47.54,1
419,11.59,8.47,-47.36,1
420,11.6,27.95,-49.45,1
421,11.61,13.13,-43.88,1
422,11.63,6.39,-13.64,1
423,11.64,3.8,-23.54,1
424,11.65,12.82,-20.03,1
425,11.67,14.16,-24.93,1
426,11.68,8.36,-26.52,1
427,11.69,18.37,-11.9,1
428,11.71,18.25,2.73,1
429,11.72,5.04,9.54,1
430,11.73,-5.85,5.51,1
431,11.75,34.08,5.04,1
432,11.76,14.38,27.71,1
433,11.77,-3.98,39.44,1
434,11.79,2.2,13.56,1
435,11.8,27.12,28.18,1
436,11.81,7.44,22.1,1
437,11.83,4.94,33.84,1
438,11.84,5.34,37.99,1
439,11.85,30.89,37.91,1
440,11.87,-0.93,35.16,1
441,11.88,13.33,38.45,1
442,11.89,-13.16,21.36,1
443,11.91,19.9,36.4,1
444,11.92,1.25,23.24,1
445,11.93,-4.86,24.79,1
446,11.95,5.49,36.92,1
447,11.96,13.07,25.1,1
448,11.97,4.01,43.08,1
449,11.99,2.34,43.81,1
450,12.0,7.19,24.14,1
451,12.01,0.58,5.74,1
452,12.03,-54.13,24.24,1
453,12.04,19.25,17.29,1
454,12.05,-41.0,25.97,1
455,12.07,13.39,10.31,1
456,12.08,18.45,32.59,1
457,12.09,-36.32,10.26,1
458,12.11,47.0,14.06,1
459,12.12,0.45,35.84,1
460,12.13,-10.03,40.34,1
461,12.15,43.83,23.65,1
462,12.16,-25.29,161.57,1
463,12.17,-57.58,357.92,1
464,12.19,107.3,236.38,1
465,12.2,24.4,-81.73,1
466,12.21,84.18,-207.48,1
467,12.23,165.8,182.22,1
468,12.24,80.01,179.82,1
469,12.25,-241.11,-81.08,1
470,12.27,18.38,-72.79,1
471,12.28,-175.17,-32.3,1
472,12.29,-65.86,-429.14,1
473,12.31,-1.42,116.35,1
474,12.32,260.15,86.82,1
475,12.33,-47.77,-229.77,1
476,12.35,-18.81,-358.13,1
477,12.36,5.98,-209.52,1
478,12.37,-199.33,-474.21,1
479,12.39,-75.83,3.97,1
480,12.4,-179.12,106.3,1
481,12.41,-151.82,-164.13,1
482,12.43,-246.21,-260.9,1
483,12.44,-22.95,-116.91,1
484,12.45,44.97,-79.31,1
485,12.47,244.79,80.46,1
486,12.48,252.6,278.72,1
487,12.49,54.37,67.31,1
488,12.51,104.05,-241.79,1
489,12.52,356.12,361.23,1
490,12.53,78.5,63.57,1
491,12.55,92.04,4.83,1
492,12.56,-317.04,-173.49,1
493,12.57,142.33,-84.5,1
494,12.59,-68.98,-82.02,1
495,12.6,-51.15,234.75,1
496,12.61,104.8,415.85,1
497,12.63,-49.62,94.26,1
498,12.64,-37.45,-212.49,1
499,12.65,-102.39,108.12,1
500,12.67,158.05,563.77,1
501,12.68,150.27,308.17,1
502,12.69,26.5,324.96,1
503,12.71,118.44,-79.12,1
504,12.72,-173.24,-458.91,1
505,12.73,-126.29,-12.08,1
506,12.75,86.81,-39.59,1
507,12.76,-115.46,106.02,1
508,12.77,-76.74,202.89,1
509,12.79,-215.18,-316.46,1
510,12.8,-73.46,-124.47,1
511,12.81,145.24,303.89,1
512,12.83,-8.18,-94.37,1
513,12.84,-42.8,-11.46,1
514,12.85,45.12,-31.25,1
515,12.87,-249.99,-210.7,1
516,12.88,-127.58,-242.62,1
517,12.89,-449.46,-337.38,1
518,12.91,-36.57,1.86,1
519,12.92,-115.02,-75.29,1
520,12.93,-216.86,-263.93,1
521,12.95,-99.42,5.05,1
522,12.96,-114.53,-53.02,1
523,12.97,-86.47,-34.71,1
524,12.99,-53.98,-100.59,1
525,13.0,-41.07,9.52,1
526,13.01,7.09,85.71,1
527,13.03,96.46,102.02,1
528,13.04,143.16,103.76,1
529,13.05,164.71,110.3,1
530,13.07,175.08,114.08,1
531,13.08,194.37,124.23,1
532,13.09,198.11,116.12,1
533,13.11,172.12,95.53,1
534,13.12,161.92,119.78,1
535,13.13,180.41,136.8,1
536,13.15,167.2,144.95,1
537,13.16,150.46,143.06,1
538,13.17,118.4,144.8,1
539,13.19,115.5,127.42,1
540,13.2,120.34,121.75,1
541,13.21,109.46,93.68,1
542,13.23,87.73,89.07,1
543,13.24,95.26,34.28,1
544,13.25,50.4,36.88,1
545,13.27,29.4,-10.41,1
546,13.28,44.83,-6.83,1
547,13.29,26.03,-26.25,1
548,13.31,-14.75,-43.49,1
549,13.32,-32.21,-38.11,1
550,13.33,-32.74,-68.17,1
551,13.35,-35.88,-62.76,1
552,13.36,-64.24,-70.64,1
553,13.37,-68.68,-86.06,1
554,13.39,-47.02,-78.66,1
555,13.4,-47.13,-92.54,1
556,13.41,-20.21,-89.15,1
557,13.43,-42.69,-83.84,1
558,13.44,-63.89,-80.48,1
559,13.45,-40.32,-89.99,1
560,13.47,-61.97,-71.27,1
561,13.48,-60.97,-77.16,1
562,13.49,-46.21,-81.37,1
563,13.51,-40.62,-82.27,1
564,13.52,-52.35,-61.7,1
565,13.53,-62.75,-73.28,1
566,13.55,-25.49,-63.53,1
567,13.56,-58.67,-62.59,1
568,13.57,-62.01,-66.2,1
569,13.59,-64.18,-39.54,1
570,13.6,-48.95,-46.29,1
571,13.61,-45.43,-26.08,1
572,13.63,-58.19,-36.03,1
573,13.64,-49.98,-21.5,1
574,13.65,-34.48,-13.22,1
575,13.67,-54.98,-14.35,1
576,13.68,-48.01,-7.95,1
577,13.69,-35.23,-17.65,1
578,13.71,-17.76,10.53,1
579,13.72,-21.18,5.64,1
580,13.73,-30.24,19.75,1
581,13.75,-9.89,14.57,1
582,13.76,10.94,25.09,1
583,13.77,0.72,16.22,1
584,13.79,-26.24,28.44,1
585,13.8,-6.66,23.1,1
586,13.81,15.21,7.14,1
587,13.83,-2.28,12.93,1
588,13.84,-1.07,24.63,1
589,13.85,-4.4,28.97,1
590,13.87,25.62,33.42,1
591,13.88,8.36,26.1,1
592,13.89,9.52,32.09,1
593,13.91,23.42,50.98,1
594,13.92,23.06,41.86,1
595,13.93,11.19,28.61,1
596,13.95,20.92,39.28,1
597,13.96,39.32,27.42,1
598,13.97,23.2,36.94,1
599,13.99,14.9,33.2,1
600,14.0,7.87,27.13,1
601,14.01,30.34,14.42,1
602,14.03,-25.72,34.64,1
603,14.04,-5.9,32.24,1
604,14.05,-7.67,22.0,1
605,14.07,81.49,15.67,1
606,14.08,6.63,9.73,1
607,14.09,33.28,25.31,1
608,14.11,52.87,31.58,1
609,14.12,16.53,25.24,1
610,14.13,41.29,42.3,1
611,14.15,38.87,57.69,1
612,14.16,8.14,76.2,1
613,14.17,22.28,96.54,1
614,14.19,-107.42,279.97,1
615,14.2,-152.4,77.9,1
616,14.21,-69.72,153.37,1
617,14.23,110.27,278.85,1
618,14.24,281.41,154.94,1
619,14.25,-128.15,116.54,1
620,14.27,79.15,-14.07,1
621,14.28,126.09,-94.21,1
622,14.29,160.12,-16.37,1
623,14.31,52.67,-299.95,1
624,14.32,109.33,-368.84,1
625,14.33,-25.02,-186.1,1
626,14.35,-130.06,-439.43,1
627,14.36,265.68,-153.27,1
628,14.37,186.78,75.25,1
629,14.39,-82.91,-320.26,1
630,14.4,-68.82,-566.5,1
631,14.41,-277.51,-212.5,1
632,14.43,-62.11,196.65,1
633,14.44,25.6,-206.55,1
634,14.45,-70.85,-501.7,1
635,14.47,50.73,-182.32,1
636,14.48,-118.67,-178.69,1
637,14.49,282.43,570.25,1
638,14.51,122.97,180.85,1
639,14.52,-52.36,283.02,1
640,14.53,-11.5,231.89,1
641,14.55,-368.11,-167.01,1
642,14.56,-19.81,-60.78,1
643,14.57,-124.69,140.02,1
644,14.59,-21.55,63.97,1
645,14.6,-58.81,-60.32,1
646,14.61,75.4,-92.79,1
647,14.63,-188.95,142.06,1
648,14.64,-190.63,-211.38,1
649,14.65,-259.14,-20.71,1
650,14.67,-47.47,-33.82,1
651,14.68,-118.74,429.12,1
652,14.69,-148.15,391.16,1
653,14.71,11.51,367.91,1
654,14.72,22.34,95.75,1
655,14.73,151.01,572.63,1
656,14.75,49.93,262.84,1
657,14.76,243.93,60.3,1
658,14.77,-261.99,-257.75,1
659,14.79,182.1,-183.97,1
660,14.8,-87.37,-57.77,1
661,14.81,361.15,231.27,1
662,14.83,-282.97,-44.43,1
663,14.84,137.49,-114.8,1
664,14.85,75.27,-276.21,1
665,14.87,99.28,-152.28,1
666,14.88,-0.25,-26.44,1
667,14.89,17.0,-133.89,1
668,14.91,-7.52,-75.22,1
669,14.92,53.04,-168.74,1
670,14.93,27.27,-238.9,1
671,14.95,-1.44,-193.65,1
672,14.96,-29.27,-95.93,1
673,14.97,-39.88,-17.77,1
674,14.99,-78.46,87.32,1
675,15.0,-43.22,78.01,1
676,15.01,-14.09,61.78,1
677,15.03,37.97,64.0,1
678,15.04,97.91,89.2,1
679,15.05,100.41,99.14,1
680,15.07,98.34,96.93,1
681,15.08,94.83,85.48,1
682,15.09,107.58,124.7,1
683,15.11,82.28,156.41,1
684,15.12,71.86,140.29,1
685,15.13,60.71,123.63,1
686,15.15,65.04,116.97,1
687,15.16,34.21,118.87,1
688,15.17,34.9,64.31,1
689,15.19,31.74,68.51,1
690,15.2,37.76,51.32,1
691,15.21,-0.72,17.02,1
692,15.23,0.81,-1.69,1
693,15.24,18.5,-18.82,1
694,15.25,30.28,-50.36,1
695,15.27,-18.22,-57.22,1
696,15.28,-37.9,-59.57,1
697,15.29,-40.4,-31.52,1
698,15.31,-44.81,-46.95,1
699,15.32,-45.32,-67.59,1
700,15.33,-48.37,-50.46,1
701,15.35,-70.29,-52.25,1
702,15.36,-38.7,-86.31,1
703,15.37,-36.96,-80.4,1
704,15.39,-55.14,-68.04,1
705,15.4,-33.61,-61.1,1
706,15.41,-48.65,-61.39,1
707,15.43,-66.86,-82.04,1
708,15.44,-42.3,-72.96,1
709,15.45,-38.44,-55.78,1
710,15.47,-48.87,-78.91,1
711,15.48,-45.54,-63.8,1
712,15.49,-53.65,-47.27,1
713,15.51,-21.99,-68.69,1
714,15.52,-26.33,-77.92,1
715,15.53,-20.79,-38.7,1
716,15.55,-44.4,-42.45,1
717,15.56,-9.94,-42.5,1
718,15.57,-7.84,-45.64,1
719,15.59,-9.86,-20.93,1
720,15.6,-6.15,-20.23,1
721,15.61,-0.77,-12.99,1
722,15.63,-9.11,-33.04,1
723,15.64,-13.73,-1.28,1
724,15.65,3.4,-13.33,1
725,15.67,22.75,-12.76,1
726,15.68,6.32,6.38,1
727,15.69,-1.85,12.3,1
728,15.71,6.94,29.09,1
729,15.72,23.4,19.86,1
730,15.73,24.59,19.9,1
731,15.75,-0.06,14.89,1
732,15.76,-12.41,13.26,1
733,15.77,7.19,9.03,1
734,15.79,7.83,25.98,1
735,15.8,11.76,30.26,1
736,15.81,23.39,34.64,1
737,15.83,30.02,32.44,1
738,15.84,31.47,34.83,1
739,15.85,12.29,35.78,1
740,15.87,31.11,25.72,1
741,15.88,15.02,28.3,1
742,15.89,15.22,18.55,1
743,15.91,5.26,40.33,1
744,15.92,18.87,31.06,1
745,15.93,17.26,21.9,1
746,15.95,-5.25,39.64,1
747,15.96,-0.65,43.06,1
748,15.97,14.24,41.38,1
749,15.99,17.96,11.0,1
750,16.0,6.44,5.18,1
751,16.01,-14.45,35.55,1
752,16.03,-6.42,13.44,1
753,16.04,-36.06,21.58,1
754,16.05,-8.47,24.18,1
755,16.07,32.08,-7.6,1
756,16.08,5.32,-7.35,1
757,16.09,20.64,33.19,1
758,16.11,6.98,19.12,1
759,16.12,1.83,33.12,1
760,16.13,44.36,36.17,1
761,16.15,14.6,32.81,1
762,16.16,-0.7,42.66,1
763,16.17,53.82,261.11,1
764,16.19,25.67,371.12,1
765,16.2,-28.02,209.59,1
766,16.21,-151.26,97.0,1
767,16.23,-83.95,209.61,1
768,16.24,-301.14,2.5,1
769,16.25,-55.14,-112.89,1
770,16.27,-161.04,-60.45,1
771,16.28,205.87,-180.62,1
772,16.29,128.02,-255.39,1
773,16.31,-141.19,65.61,1
774,16.32,8.57,-186.79,1
775,16.33,133.45,-588.63,1
776,16.35,-15.41,-538.31,1
777,16.36,157.47,-331.35,1
778,16.37,29.91,-555.71,1
779,16.39,266.58,10.93,1
780,16.4,-13.3,259.12,1
781,16.41,228.65,-37.76,1
782,16.42,96.46,256.29,1
783,16.44,176.04,199.4,1
784,16.45,71.07,117.75,1
785,16.47,121.73,46.49,1
786,16.48,-44.84,-261.84,1
787,16.49,28.12,244.77,1
788,16.51,-53.52,-346.85,1
789,16.52,77.02,23.92,1
790,16.53,-39.21,23.65,1
791,16.55,13.0,-410.5,1
792,16.56,34.45,-337.15,1
793,16.57,-7.77,-56.18,1
794,16.59,-209.41,20.59,1
795,16.6,-235.92,56.99,1
796,16.61,49.63,141.57,1
797,16.63,-55.91,422.14,1
798,16.64,-93.87,288.63,1
799,16.65,-122.29,-197.95,1
800,16.67,132.2,210.59,1
801,16.68,-133.74,154.3,1
802,16.69,173.1,-143.39,1
803,16.71,-443.3,230.86,1
804,16.72,114.57,370.15,1
805,16.73,-265.14,67.24,1
806,16.75,-383.79,345.45,1
807,16.76,-12.04,372.99,1
808,16.77,-59.06,200.12,1
809,16.79,-247.19,274.72,1
810,16.8,-79.39,176.0,1
811,16.81,-87.35,43.1,1
812,16.83,-45.07,-417.94,1
813,16.84,146.46,-2.52,1
814,16.85,-44.3,33.35,1
815,16.87,65.8,301.76,1
816,16.88,107.72,-36.58,1
817,16.89,92.91,89.35,1
818,16.91,46.0,-491.21,1
819,16.92,210.76,-109.19,1
820,16.93,211.3,-97.96,1
821,16.95,203.26,-168.83,1
822,16.96,191.46,-223.78,1
823,16.97,115.63,-222.81,1
824,16.99,100.13,-222.33,1
825,17.0,54.87,-238.76,1
826,17.01,28.17,-178.96,1
827,17.03,-16.32,-132.67,1
828,17.04,-42.13,-40.45,1
829,17.05,-51.14,-20.74,1
830,17.06,-56.64,9.7,1
831,17.08,-37.98,43.46,1
832,17.09,-48.05,64.29,1
833,17.11,-38.39,54.76,1
834,17.12,-32.89,71.3,1
835,17.13,-37.76,85.98,1
836,17.15,-27.98,123.47,1
837,17.16,-3.82,154.79,1
838,17.17,-6.98,138.24,1
839,17.19,-11.67,130.04,1
840,17.2,0.99,123.89,1
841,17.21,9.55,118.09,1
842,17.23,12.66,118.95,1
843,17.24,-1.39,68.39,1
844,17.25,11.81,54.67,1
845,17.27,23.53,17.23,1
846,17.28,1.29,17.36,1
847,17.29,31.98,17.94,1
848,17.31,8.18,-6.78,1
849,17.32,6.89,-16.09,1
850,17.33,9.72,-16.4,1
851,17.35,2.55,-15.66,1
852,17.36,20.58,-39.03,1
853,17.37,5.26,-27.6,1
854,17.39,-5.52,-37.3,1
855,17.4,-4.94,-55.85,1
856,17.41,8.68,-65.01,1
857,17.43,28.38,-56.84,1
858,17.44,12.61,-58.09,1
859,17.45,-15.12,-70.53,1
860,17.47,4.49,-43.4,1
861,17.48,12.67,-60.77,1
862,17.49,-8.74,-52.56,1
863,17.51,-32.96,-70.47,1
864,17.52,2.51,-49.6,1
865,17.53,-15.8,-51.29,1
866,17.55,0.51,-59.49,1
867,17.56,-17.52,-60.0,1
868,17.57,-0.85,-34.72,1
869,17.59,-21.21,-37.31,1
870,17.6,-18.44,-31.79,1
871,17.61,-2.05,-36.32,1
872,17.63,9.11,-24.79,1
873,17.64,-30.83,-19.49,1
874,17.65,-3.41,-22.43,1
875,17.67,3.88,-15.11,1
876,17.68,6.59,-9.73,1
877,17.69,-1.44,-5.63,1
878,17.7,-21.63,-0.1,1
879,17.72,-6.09,-6.45,1
880,17.73,-22.13,-5.28,1
881,17.75,9.05,12.26,1
882,17.76,-18.07,7.57,1
883,17.77,20.32,17.72,1
884,17.79,-10.86,15.18,1
885,17.8,-9.99,3.99,1
886,17.81,-8.4,9.8,1
887,17.83,6.58,16.04,1
888,17.84,-3.28,20.08,1
889,17.85,-27.39,34.9,1
890,17.87,-22.52,3.44,1
891,17.88,10.5,18.81,1
892,17.89,3.49,45.6,1
893,17.91,18.47,17.54,1
894,17.92,2.85,26.25,1
895,17.93,19.18,21.16,1
896,17.95,-2.46,23.33,1
897,17.96,9.57,32.25,1
898,17.97,-21.94,33.35,1
899,17.99,17.6,20.2,1
900,18.0,-0.73,21.43,1
901,18.01,2.63,28.51,1
902,18.03,-7.98,23.2,1
903,18.04,-18.19,34.36,1
904,18.05,-8.11,8.3,1
905,18.07,-2.92,47.79,1
906,18.08,23.49,17.74,1
907,18.09,6.7,26.59,1
908,18.11,9.09,34.04,1
909,18.12,-10.09,-14.48,1
910,18.13,55.62,180.87,1
911,18.15,-6.27,184.58,1
912,18.16,-23.99,178.59,1
913,18.17,-2.27,13.34,1
914,18.19,-60.39,94.67,1
915,18.2,95.99,296.58,1
916,18.21,71.52,153.59,1
917,18.23,31.63,136.1,1
918,18.24,85.93,21.8,1
919,18.25,305.45,-71.34,1
920,18.27,-139.8,-160.07,1
921,18.28,-262.45,-500.1,1
922,18.29,236.74,-510.38,1
923,18.31,-273.66,156.05,1
924,18.32,101.69,-192.1,1
925,18.33,-376.61,-429.8,1
926,18.34,25.3,-219.36,1
927,18.36,24.26,-377.68,1
928,18.37,137.13,-164.04,1
929,18.39,15.93,-339.26,1
930,18.4,51.65,-5.37,1
931,18.41,-58.78,377.99,1
932,18.43,-50.03,-54.65,1
933,18.44,295.86,-316.81,1
934,18.45,117.43,201.28,1
935,18.47,165.55,-15.06,1
936,18.48,93.22,250.65,1
937,18.49,-74.61,36.39,1
938,18.51,-207.33,178.5,1
939,18.52,95.95,-246.26,1
940,18.53,-249.82,373.98,1
941,18.55,210.24,-148.74,1
942,18.56,-221.82,262.57,1
943,18.57,147.44,-318.67,1
944,18.59,-108.63,120.88,1
945,18.6,-55.48,206.89,1
946,18.61,-362.58,606.04,1
947,18.63,-49.61,276.26,1
948,18.64,-322.43,-46.08,1
949,18.65,-59.99,22.88,1
950,18.67,-209.72,232.16,1
951,18.68,53.19,30.85,1
952,18.69,19.96,227.07,1
953,18.71,126.92,32.23,1
954,18.72,16.32,-465.16,1
955,18.73,76.37,126.53,1
956,18.75,-266.58,117.78,1
957,18.76,-241.61,-299.63,1
958,18.77,-52.93,-222.75,1
959,18.79,4.42,73.69,1
960,18.8,164.11,133.55,1
961,18.81,411.57,-280.24,1
962,18.83,263.58,254.7,1
963,18.84,401.57,-324.42,1
964,18.85,-133.27,244.98,1
965,18.87,20.54,315.39,1
966,18.88,34.58,155.15,1
967,18.89,-24.39,-75.7,1
968,18.91,-0.77,-310.22,1
969,18.92,94.33,-78.72,1
970,18.93,57.29,3.83,1
971,18.95,181.83,-162.98,1
972,18.96,-11.31,-96.68,1
973,18.97,-5.01,-135.38,1
974,18.98,-9.46,-128.91,1
975,19.0,-5.19,-140.65,1
976,19.01,18.38,-90.1,1
977,19.025,7.54,-59.2,1
978,19.04,27.79,13.57,1
979,19.05,11.79,15.94,1
980,19.07,24.41,42.46,1
981,19.08,19.05,-15.54,1
982,19.09,-15.86,50.8,1
983,19.11,-21.92,45.67,1
984,19.12,19.41,52.52,1
985,19.13,-20.49,59.45,1
986,19.15,-6.44,96.36,1
987,19.16,-12.8,91.12,1
988,19.17,-30.09,118.64,1
989,19.19,-26.16,121.01,1
990,19.2,-28.97,118.54,1
991,19.21,-7.61,146.21,1
992,19.23,-30.73,100.09,1
993,19.24,-15.91,104.29,1
994,19.25,-4.45,78.15,1
995,19.27,3.89,55.55,1
996,19.28,-25.73,49.48,1
997,19.29,-31.3,33.53,1
998,19.31,-27.19,12.47,1
999,19.32,-7.57,4.93,1
1000,19.33,-17.33,0.02,1
1001,19.35,-38.71,-15.14,1
1002,19.36,-28.27,-36.18,1
1003,19.37,-0.53,-54.98,1
1004,19.39,-18.05,-42.52,1
1005,19.4,-12.9,-50.89,1
1006,19.41,-15.7,-62.73,1
1007,19.43,3.07,-64.74,1
1008,19.44,-19.75,-62.42,1
1009,19.45,-31.3,-73.26,1
1010,19.47,-17.31,-75.42,1
1011,19.48,-6.78,-61.39,1
1012,19.49,-19.1,-62.84,1
1013,19.51,-2.16,-55.42,1
1014,19.52,-16.37,-56.32,1
1015,19.53,-1.66,-83.07,1
1016,19.55,-9.79,-50.65,1
1017,19.56,-8.66,-57.76,1
1018,19.57,-1.44,-47.95,1
1019,19.59,-0.48,-39.97,1
1020,19.6,-9.12,-57.63,1
1021,19.61,-9.74,-41.77,1
1022,19.62,-8.46,-33.01,1
1023,19.64,-6.35,-39.12,1
1024,19.65,-5.75,-34.85,1
1025,19.67,-15.62,-26.51,1
1026,19.68,2.95,8.15,1
1027,19.69,19.82,-11.32,1
1028,19.71,0.08,-2.24,1
1029,19.72,17.36,4.31,1
1030,19.73,10.12,17.94,1
1031,19.75,-0.29,-3.21,1
1032,19.76,10.49,-5.5,1
1033,19.77,3.21,6.13,1
1034,19.79,31.78,7.65,1
1035,19.8,12.8,3.57,1
1036,19.81,-4.18,8.85,1
1037,19.83,-17.32,24.08,1
1038,19.84,7.68,28.24,1
1039,19.85,8.8,-2.46,1
1040,19.87,17.98,27.94,1
1041,19.88,3.54,27.01,1
1042,19.89,19.32,15.63,1
1043,19.91,18.4,27.74,1
1044,19.92,14.65,7.13,1
1045,19.93,26.6,46.08,1
1046,19.95,3.63,34.78,1
1047,19.96,-7.5,16.42,1
1048,19.97,-16.17,24.33,1
1049,19.99,6.54,21.58,1
1050,20.0,25.39,2.34,1
1051,20.01,-5.61,21.61,1
1052,20.03,-23.13,14.42,1
1053,20.04,-41.56,20.81,1
1054,20.05,6.63,50.29,1
1055,20.07,3.74,61.37,1
1056,20.08,-7.29,143.39,1
1057,20.09,0.44,141.34,1
1058,20.11,44.01,40.62,1
1059,20.12,211.66,60.84,1
1060,20.13,67.85,202.16,1
1061,20.15,87.31,249.37,1
1062,20.16,152.4,105.17,1
1063,20.17,-221.21,191.44,1
1064,20.19,-137.49,122.69,1
1065,20.2,69.1,-34.24,1
1066,20.21,156.76,-162.96,1
1067,20.23,-259.06,17.48,1
1068,20.24,15.43,-306.26,1
1069,20.25,-1.01,-228.21,1
1070,20.26,-28.15,-70.08,1
1071,20.28,20.76,-280.34,1
1072,20.29,217.6,-350.35,1
1073,20.3,85.36,89.55,1
1074,20.32,-298.89,-249.88,1
1075,20.33,-203.17,-507.1,1
1076,20.35,-30.11,-135.64,1
1077,20.36,-184.7,-436.92,1
1078,20.37,62.56,-186.49,1
1079,20.39,-101.17,-35.21,1
1080,20.4,67.2,-175.84,1
1081,20.41,-119.58,311.19,1
1082,20.43,-163.45,394.58,1
1083,20.44,-134.91,293.36,1
1084,20.45,-72.06,158.7,1
1085,20.47,36.17,286.73,1
1086,20.48,-105.97,-201.29,1
1087,20.49,138.57,-198.81,1
1088,20.51,-77.33,232.11,1
1089,20.52,125.38,76.31,1
1090,20.53,168.62,-517.17,1
1091,20.55,198.7,-162.56,1
1092,20.56,40.93,167.95,1
1093,20.57,167.86,263.49,1
1094,20.59,-87.24,-101.72,1
1095,20.6,129.1,79.11,1
1096,20.61,-53.63,280.05,1
1097,20.63,-10.14,284.34,1
1098,20.64,-127.32,202.82,1
1099,20.65,71.91,1.41,1
1100,20.67,275.34,11.47,1
1101,20.68,84.32,112.41,1
1102,20.69,-118.64,78.0,1
1103,20.71,-169.44,-170.98,1
1104,20.72,-124.38,190.48,1
1105,20.73,-222.01,179.44,1
1106,20.75,9.35,19.76,1
1107,20.76,35.85,184.11,1
1108,20.77,159.62,-128.44,1
1109,20.79,-57.14,-149.11,1
1110,20.8,164.16,54.39,1
1111,20.81,48.38,88.17,1
1112,20.83,301.45,-183.11,1
1113,20.84,-75.46,51.42,1
1114,20.85,63.37,-62.36,1
1115,20.87,135.43,-50.66,1
1116,20.88,-11.05,16.28,1
1117,20.89,-53.81,-109.14,1
1118,20.9,128.1,-51.94,1
1119,20.92,51.11,-70.88,1
1120,20.93,46.41,-62.93,1
1121,20.94,45.43,-37.88,1
1122,20.96,-9.02,-82.61,1
1123,20.97,29.65,21.74,1
1124,20.99,9.16,-17.08,1
1125,21.0,13.39,38.36,1
1126,21.01,0.68,24.78,1
1127,21.03,-9.42,45.75,1
1128,21.04,-1.07,34.19,1
1129,21.05,-18.2,59.63,1
1130,21.07,10.57,54.65,1
1131,21.08,-28.04,94.8,1
1132,21.09,-41.96,101.63,1
1133,21.11,-39.01,108.24,1
1134,21.12,-62.0,89.19,1
1135,21.13,-60.33,101.27,1
1136,21.15,-60.31,68.99,1
1137,21.16,-58.94,76.27,1
1138,21.17,-49.7,45.44,1
1139,21.19,-51.77,16.48,1
1140,21.2,-64.31,-1.19,1
1141,21.21,-46.86,-3.02,1
1142,21.23,-47.2,-33.45,1
1143,21.24,-48.85,-53.63,1
1144,21.25,-63.31,-67.41,1
1145,21.27,-63.41,-68.07,1
1146,21.28,0.4,-80.48,1
1147,21.29,-14.31,-86.48,1
1148,21.31,-24.6,-74.09,1
1149,21.32,-29.38,-86.34,1
1150,21.33,-29.5,-90.5,1
1151,21.35,-30.56,-66.61,1
1152,21.36,-38.84,-63.18,1
1153,21.37,-41.83,-69.2,1
1154,21.39,-13.48,-54.84,1
1155,21.4,-31.4,-67.05,1
1156,21.41,-16.49,-64.38,1
1157,21.43,-4.22,-57.51,1
1158,21.44,-0.12,-52.36,1
1159,21.45,-17.84,-43.49,1
1160,21.47,-16.0,-44.7,1
1161,21.48,20.31,-30.15,1
1162,21.49,12.49,-45.55,1
1163,21.51,-0.52,-31.12,1
1164,21.52,-2.81,-16.66,1
1165,21.53,20.09,-24.56,1
1166,21.54,24.69,-20.38,1
1167,21.56,15.8,-19.03,1
1168,21.57,31.3,-12.71,1
1169,21.58,18.74,-11.03,1
1170,21.6,27.96,-4.33,1
1171,21.61,30.68,-12.92,1
1172,21.625,14.18,13.75,1
1173,21.64,41.37,0.37,1
1174,21.65,27.3,12.29,1
1175,21.67,14.81,13.65,1
1176,21.68,13.75,-6.12,1
1177,21.69,34.63,18.69,1
1178,21.71,25.87,27.64,1
1179,21.72,23.54,21.81,1
1180,21.73,9.74,32.11,1
1181,21.75,18.7,23.41,1
1182,21.76,27.88,28.46,1
1183,21.77,26.89,12.12,1
1184,21.79,29.77,41.23,1
1185,21.8,17.75,17.37,1
1186,21.81,2.8,20.92,1
1187,21.83,7.39,3.83,1
1188,21.84,20.26,27.91,1
1189,21.85,7.17,43.54,1
1190,21.87,12.13,38.88,1
1191,21.88,-7.74,37.5,1
1192,21.89,28.46,29.03,1
1193,21.91,3.12,46.3,1
1194,21.92,-0.03,10.32,1
1195,21.93,0.34,35.92,1
1196,21.95,13.88,21.11,1
1197,21.96,8.69,34.52,1
1198,21.97,-0.56,23.05,1
1199,21.99,-9.74,31.98,1
1200,22.0,12.59,10.35,1
1201,22.01,-1.68,15.44,1
1202,22.03,-4.11,3.64,1
1203,22.04,-57.4,25.3,1
1204,22.05,22.7,12.47,1
1205,22.07,-33.64,16.96,1
1206,22.08,5.21,-18.23,1
1207,22.09,10.03,11.71,1
1208,22.11,8.72,23.5,1
1209,22.12,2.07,7.38,1
1210,22.13,9.08,9.4,1
1211,22.15,-43.63,44.54,1
1212,22.16,24.86,74.73,1
1213,22.17,30.83,69.41,1
1214,22.18,-26.83,119.1,1
1215,22.2,-82.85,184.37,1
1216,22.21,13.64,215.85,1
1217,22.22,-142.03,184.03,1
1218,22.24,105.23,13.55,1
1219,22.25,341.43,65.42,1
1220,22.26,138.61,-260.86,1
1221,22.28,-68.83,105.08,1
1222,22.29,181.5,-188.79,1
1223,22.31,-1.1,-278.35,1
1224,22.32,93.41,-141.72,1
1225,22.33,81.22,-44.0,1
1226,22.35,-114.51,-279.18,1
1227,22.36,-185.95,-197.96,1
1228,22.37,-101.95,-204.13,1
1229,22.39,-26.84,-324.64,1
1230,22.4,-193.93,-267.15,1
1231,22.41,-354.56,-112.48,1
1232,22.43,-251.76,-296.13,1
1233,22.44,-397.23,-157.44,1
1234,22.45,9.31,-33.04,1
1235,22.47,54.48,-27.31,1
1236,22.48,139.02,597.14,1
1237,22.49,-152.97,134.54,1
1238,22.51,65.52,165.55,1
1239,22.52,119.43,-76.31,1
1240,22.53,-16.11,-39.49,1
1241,22.55,37.1,486.94,1
1242,22.56,-166.19,160.81,1
1243,22.57,-58.84,-70.35,1
1244,22.59,78.04,69.24,1
1245,22.6,51.12,-331.79,1
1246,22.61,306.57,-189.01,1
1247,22.63,88.18,-37.37,1
1248,22.64,257.48,-189.63,1
1249,22.65,114.91,-27.31,1
1250,22.67,163.35,121.1,1
1251,22.68,358.81,209.78,1
1252,22.69,119.16,343.97,1
1253,22.71,-218.82,90.17,1
1254,22.72,162.81,-134.14,1
1255,22.73,-265.12,367.99,1
1256,22.75,45.45,-67.56,1
1257,22.76,-90.32,66.1,1
1258,22.77,126.55,-153.31,1
1259,22.79,0.24,7.12,1
1260,22.8,-225.6,354.11,1
1261,22.81,-52.81,165.24,1
1262,22.82,62.16,406.66,1
1263,22.84,275.32,80.47,1
1264,22.85,-18.39,-199.36,1
1265,22.86,70.16,309.41,1
1266,22.88,-139.89,-166.84,1
1267,22.89,30.78,-148.78,1
1268,22.9,-183.69,-4.08,1
1269,22.92,151.19,4.85,1
1270,22.93,-130.32,-33.35,1
1271,22.95,-283.7,28.01,1
1272,22.96,-80.87,177.28,1
1273,22.97,45.6,-82.88,1
1274,22.99,-339.76,96.87,1
1275,23.0,53.8,-244.7,1
1276,23.01,-128.88,-109.19,1
1277,23.03,-92.69,-128.91,1
1278,23.04,-74.03,-208.48,1
1279,23.05,-26.05,-227.25,1
1280,23.07,-61.74,-167.41,1
1281,23.08,-23.67,-195.83,1
1282,23.09,-23.18,-150.65,1
1283,23.11,2.87,-73.22,1
1284,23.12,19.44,-49.18,1
1285,23.13,93.37,29.61,1
1286,23.15,68.21,-17.3,1
1287,23.16,58.52,2.09,1
1288,23.17,59.96,9.73,1
1289,23.19,93.85,13.15,1
1290,23.2,70.62,21.48,1
1291,23.21,93.43,37.87,1
1292,23.23,75.05,99.45,1
1293,23.24,95.31,96.95,1
1294,23.25,88.55,89.3,1
1295,23.27,79.15,105.84,1
1296,23.28,75.69,105.26,1
1297,23.29,55.26,90.4,1
1298,23.31,39.73,90.35,1
1299,23.32,38.18,84.21,1
1300,23.33,46.24,77.06,1
1301,23.35,46.0,41.31,1
1302,23.36,22.66,37.23,1
1303,23.37,11.67,11.31,1
1304,23.39,27.74,13.08,1
1305,23.4,5.42,-4.24,1
1306,23.41,-3.07,-22.12,1
1307,23.43,-42.76,-24.66,1
1308,23.44,-11.92,-12.78,1
1309,23.45,-29.47,-6.55,1
1310,23.46,-26.0,0.79,1
1311,23.48,-38.44,-36.46,1
1312,23.49,-22.14,-44.6,1
1313,23.5,-39.06,-31.72,1
1314,23.52,-31.3,-34.12,1
1315,23.53,-31.46,-29.26,1
1316,23.54,-23.05,-34.12,1
1317,23.56,-38.79,-20.39,1
1318,23.57,-57.8,-38.45,1
1319,23.59,-23.23,-61.76,1
1320,23.6,-25.08,-47.24,1
1321,23.61,-21.0,-45.79,1
1322,23.63,-40.77,-34.95,1
1323,23.64,-39.28,-26.68,1
1324,23.65,-3.43,-34.69,1
1325,23.67,-38.71,-21.34,1
1326,23.68,-30.01,-27.76,1
1327,23.69,-29.26,-29.59,1
1328,23.71,-22.49,-27.27,1
1329,23.72,-37.9,-36.12,1
1330,23.73,-9.3,-27.72,1
1331,23.75,8.22,-20.12,1
1332,23.76,-14.05,1.22,1
1333,23.77,-16.41,-4.04,1
1334,23.79,-20.49,-14.82,1
1335,23.8,7.55,-2.23,1
1336,23.81,5.46,5.42,1
1337,23.83,-24.6,6.71,1
1338,23.84,-15.09,5.39,1
1339,23.85,13.57,6.35,1
1340,23.87,19.62,11.77,1
1341,23.88,-10.25,10.98,1
1342,23.89,-1.9,15.67,1
1343,23.91,29.08,9.7,1
1344,23.92,8.96,25.46,1
1345,23.93,16.92,3.66,1
1346,23.95,-0.73,4.81,1
1347,23.96,28.11,21.34,1
1348,23.97,-7.37,28.53,1
1349,23.99,-6.52,7.09,1
1350,24.0,8.18,5.47,1
1351,24.01,19.18,15.24,1
1352,24.03,12.26,21.83,1
1353,24.04,-37.1,23.25,1
1354,24.05,35.77,6.08,1
1355,24.07,-16.21,11.4,1
1356,24.08,11.34,33.42,1
1357,24.09,23.85,41.17,1
1358,24.1,29.38,68.38,1
1359,24.12,36.46,80.56,1
1360,24.13,40.13,67.79,1
1361,24.14,100.63,133.02,1
1362,24.16,-89.75,359.13,1
1363,24.17,-114.69,256.92,1
1364,24.18,-30.46,-51.35,1
1365,24.2,-160.34,-170.35,1
1366,24.21,197.65,289.46,1
1367,24.22,150.76,5.0,1
1368,24.24,124.94,50.21,1
1369,24.25,213.63,-21.39,1
1370,24.27,322.06,-55.97,1
1371,24.28,203.07,58.42,1
1372,24.29,53.09,-194.63,1
1373,24.31,-469.7,-322.44,1
1374,24.32,76.89,-1.12,1
1375,24.33,-172.22,-266.82,1
1376,24.35,-41.87,-554.16,1
1377,24.36,-207.42,-175.34,1
1378,24.37,234.3,-200.31,1
1379,24.39,-161.93,-9.87,1
1380,24.4,-39.28,-137.31,1
1381,24.41,13.53,-329.53,1
1382,24.43,183.63,76.47,1
1383,24.44,14.79,-35.24,1
1384,24.45,-331.04,-50.61,1
1385,24.47,-50.13,-367.03,1
1386,24.48,-215.59,57.02,1
1387,24.49,-172.63,-77.01,1
1388,24.51,-133.2,-456.54,1
1389,24.52,-160.89,18.22,1
1390,24.53,-105.14,274.81,1
1391,24.55,115.33,-137.59,1
1392,24.56,21.9,428.45,1
1393,24.57,-79.38,566.78,1
1394,24.59,310.88,380.22,1
1395,24.6,-138.9,286.86,1
1396,24.61,-23.23,-174.7,1
1397,24.63,-254.35,310.14,1
1398,24.64,118.34,-0.61,1
1399,24.65,-89.15,245.95,1
1400,24.67,32.0,362.02,1
1401,24.68,239.12,178.44,1
1402,24.69,261.21,-334.74,1
1403,24.71,-15.09,-138.01,1
1404,24.72,16.66,419.73,1
1405,24.73,-7.46,58.8,1
1406,24.75,244.62,-336.68,1
1407,24.76,-132.32,-151.83,1
1408,24.77,-129.43,136.33,1
1409,24.78,17.45,-25.41,1
1410,24.8,26.11,252.13,1
1411,24.81,165.34,221.55,1
1412,24.82,332.65,-112.02,1
1413,24.84,42.21,57.2,1
1414,24.85,266.82,-432.51,1
1415,24.86,-123.12,179.69,1
1416,24.88,-263.82,125.62,1
1417,24.89,126.55,250.54,1
1418,24.91,-284.38,-72.19,1
1419,24.92,28.52,-16.83,1
1420,24.93,8.21,-77.44,1
1421,24.95,48.64,-205.1,1
1422,24.96,34.6,-127.15,1
1423,24.97,42.16,-178.06,1
1424,24.99,68.11,-102.86,1
1425,25.0,32.84,-137.0,1
1426,25.01,19.55,-129.09,1
1427,25.03,17.59,-92.83,1
1428,25.04,34.51,-101.32,1
1429,25.05,7.99,-70.11,1
1430,25.07,-2.79,-21.1,1
1431,25.08,-48.29,-4.62,1
1432,25.09,13.29,22.24,1
1433,25.11,-23.49,23.45,1
1434,25.12,-16.34,50.36,1
1435,25.13,-20.89,94.65,1
1436,25.15,-3.37,99.05,1
1437,25.16,-7.38,137.4,1
1438,25.17,-9.1,146.31,1
1439,25.19,-11.62,126.26,1
1440,25.2,-4.25,135.91,1
1441,25.21,0.78,113.13,1
1442,25.23,-8.29,95.18,1
1443,25.24,-5.54,53.12,1
1444,25.25,-26.12,40.49,1
1445,25.27,-28.91,48.9,1
1446,25.28,-36.66,1.37,1
1447,25.29,3.53,-10.33,1
1448,25.31,-5.84,-25.51,1
1449,25.32,-14.84,-36.55,1
1450,25.33,-23.49,-53.45,1
1451,25.35,-9.25,-37.79,1
1452,25.36,-8.86,-49.75,1
1453,25.37,-25.63,-36.01,1
1454,25.38,-28.72,-71.42,1
1455,25.4,10.26,-72.07,1
1456,25.41,-24.59,-74.13,1
1457,25.42,-13.07,-82.58,1
1458,25.44,-29.4,-75.35,1
1459,25.45,-8.24,-57.85,1
1460,25.46,-24.29,-66.8,1
1461,25.48,-38.8,-42.39,1
1462,25.49,-26.37,-35.89,1
1463,25.5,-6.54,-44.73,1
1464,25.52,-24.9,-42.68,1
1465,25.53,-23.99,-67.84,1
1466,25.55,-7.9,-62.8,1
1467,25.56,2.23,-51.91,1
1468,25.57,8.26,-40.56,1
1469,25.59,-9.18,-15.61,1
1470,25.6,2.83,-36.59,1
1471,25.61,-10.68,-18.62,1
1472,25.63,-3.28,-12.79,1
1473,25.64,-12.36,-14.32,1
1474,25.65,20.07,-10.25,1
1475,25.67,2.43,-17.5,1
1476,25.68,2.88,-10.01,1
1477,25.69,-4.42,-11.74,1
1478,25.71,23.84,15.32,1
1479,25.72,11.48,1.84,1
1480,25.73,-18.68,13.29,1
1481,25.75,3.07,28.69,1
1482,25.76,13.58,17.7,1
1483,25.77,10.57,19.44,1
1484,25.79,1.25,12.94,1
1485,25.8,6.84,9.82,1
1486,25.81,11.99,19.34,1
1487,25.83,13.46,28.16,1
1488,25.84,-6.3,25.76,1
1489,25.85,-5.5,11.1,1
1490,25.87,22.95,21.3,1
1491,25.88,15.51,30.31,1
1492,25.89,13.32,26.05,1
1493,25.91,40.76,16.1,1
1494,25.92,37.55,39.01,1
1495,25.93,-0.73,20.28,1
1496,25.95,-9.0,37.73,1
1497,25.96,7.61,21.32,1
1498,25.97,16.83,35.98,1
1499,25.99,-0.24,15.21,1
1500,26.0,-3.45,29.62,1
1501,26.01,14.6,19.27,1
1502,26.02,-4.77,34.36,1
1503,26.04,6.44,23.96,1
1504,26.05,-41.94,1.08,1
1505,26.06,19.01,10.64,1
1506,26.08,21.22,7.22,1
1507,26.09,-26.35,11.77,1
1508,26.1,14.12,20.93,1
1509,26.12,60.38,13.51,1
1510,26.13,4.27,50.39,1
1511,26.14,35.18,265.7,1
1512,26.16,23.78,429.01,1
1513,26.17,244.48,203.32,1
1514,26.19,180.57,32.09,1
1515,26.2,-155.54,-7.5,1
1516,26.21,9.68,38.17,1
1517,26.23,85.4,128.92,1
1518,26.24,182.11,-181.84,1
1519,26.25,38.46,-225.73,1
1520,26.27,-77.97,-98.37,1
1521,26.28,125.07,66.77,1
1522,26.29,-166.75,-177.65,1
1523,26.31,-129.01,-125.98,1
1524,26.32,-224.65,-42.91,1
1525,26.33,-119.52,-281.04,1
1526,26.35,-226.6,31.8,1
1527,26.36,-120.2,-615.67,1
1528,26.37,-209.93,-327.3,1
1529,26.39,-339.76,146.05,1
1530,26.4,67.49,-517.43,1
1531,26.41,-109.42,-308.37,1
1532,26.43,-60.75,-119.89,1
1533,26.44,-34.17,-113.46,1
1534,26.45,-33.94,116.1,1
1535,26.47,-226.98,-239.88,1
1536,26.48,-9.39,-3.04,1
1537,26.49,-44.4,-187.82,1
1538,26.51,33.58,168.03,1
1539,26.52,196.12,-42.99,1
1540,26.53,178.19,253.49,1
1541,26.55,128.73,217.52,1
1542,26.56,169.44,353.43,1
1543,26.57,301.58,281.66,1
1544,26.59,327.08,671.58,1
1545,26.6,231.4,198.53,1
1546,26.61,380.21,267.35,1
1547,26.63,89.94,-149.53,1
1548,26.64,-70.36,294.82,1
1549,26.65,4.01,34.79,1
1550,26.67,-175.62,-22.88,1
1551,26.68,-7.71,440.76,1
1552,26.69,118.37,-197.44,1
1553,26.7,-226.63,14.9,1
1554,26.72,174.53,-48.66,1
1555,26.73,-143.82,-155.89,1
1556,26.75,64.77,157.64,1
1557,26.76,13.44,62.25,1
1558,26.77,-25.88,-42.02,1
1559,26.78,-338.41,-441.89,1
1560,26.8,-276.28,-127.42,1
1561,26.81,194.47,164.65,1
1562,26.82,-1.8,42.44,1
1563,26.84,37.46,324.77,1
1564,26.85,229.45,-57.8,1
1565,26.87,-50.96,174.84,1
1566,26.88,117.3,47.81,1
1567,26.89,87.82,-26.88,1
1568,26.91,102.78,-170.45,1
1569,26.92,-155.27,-123.13,1
1570,26.93,-161.79,-215.23,1
1571,26.95,-144.93,-184.24,1
1572,26.96,-179.47,-187.2,1
1573,26.97,-173.43,-156.54,1
1574,26.99,-157.74,-134.23,1
1575,27.0,-103.29,-109.56,1
1576,27.01,-101.83,-80.09,1
1577,27.03,-46.7,-39.58,1
1578,27.04,-2.24,-21.29,1
1579,27.05,38.12,10.91,1
1580,27.07,32.71,24.12,1
1581,27.08,69.13,56.72,1
1582,27.09,74.85,41.95,1
1583,27.11,37.08,43.04,1
1584,27.12,35.25,54.19,1
1585,27.13,37.84,103.71,1
1586,27.15,61.37,114.21,1
1587,27.16,23.57,120.7,1
1588,27.17,40.11,110.78,1
1589,27.19,38.05,95.31,1
1590,27.2,65.26,75.28,1
1591,27.21,37.14,48.14,1
1592,27.23,17.94,62.15,1
1593,27.24,20.92,30.38,1
1594,27.25,39.35,25.52,1
1595,27.27,20.39,17.89,1
1596,27.28,17.79,4.12,1
1597,27.29,12.32,-18.25,1
1598,27.3,13.34,5.7,1
1599,27.32,9.86,-38.33,1
1600,27.33,2.13,-49.67,1
1601,27.34,23.9,-25.03,1
1602,27.36,34.99,-43.28,1
1603,27.37,-1.99,-53.44,1
1604,27.38,-14.98,-49.74,1
1605,27.4,-9.73,-41.93,1
1606,27.41,-9.71,-54.92,1
1607,27.42,-27.25,-60.19,1
1608,27.44,-30.83,-47.62,1
1609,27.45,-18.74,-36.06,1
1610,27.46,-18.98,-43.08,1
1611,27.48,-17.7,-46.5,1
1612,27.49,-41.63,-20.57,1
1613,27.51,-12.8,-39.05,1
1614,27.52,-38.37,-30.67,1
1615,27.53,-22.58,-24.13,1
1616,27.55,-14.9,-22.56,1
1617,27.56,9.51,-24.17,1
1618,27.57,-19.17,-27.87,1
1619,27.59,-17.76,-34.51,1
1620,27.6,-6.65,-13.69,1
1621,27.61,18.88,-32.38,1
1622,27.63,-14.48,-26.79,1
1623,27.64,-12.5,-4.11,1
1624,27.65,-19.34,-15.48,1
1625,27.67,16.36,-7.76,1
1626,27.68,-6.97,-10.45,1
1627,27.69,-20.24,15.55,1
1628,27.71,-12.67,19.95,1
1629,27.72,10.22,-1.12,1
1630,27.73,12.35,-6.17,1
1631,27.75,19.51,9.36,1
1632,27.76,3.98,19.56,1
1633,27.77,14.08,27.98,1
1634,27.79,-4.99,27.6,1
1635,27.8,8.33,17.23,1
1636,27.81,29.45,30.3,1
1637,27.83,11.9,8.74,1
1638,27.84,-15.72,19.27,1
1639,27.85,4.36,37.34,1
1640,27.87,36.86,13.28,1
1641,27.88,5.46,5.91,1
1642,27.89,-1.96,4.35,1
1643,27.91,-3.98,18.39,1
1644,27.92,20.48,-2.68,1
1645,27.93,3.36,4.83,1
1646,27.94,7.46,31.67,1
1647,27.96,7.91,32.85,1
1648,27.97,14.23,24.04,1
1649,27.98,-1.46,33.72,1
1650,28.0,-10.44,21.21,1
1651,28.01,4.97,19.14,1
1652,28.02,16.72,18.83,1
1653,28.04,-17.84,19.78,1
1654,28.05,-83.56,13.94,1
1655,28.06,6.88,17.93,1
1656,28.08,13.11,9.81,1
1657,28.09,-19.04,24.34,1
1658,28.1,36.31,33.69,1
1659,28.12,6.98,4.69,1
1660,28.13,-14.73,208.74,1
1661,28.15,10.8,294.25,1
1662,28.16,76.16,113.58,1
1663,28.17,79.09,291.56,1
1664,28.19,223.86,46.27,1
1665,28.2,144.26,78.3,1
1666,28.21,37.3,-75.27,1
1667,28.23,121.28,-299.18,1
1668,28.24,-181.19,240.59,1
1669,28.25,95.55,-150.2,1
1670,28.27,-376.99,-62.25,1
1671,28.28,-162.3,-170.6,1
1672,28.29,-310.19,-408.63,1
1673,28.31,-90.38,-336.36,1
1674,28.32,60.74,-433.24,1
1675,28.33,-5.93,79.49,1
1676,28.35,51.93,23.96,1
1677,28.36,-93.03,-207.76,1
1678,28.37,21.1,40.55,1
1679,28.39,280.31,-305.74,1
1680,28.4,-341.34,-232.48,1
1681,28.41,-80.21,-208.73,1
1682,28.43,183.71,-202.04,1
1683,28.44,83.11,-267.74,1
1684,28.45,-95.41,17.7,1
1685,28.47,-2.7,385.44,1
1686,28.48,-212.95,242.54,1
1687,28.49,331.56,-56.6,1
1688,28.51,212.27,72.67,1
1689,28.52,-124.91,245.47,1
1690,28.53,-2.79,157.73,1
1691,28.55,-102.7,-139.99,1
1692,28.56,11.72,99.16,1
1693,28.57,-175.97,199.49,1
1694,28.58,300.23,59.29,1
1695,28.6,-137.56,376.27,1
1696,28.61,229.38,-39.63,1
1697,28.62,131.0,509.77,1
1698,28.64,41.48,-149.34,1
1699,28.65,347.77,429.96,1
1700,28.67,-45.29,-194.21,1
1701,28.68,-106.1,116.35,1
1702,28.69,-272.5,206.41,1
1703,28.7,-78.96,-305.67,1
1704,28.72,-334.42,110.76,1
1705,28.73,73.55,352.86,1
1706,28.75,43.42,-152.34,1
1707,28.76,126.58,59.47,1
1708,28.77,248.59,27.95,1
1709,28.79,-13.5,274.93,1
1710,28.8,181.12,-270.18,1
1711,28.81,-144.55,121.92,1
1712,28.83,-12.59,-154.5,1
1713,28.84,-215.86,-232.11,1
1714,28.85,-166.48,-130.08,1
1715,28.87,-129.32,-71.72,1
1716,28.88,3.11,-4.97,1
1717,28.89,-71.35,-196.46,1
1718,28.91,-65.59,-27.83,1
1719,28.92,158.14,-90.89,1
1720,28.93,50.33,-68.15,1
1721,28.95,125.24,-106.87,1
1722,28.96,113.13,-102.52,1
1723,28.97,93.26,-87.39,1
1724,28.99,82.43,-62.71,1
1725,29.0,79.22,-36.66,1
1726,29.01,56.39,30.75,1
1727,29.03,52.37,22.21,1
1728,29.04,24.18,47.14,1
1729,29.05,28.81,50.57,1
1730,29.07,-8.01,38.28,1
1731,29.08,-34.51,48.22,1
1732,29.09,-31.19,89.87,1
1733,29.11,-12.55,99.3,1
1734,29.12,-25.42,129.35,1
1735,29.13,-42.8,120.78,1
1736,29.15,-45.28,92.01,1
1737,29.16,-11.87,88.47,1
1738,29.17,-10.4,56.37,1
1739,29.19,-31.12,20.62,1
1740,29.2,-19.61,15.25,1
1741,29.21,-20.19,13.96,1
1742,29.22,-23.21,-12.12,1
1743,29.24,-35.43,-15.57,1
1744,29.25,-19.42,-13.93,1
1745,29.26,-21.25,-31.66,1
1746,29.28,-35.68,-33.4,1
1747,29.29,-14.73,-54.2,1
1748,29.3,5.61,-54.23,1
1749,29.32,-23.28,-58.72,1
1750,29.33,-44.73,-55.66,1
1751,29.34,-36.23,-62.91,1
1752,29.36,-18.43,-57.71,1
1753,29.37,-22.1,-53.96,1
1754,29.38,-23.26,-52.74,1
1755,29.4,-33.93,-36.3,1
1756,29.41,3.09,-44.92,1
1757,29.42,-13.2,-44.66,1
1758,29.44,-4.55,-34.7,1
1759,29.45,-5.88,-25.83,1
1760,29.47,0.21,-35.42,1
1761,29.48,3.85,-24.03,1
1762,29.49,-3.66,-37.92,1
1763,29.51,-0.84,-53.81,1
1764,29.52,12.7,-27.79,1
1765,29.53,-5.57,-25.83,1
1766,29.55,1.5,-12.21,1
1767,29.56,-2.44,-29.86,1
1768,29.57,28.53,13.07,1
1769,29.59,8.53,5.05,1
1770,29.6,-3.56,1.8,1
1771,29.61,-18.74,4.81,1
1772,29.63,10.39,-1.99,1
1773,29.64,20.63,3.61,1
1774,29.65,-5.66,1.58,1
1775,29.67,0.71,12.34,1
1776,29.68,22.16,24.42,1
1777,29.69,5.5,5.92,1
1778,29.71,14.95,11.06,1
1779,29.72,39.01,7.77,1
1780,29.73,21.43,20.91,1
1781,29.75,-17.48,27.84,1
1782,29.76,3.56,30.66,1
1783,29.77,22.72,25.99,1
1784,29.79,22.79,20.94,1
1785,29.8,21.04,19.77,1
1786,29.81,1.95,16.53,1
1787,29.83,29.5,26.68,1
1788,29.84,19.08,9.01,1
1789,29.85,24.05,15.04,1
1790,29.86,6.32,13.77,1
1791,29.88,1.68,38.82,1
1792,29.89,-14.55,13.29,1
1793,29.9,3.07,9.52,1
1794,29.92,17.8,18.05,1
1795,29.93,19.87,30.99,1
1796,29.94,9.36,23.61,1
1797,29.96,-11.69,22.91,1
1798,29.97,-8.67,20.81,1
1799,29.98,12.21,29.98,1
1800,30.0,8.03,29.48,1
1801,30.01,-16.0,-13.48,1
1802,30.02,-17.21,-0.09,1
1803,30.04,12.32,10.05,1
1804,30.05,-63.22,14.72,1
1805,30.06,25.73,-1.82,1
1806,30.08,-34.6,44.35,1
1807,30.09,19.26,76.29,1
1808,30.11,6.66,169.99,1
1809,30.12,-23.44,209.07,1
1810,30.13,76.19,238.63,1
1811,30.15,298.84,272.43,1
1812,30.16,-96.99,162.69,1
1813,30.17,94.26,43.04,1
1814,30.19,-234.49,9.03,1
1815,30.2,85.52,-82.73,1
1816,30.21,-213.99,-234.77,1
1817,30.23,-126.17,-119.73,1
1818,30.24,-130.23,-640.02,1
1819,30.25,212.64,-222.24,1
1820,30.27,160.26,-65.34,1
1821,30.28,-22.59,-396.94,1
1822,30.29,204.45,-124.26,1
1823,30.31,-65.17,-149.37,1
1824,30.32,-86.43,32.7,1
1825,30.33,-56.62,44.41,1
1826,30.35,18.56,93.22,1
1827,30.36,244.75,-31.45,1
1828,30.37,-186.35,-169.72,1
1829,30.39,-44.23,-280.08,1
1830,30.4,-21.64,37.76,1
1831,30.41,-68.87,-129.27,1
1832,30.43,-167.07,316.94,1
1833,30.44,240.71,-155.66,1
1834,30.45,-164.35,-119.3,1
1835,30.47,16.46,-235.15,1
1836,30.48,-219.98,99.53,1
1837,30.49,127.75,-280.83,1
1838,30.5,-304.41,301.02,1
1839,30.52,-193.38,69.66,1
1840,30.53,-23.02,303.34,1
1841,30.54,-85.2,66.51,1
1842,30.56,-69.18,231.57,1
1843,30.57,133.79,248.4,1
1844,30.58,-52.34,188.38,1
1845,30.6,231.12,42.22,1
1846,30.61,4.14,177.77,1
1847,30.62,363.11,257.73,1
1848,30.64,-153.01,-241.45,1
1849,30.65,243.59,8.93,1
1850,30.67,328.55,314.69,1
1851,30.68,126.49,-202.49,1
1852,30.69,30.19,-235.63,1
1853,30.7,-276.87,35.2,1
1854,30.72,27.02,-64.9,1
1855,30.73,14.98,208.77,1
1856,30.75,81.02,36.66,1
1857,30.76,-57.23,-30.8,1
1858,30.77,49.09,210.8,1
1859,30.79,-8.99,133.36,1
1860,30.8,-88.9,-89.53,1
1861,30.81,4.37,-171.41,1
1862,30.83,-67.81,-256.89,1
1863,30.84,139.75,-179.44,1
1864,30.85,142.57,-175.98,1
1865,30.87,-171.65,-35.89,1
1866,30.88,-241.74,117.7,1
1867,30.89,-202.89,257.52,1
1868,30.91,65.92,28.34,1
1869,30.92,-161.76,176.01,1
1870,30.93,65.68,54.35,1
1871,30.95,-23.37,173.54,1
1872,30.96,95.02,45.0,1
1873,30.97,-137.49,71.32,1
1874,30.99,66.37,37.27,1
1875,31.0,-44.36,-114.17,1
1876,31.01,-9.23,-133.83,1
1877,31.03,-39.92,-152.66,1
1878,31.04,-7.83,-188.57,1
1879,31.05,-7.23,-123.63,1
1880,31.07,59.15,-57.0,1
1881,31.08,84.33,-33.21,1
1882,31.09,81.53,-35.91,1
1883,31.11,73.88,-11.98,1
1884,31.12,94.5,-8.86,1
1885,31.13,71.85,36.96,1
1886,31.14,60.1,74.88,1
1887,31.16,41.39,71.15,1
1888,31.17,38.92,68.42,1
1889,31.18,27.31,63.35,1
1890,31.2,19.54,89.49,1
1891,31.21,27.11,71.58,1
1892,31.22,0.77,93.97,1
1893,31.24,-2.63,91.82,1
1894,31.25,0.86,56.61,1
1895,31.26,14.89,44.52,1
1896,31.28,-7.11,23.59,1
1897,31.29,-16.43,38.68,1
1898,31.3,-27.31,6.87,1
1899,31.32,-6.93,-2.23,1
1900,31.33,-17.04,-72.21,1
1901,31.34,-16.14,-49.67,1
1902,31.36,-6.91,-39.79,1
1903,31.37,-30.29,-46.75,1
1904,31.39,-30.09,-45.53,1
1905,31.4,-33.59,-9.21,1
1906,31.41,-35.99,-39.44,1
1907,31.43,-20.22,-28.16,1
1908,31.44,-41.24,-52.88,1
1909,31.45,-31.7,-44.7,1
1910,31.47,-24.09,-34.36,1
1911,31.48,-11.43,-49.45,1
1912,31.49,-23.11,-57.39,1
1913,31.51,-35.07,-65.29,1
1914,31.52,-31.91,-60.31,1
1915,31.53,-14.62,-45.15,1
1916,31.55,-23.33,-49.01,1
1917,31.56,-26.34,-39.98,1
1918,31.57,-7.96,-42.13,1
1919,31.59,-14.91,-42.63,1
1920,31.6,0.65,-32.45,1
1921,31.61,-22.26,-28.82,1
1922,31.63,-8.42,-39.73,1
1923,31.64,-10.87,-26.65,1
1924,31.65,-19.43,-20.06,1
1925,31.67,-13.74,-24.31,1
1926,31.68,7.48,-21.89,1
1927,31.69,12.57,-10.77,1
1928,31.71,-17.02,13.5,1
1929,31.72,-5.44,6.55,1
1930,31.73,18.42,6.71,1
1931,31.75,2.04,2.08,1
1932,31.76,20.67,16.02,1
1933,31.77,4.5,-0.13,1
1934,31.78,26.76,1.95,1
1935,31.8,-7.25,44.99,1
1936,31.81,17.54,-4.58,1
1937,31.82,23.28,11.47,1
1938,31.84,14.58,9.71,1
1939,31.85,9.34,18.97,1
1940,31.86,9.98,23.33,1
1941,31.88,11.36,19.95,1
1942,31.89,28.77,28.29,1
1943,31.9,2.96,32.83,1
1944,31.92,3.13,20.27,1
1945,31.93,1.66,35.16,1
1946,31.94,28.45,25.61,1
1947,31.96,-2.37,29.24,1
1948,31.97,-1.03,19.53,1
1949,31.98,26.72,29.08,1
1950,32.0,13.82,36.02,1
1951,32.01,22.82,29.97,1
1952,32.03,12.59,28.43,1
1953,32.04,12.44,11.57,1
1954,32.05,-33.5,27.99,1
1955,32.07,-7.78,1.03,1
1956,32.08,-14.18,19.53,1
1957,32.09,66.53,30.74,1
1958,32.11,-0.49,24.22,1
1959,32.12,-4.47,58.54,1
1960,32.13,18.73,158.61,1
1961,32.15,15.96,302.97,1
1962,32.16,-41.24,292.37,1
1963,32.17,-30.09,54.95,1
1964,32.19,185.12,-0.36,1
1965,32.2,-219.51,113.13,1
1966,32.21,-68.57,-202.53,1
1967,32.23,84.15,-134.37,1
1968,32.24,90.29,-163.75,1
1969,32.25,368.51,-136.39,1
1970,32.27,166.52,-223.21,1
1971,32.28,-60.87,-406.38,1
1972,32.29,103.62,56.78,1
1973,32.31,-35.13,9.75,1
1974,32.32,-56.19,-287.8,1
1975,32.33,-230.05,90.9,1
1976,32.35,-148.98,-444.05,1
1977,32.36,-332.81,217.14,1
1978,32.37,47.16,23.32,1
1979,32.39,-122.66,-358.7,1
1980,32.4,93.93,-64.79,1
1981,32.41,-103.01,193.22,1
1982,32.43,-38.68,-2.36,1
1983,32.44,-213.52,34.25,1
1984,32.45,145.97,102.66,1
1985,32.47,203.33,-368.0,1
1986,32.48,-153.04,-26.62,1
1987,32.49,120.72,175.18,1
1988,32.51,-179.16,69.37,1
1989,32.52,-30.62,229.12,1
1990,32.53,-197.81,326.63,1
1991,32.54,-38.15,-126.95,1
1992,32.56,-55.15,326.91,1
1993,32.57,26.45,67.64,1
1994,32.59,216.65,214.36,1
1995,32.6,-90.45,-202.96,1
1996,32.61,276.9,149.09,1
1997,32.63,-126.97,88.9,1
1998,32.64,-93.56,-138.46,1
1999,32.65,-143.14,124.04,1
2000,32.67,262.01,363.89,1
2001,32.68,142.91,115.68,1
2002,32.69,106.31,267.65,1
2003,32.71,348.95,-19.34,1
2004,32.72,7.47,-178.69,1
2005,32.73,16.64,-156.92,1
2006,32.75,115.06,152.47,1
2007,32.76,232.47,-226.37,1
2008,32.77,163.36,223.45,1
2009,32.79,169.51,90.55,1
2010,32.8,-119.07,-46.09,1
2011,32.81,44.18,-120.63,1
2012,32.83,200.23,-264.57,1
2013,32.84,-93.41,69.57,1
2014,32.85,-132.48,-400.64,1
2015,32.87,-211.63,-166.3,1
2016,32.88,-171.49,-343.58,1
2017,32.89,6.04,-47.38,1
2018,32.91,-279.82,-277.61,1
2019,32.92,-175.35,-63.13,1
2020,32.93,-215.54,-125.42,1
2021,32.95,-151.43,-107.4,1
2022,32.96,-139.42,-102.86,1
2023,32.97,-130.08,-60.82,1
2024,32.99,-134.27,-62.47,1
2025,33.0,-121.97,-82.12,1
2026,33.01,-118.06,-45.49,1
2027,33.03,-23.4,-25.34,1
2028,33.04,35.65,98.68,1
2029,33.05,117.74,54.12,1
2030,33.06,141.22,74.58,1
2031,33.08,145.8,89.56,1
2032,33.09,138.51,102.45,1
2033,33.11,114.94,133.48,1
2034,33.12,129.12,145.79,1
2035,33.13,111.06,175.92,1
2036,33.15,97.55,178.8,1
2037,33.16,86.91,192.84,1
2038,33.17,85.83,199.97,1
2039,33.19,73.87,194.02,1
2040,33.2,44.44,179.46,1
2041,33.21,38.72,165.78,1
2042,33.22,50.88,146.84,1
2043,33.24,28.1,119.09,1
2044,33.25,3.49,97.65,1
2045,33.27,-0.9,67.71,1
2046,33.28,17.06,52.13,1
2047,33.29,-13.63,19.25,1
2048,33.31,-20.86,12.88,1
2049,33.32,-17.82,-10.47,1
2050,33.33,-8.74,-8.16,1
2051,33.35,-19.99,-16.37,1
2052,33.36,-29.18,-15.26,1
2053,33.37,-29.06,-46.53,1
2054,33.39,-25.12,-45.56,1
2055,33.4,-45.05,-63.42,1
2056,33.41,-48.47,-61.36,1
2057,33.43,-55.71,-79.52,1
2058,33.44,-28.68,-85.11,1
2059,33.45,-20.82,-68.54,1
2060,33.47,-44.3,-73.62,1
2061,33.48,-24.91,-67.27,1
2062,33.49,-34.94,-83.61,1
2063,33.51,-39.06,-85.92,1
2064,33.52,-32.25,-72.56,1
2065,33.53,-22.23,-84.47,1
2066,33.55,-41.38,-88.95,1
2067,33.56,-44.23,-63.96,1
2068,33.57,-24.86,-79.58,1
2069,33.59,-0.57,-77.54,1
2070,33.6,-18.98,-75.33,1
2071,33.61,-23.29,-66.84,1
2072,33.63,-16.85,-54.11,1
2073,33.64,14.75,-50.85,1
2074,33.65,-0.91,-46.33,1
2075,33.67,-13.47,-35.68,1
2076,33.68,-16.31,-36.0,1
2077,33.69,3.1,-19.61,1
2078,33.71,8.36,-19.03,1
2079,33.72,11.4,-4.05,1
2080,33.73,-1.0,-11.79,1
2081,33.75,15.03,-34.72,1
2082,33.76,24.08,-15.08,1
2083,33.77,17.1,-12.69,1
2084,33.79,4.71,-1.62,1
2085,33.8,5.61,1.24,1
2086,33.81,2.67,5.08,1
2087,33.83,20.6,31.58,1
2088,33.84,18.96,28.51,1
2089,33.85,26.02,35.42,1
2090,33.87,14.12,23.87,1
2091,33.88,1.05,26.51,1
2092,33.89,6.27,34.73,1
2093,33.9,7.44,30.44,1
2094,33.92,18.24,31.9,1
2095,33.93,2.46,25.64,1
2096,33.95,16.61,16.0,1
2097,33.96,27.91,36.25,1
2098,33.97,9.12,26.98,1
2099,33.99,7.3,40.35,1
2100,34.0,-0.34,26.35,1
2101,34.01,3.18,31.3,1
2102,34.03,-4.54,34.5,1
2103,34.04,-0.7,41.23,1
2104,34.05,-3.91,36.65,1
2105,34.07,-5.05,11.67,1
2106,34.08,-2.93,1.51,1
2107,34.09,27.21,30.69,1
2108,34.11,14.16,10.58,1
2109,34.12,23.55,23.51,1
2110,34.13,29.92,41.13,1
2111,34.15,-16.83,60.6,1
2112,34.16,29.74,172.56,1
2113,34.17,97.39,285.07,1
2114,34.19,51.78,237.31,1
2115,34.2,0.84,-20.2,1
2116,34.21,50.56,127.89,1
2117,34.23,49.64,-30.23,1
2118,34.24,-86.94,29.42,1
2119,34.25,161.6,21.39,1
2120,34.27,188.14,-509.17,1
2121,34.28,165.8,-348.67,1
2122,34.29,-108.38,-73.33,1
2123,34.31,-224.85,-433.64,1
2124,34.32,-111.9,57.94,1
2125,34.33,198.18,-285.62,1
2126,34.35,-34.34,-197.42,1
2127,34.36,221.47,-176.91,1
2128,34.37,-2.98,-311.21,1
2129,34.38,-157.89,-51.25,1
2130,34.4,-167.88,122.9,1
2131,34.41,-149.66,245.65,1
2132,34.43,-24.94,113.52,1
2133,34.44,-449.33,545.55,1
2134,34.45,-101.05,286.36,1
2135,34.47,-251.68,-101.71,1
2136,34.48,206.24,119.06,1
2137,34.49,-148.74,347.76,1
2138,34.51,-94.96,-27.6,1
2139,34.52,-266.58,174.12,1
2140,34.53,-83.31,-78.85,1
2141,34.54,-108.76,-179.51,1
2142,34.56,-206.89,-48.77,1
2143,34.57,164.61,264.78,1
2144,34.59,-2.04,-244.94,1
2145,34.6,111.44,128.95,1
2146,34.61,98.87,-255.27,1
2147,34.63,53.49,130.56,1
2148,34.64,102.27,-34.12,1
2149,34.65,-59.66,-79.15,1
2150,34.67,149.28,84.82,1
2151,34.68,365.81,332.89,1
2152,34.69,258.57,260.99,1
2153,34.71,276.29,-128.72,1
2154,34.72,56.59,-251.85,1
2155,34.73,82.26,-86.1,1
2156,34.75,191.26,123.59,1
2157,34.76,-175.59,-2.33,1
2158,34.77,101.14,-57.41,1
2159,34.79,42.08,-157.36,1
2160,34.8,-53.27,-411.01,1
2161,34.81,-72.86,-79.46,1
2162,34.83,301.52,-81.95,1
2163,34.84,43.58,162.42,1
2164,34.85,249.48,-73.1,1
2165,34.87,-263.98,107.94,1
2166,34.88,-19.88,-63.71,1
2167,34.89,-230.61,-218.97,1
2168,34.91,-73.29,-207.24,1
2169,34.92,-208.33,113.09,1
2170,34.93,-89.64,121.35,1
2171,34.95,-33.84,133.66,1
2172,34.96,-73.88,-50.11,1
2173,34.97,-193.4,40.33,1
2174,34.99,15.51,3.3,1
2175,35.0,26.41,8.25,1
2176,35.01,38.4,14.24,1
2177,35.03,31.75,50.61,1
2178,35.04,13.71,13.32,1
2179,35.05,-68.98,-5.8,1
2180,35.06,-86.91,73.61,1
2181,35.08,-24.54,50.51,1
2182,35.09,-6.05,80.43,1
2183,35.11,64.38,60.44,1
2184,35.12,28.97,70.95,1
2185,35.13,82.23,64.01,1
2186,35.15,41.15,71.35,1
2187,35.16,65.06,75.45,1
2188,35.17,56.57,86.59,1
2189,35.19,65.12,71.38,1
2190,35.2,48.06,76.4,1
2191,35.21,35.69,47.02,1
2192,35.22,12.11,26.62,1
2193,35.24,46.06,15.53,1
2194,35.25,14.47,17.14,1
2195,35.27,22.56,24.38,1
2196,35.28,-6.89,-7.27,1
2197,35.29,10.9,-33.2,1
2198,35.31,-18.59,-40.83,1
2199,35.32,-43.13,-54.46,1
2200,35.33,-50.27,-47.41,1
2201,35.35,-40.82,-58.26,1
2202,35.36,-13.99,-69.58,1
2203,35.37,0.08,-48.57,1
2204,35.39,12.01,-50.0,1
2205,35.4,6.94,-41.08,1
2206,35.41,-17.9,-36.74,1
2207,35.43,-20.82,-37.64,1
2208,35.44,-13.81,-49.54,1
2209,35.45,-19.98,-43.32,1
2210,35.47,-11.61,-38.55,1
2211,35.48,-18.89,-45.74,1
2212,35.49,-1.47,-38.62,1
2213,35.51,-6.69,-28.93,1
2214,35.52,-21.83,-43.17,1
2215,35.53,-15.58,-31.63,1
2216,35.55,-1.81,-36.94,1
2217,35.56,-23.3,-36.54,1
2218,35.57,-49.48,-29.44,1
2219,35.59,-37.61,-35.12,1
2220,35.6,-11.78,-32.9,1
2221,35.61,-13.68,-36.04,1
2222,35.63,-5.12,-14.18,1
2223,35.64,-18.4,-26.61,1
2224,35.65,-8.33,-23.83,1
2225,35.67,-19.51,-7.81,1
2226,35.68,-3.41,-34.29,1
2227,35.69,-1.79,7.58,1
2228,35.71,-6.94,4.92,1
2229,35.72,-9.44,8.46,1
2230,35.73,-16.18,23.44,1
2231,35.75,16.41,-0.75,1
2232,35.76,19.06,8.36,1
2233,35.77,-17.42,23.52,1
2234,35.79,-13.71,30.57,1
2235,35.8,13.76,18.93,1
2236,35.81,11.43,21.96,1
2237,35.83,-9.14,35.33,1
2238,35.84,-9.37,46.37,1
2239,35.85,10.42,35.45,1
2240,35.87,16.49,34.13,1
2241,35.88,4.76,43.3,1
2242,35.89,17.86,24.96,1
2243,35.9,28.69,20.72,1
2244,35.92,13.27,0.44,1
2245,35.93,-10.91,4.5,1
2246,35.95,2.03,12.64,1
2247,35.96,16.58,22.56,1
2248,35.97,3.46,28.54,1
2249,35.99,12.13,45.48,1
2250,36.0,8.46,34.94,1
2251,36.01,42.42,22.8,1
2252,36.03,13.74,23.26,1
2253,36.04,11.97,21.46,1
2254,36.05,-24.04,11.41,1
2255,36.07,-30.46,2.29,1
2256,36.08,7.32,10.03,1
2257,36.09,18.11,21.97,1
2258,36.11,24.05,5.46,1
2259,36.12,41.53,36.56,1
2260,36.13,9.8,55.75,1
2261,36.15,19.18,173.59,1
2262,36.16,54.7,306.65,1
2263,36.17,35.78,279.55,1
2264,36.19,40.52,211.44,1
2265,36.2,36.83,144.79,1
2266,36.21,-76.15,33.6,1
2267,36.23,81.29,72.92,1
2268,36.24,-218.65,-116.42,1
2269,36.25,-76.42,-221.3,1
2270,36.27,334.84,-66.07,1
2271,36.28,-17.42,-267.5,1
2272,36.29,-40.95,-87.25,1
2273,36.31,-37.56,-132.12,1
2274,36.32,-310.21,-212.27,1
2275,36.33,382.89,-160.66,1
2276,36.35,-106.45,-561.34,1
2277,36.36,-104.64,-255.89,1
2278,36.37,199.81,-76.3,1
2279,36.38,-17.3,-117.49,1
2280,36.4,-220.79,-212.04,1
2281,36.41,-5.1,-286.48,1
2282,36.43,148.36,-325.16,1
2283,36.44,-300.26,-73.87,1
2284,36.45,336.11,-159.69,1
2285,36.47,-202.21,152.55,1
2286,36.48,214.0,416.9,1
2287,36.49,-21.72,78.08,1
2288,36.51,-70.89,-34.58,1
2289,36.52,-249.44,210.22,1
2290,36.53,94.33,-243.49,1
2291,36.54,-52.01,-105.56,1
2292,36.56,69.95,-150.23,1
2293,36.57,-84.84,-261.83,1
2294,36.59,84.14,228.44,1
2295,36.6,-187.6,312.48,1
2296,36.61,-305.67,182.07,1
2297,36.63,-112.58,362.33,1
2298,36.64,162.93,-54.74,1
2299,36.65,-221.75,-90.47,1
2300,36.67,74.72,30.12,1
2301,36.68,-37.9,356.01,1
2302,36.69,191.03,4.48,1
2303,36.71,-117.22,210.75,1
2304,36.72,399.21,117.3,1
2305,36.73,140.01,63.3,1
2306,36.75,154.81,239.61,1
2307,36.76,-46.63,469.71,1
2308,36.77,249.5,145.13,1
2309,36.79,70.73,295.28,1
2310,36.8,9.87,67.46,1
2311,36.81,69.17,-96.87,1
2312,36.83,-38.51,79.15,1
2313,36.84,-157.62,-176.0,1
2314,36.85,93.36,33.2,1
2315,36.87,-124.52,-70.06,1
2316,36.88,-9.34,-45.45,1
2317,36.89,-49.48,-160.83,1
2318,36.9,-77.18,-89.56,1
2319,36.92,-59.98,2.01,1
2320,36.93,-65.06,-16.09,1
2321,36.95,-64.71,22.56,1
2322,36.96,-63.58,5.1,1
2323,36.97,-23.39,2.77,1
2324,36.99,-5.01,9.44,1
2325,37.0,1.21,24.34,1
2326,37.01,9.19,-5.22,1
2327,37.03,11.54,-13.89,1
2328,37.04,29.89,7.96,1
2329,37.05,54.23,6.28,1
2330,37.06,24.43,25.78,1
2331,37.08,32.38,21.59,1
2332,37.09,36.89,23.18,1
2333,37.11,44.66,48.9,1
2334,37.12,31.2,28.04,1
2335,37.13,2.89,-7.43,1
2336,37.15,25.9,-29.32,1
2337,37.16,13.06,-21.71,1
2338,37.17,19.54,-48.75,1
2339,37.19,21.52,-44.93,1
2340,37.2,-0.19,-54.36,1
2341,37.21,-1.73,-77.58,1
2342,37.22,12.62,-85.22,1
2343,37.24,19.51,-85.22,1
2344,37.25,7.89,-71.38,1
2345,37.27,-6.71,-87.91,1
2346,37.28,-13.94,-85.66,1
2347,37.29,18.05,-91.03,1
2348,37.31,-2.15,-73.18,1
2349,37.32,-0.87,-89.1,1
2350,37.33,-27.75,-56.94,1
2351,37.35,-11.74,-52.4,1
2352,37.36,-19.67,-30.96,1
2353,37.37,-17.68,-60.15,1
2354,37.39,-20.59,-47.51,1
2355,37.4,-16.51,-46.07,1
2356,37.41,-29.06,-56.69,1
2357,37.43,-25.51,-42.82,1
2358,37.44,-32.93,-34.35,1
2359,37.45,-13.61,-45.0,1
2360,37.47,-32.57,-28.09,1
2361,37.48,-34.04,-25.8,1
2362,37.49,-37.14,-2.37,1
2363,37.51,0.26,8.98,1
2364,37.52,5.29,12.72,1
2365,37.53,-10.12,-2.67,1
2366,37.54,0.69,9.61,1
2367,37.56,-8.12,8.72,1
2368,37.57,3.73,2.4,1
2369,37.59,5.3,18.36,1
2370,37.6,11.37,7.1,1
2371,37.61,14.41,0.46,1
2372,37.63,3.21,18.5,1
2373,37.64,0.53,50.92,1
2374,37.65,24.63,24.42,1
2375,37.67,5.9,31.41,1
2376,37.68,2.34,36.27,1
2377,37.69,-5.12,43.64,1
2378,37.71,19.87,36.39,1
2379,37.72,-3.74,26.27,1
2380,37.73,-6.47,45.56,1
2381,37.75,-23.54,37.49,1
2382,37.76,-4.17,30.86,1
2383,37.77,5.55,30.93,1
2384,37.79,-1.58,37.63,1
2385,37.8,0.66,36.4,1
2386,37.81,6.45,21.47,1
2387,37.83,6.19,48.99,1
2388,37.84,4.42,25.78,1
2389,37.85,3.38,38.85,1
2390,37.87,15.06,26.91,1
2391,37.88,-14.41,5.35,1
2392,37.89,1.4,13.26,1
2393,37.91,-6.14,4.13,1
2394,37.92,13.04,10.87,1
2395,37.93,-5.34,4.5,1
2396,37.95,-7.78,20.14,1
2397,37.96,4.97,10.97,1
2398,37.97,18.81,26.15,1
2399,37.99,23.82,10.71,1
2400,38.0,10.85,10.51,1
2401,38.01,10.69,4.32,1
2402,38.03,5.32,14.89,1
2403,38.04,4.94,20.39,1
2404,38.05,-2.29,1.4,1
2405,38.07,-34.17,0.3,1
2406,38.08,-1.17,-16.09,1
2407,38.09,-34.38,-3.38,1
2408,38.11,-5.39,51.39,1
2409,38.12,44.77,112.08,1
2410,38.13,9.87,213.31,1
2411,38.15,41.37,217.19,1
2412,38.16,10.91,178.92,1
2413,38.17,11.73,50.32,1
2414,38.19,-25.68,-206.63,1
2415,38.2,-93.78,13.8,1
2416,38.21,-30.32,-75.29,1
2417,38.22,-52.71,-196.47,1
2418,38.24,230.98,153.24,1
2419,38.25,96.46,-155.82,1
2420,38.27,162.97,-102.64,1
2421,38.28,288.24,-298.08,1
2422,38.29,188.76,-562.35,1
2423,38.31,-147.08,-161.73,1
2424,38.32,-185.84,-259.38,1
2425,38.33,-82.42,429.4,1
2426,38.35,-237.64,86.09,1
2427,38.36,-103.32,148.9,1
2428,38.37,138.59,-343.28,1
2429,38.38,-21.01,26.0,1
2430,38.4,-167.53,144.37,1
2431,38.41,-231.59,-203.87,1
2432,38.43,203.83,-348.78,1
2433,38.44,-276.67,13.9,1
2434,38.45,323.7,199.88,1
2435,38.47,-74.15,99.79,1
2436,38.48,4.98,216.39,1
2437,38.49,-214.79,-136.86,1
2438,38.51,-46.44,-169.87,1
2439,38.52,-23.82,65.49,1
2440,38.53,-10.82,224.85,1
2441,38.55,-48.34,-150.88,1
2442,38.56,64.28,205.33,1
2443,38.57,118.69,271.73,1
2444,38.59,-24.35,-100.63,1
2445,38.6,262.03,-170.9,1
2446,38.61,-117.27,-403.37,1
2447,38.63,19.9,-99.45,1
2448,38.64,-45.44,-242.67,1
2449,38.65,61.05,338.31,1
2450,38.67,-89.3,170.27,1
2451,38.68,-124.44,331.85,1
2452,38.69,38.66,252.52,1
2453,38.71,-108.95,116.13,1
2454,38.72,-45.31,367.86,1
2455,38.73,-331.28,-203.98,1
2456,38.75,43.32,-65.4,1
2457,38.76,-263.7,117.84,1
2458,38.77,87.03,197.2,1
2459,38.79,12.69,-10.84,1
2460,38.8,-155.9,-432.95,1
2461,38.81,246.09,53.6,1
2462,38.83,-207.85,-100.06,1
2463,38.84,60.03,83.41,1
2464,38.85,28.47,-126.87,1
2465,38.87,160.99,-57.61,1
2466,38.88,155.46,-218.19,1
2467,38.89,158.53,-61.96,1
2468,38.9,147.92,-119.5,1
2469,38.92,170.36,-26.26,1
2470,38.93,170.39,128.39,1
2471,38.95,178.83,-0.16,1
2472,38.96,141.29,61.87,1
2473,38.97,128.27,83.35,1
2474,38.99,102.08,119.57,1
2475,39.0,119.71,106.63,1
2476,39.01,79.64,112.15,1
2477,39.03,53.29,115.63,1
2478,39.04,10.21,104.91,1
2479,39.05,25.8,151.79,1
2480,39.06,6.38,139.4,1
2481,39.08,-7.09,104.63,1
2482,39.09,2.57,98.71,1
2483,39.11,-15.49,73.74,1
2484,39.12,-26.66,67.22,1
2485,39.13,-21.99,40.97,1
2486,39.15,-12.63,4.47,1
2487,39.16,-49.23,3.4,1
2488,39.17,-57.99,-9.72,1
2489,39.19,-71.17,-38.04,1
2490,39.2,-46.36,-67.2,1
2491,39.21,-73.04,-53.19,1
2492,39.23,-61.76,-61.16,1
2493,39.24,-92.8,-50.57,1
2494,39.25,-58.04,-43.19,1
2495,39.27,-69.53,-46.18,1
2496,39.28,-78.59,-70.36,1
2497,39.29,-74.07,-91.05,1
2498,39.31,-61.52,-98.69,1
2499,39.32,-76.5,-89.88,1
2500,39.33,-75.44,-107.8,1
2501,39.35,-67.58,-94.72,1
2502,39.36,-34.12,-98.24,1
2503,39.37,-45.96,-72.07,1
2504,39.39,-60.02,-101.06,1
2505,39.4,-47.99,-63.48,1
2506,39.41,-28.69,-77.95,1
2507,39.43,-22.3,-64.55,1
2508,39.44,-39.37,-75.35,1
2509,39.45,-9.81,-64.2,1
2510,39.47,-6.78,-59.47,1
2511,39.48,-21.22,-57.58,1
2512,39.49,-5.15,-2.33,1
2513,39.51,-4.17,-33.03,1
2514,39.52,-17.09,-12.45,1
2515,39.53,-7.44,10.57,1
2516,39.54,4.62,-16.98,1
2517,39.56,25.46,-0.41,1
2518,39.57,2.34,-0.86,1
2519,39.59,17.15,12.94,1
2520,39.6,5.65,5.27,1
2521,39.61,34.9,-0.78,1
2522,39.63,9.43,9.19,1
2523,39.64,13.73,33.66,1
2524,39.65,19.99,23.72,1
2525,39.67,37.49,26.39,1
2526,39.68,19.63,42.84,1
2527,39.69,21.71,35.68,1
2528,39.71,8.88,29.89,1
2529,39.72,36.05,14.59,1
2530,39.73,27.96,48.41,1
2531,39.75,35.19,50.34,1
2532,39.76,16.73,41.61,1
2533,39.77,32.5,33.85,1
2534,39.79,25.61,36.32,1
2535,39.8,15.87,32.65,1
2536,39.81,47.93,34.83,1
2537,39.83,27.54,33.17,1
2538,39.84,18.12,45.57,1
2539,39.85,7.2,25.76,1
2540,39.87,18.11,15.11,1
2541,39.88,21.4,34.95,1
2542,39.89,18.83,38.07,1
2543,39.91,16.17,23.34,1
2544,39.92,12.68,18.05,1
2545,39.93,-3.92,8.45,1
2546,39.95,11.24,22.92,1
2547,39.96,0.25,14.36,1
2548,39.97,12.17,5.3,1
2549,39.99,0.53,20.07,1
2550,40.0,-9.43,5.33,1
2551,40.01,-7.24,10.89,1
2552,40.03,18.62,6.55,1
2553,40.04,5.03,24.75,1
2554,40.05,-6.27,26.68,1
2555,40.07,-26.05,21.18,1
2556,40.08,6.22,-17.15,1
2557,40.09,-12.88,6.71,1
2558,40.11,11.32,21.63,1
2559,40.12,-22.5,99.65,1
2560,40.13,9.23,136.8,1
2561,40.15,39.01,40.4,1
2562,40.16,-22.8,33.86,1
2563,40.17,-8.66,141.78,1
2564,40.19,-8.67,-62.02,1
2565,40.2,162.43,179.96,1
2566,40.21,-40.33,-343.05,1
2567,40.22,-108.43,-46.76,1
2568,40.24,-31.33,98.32,1
2569,40.25,-44.92,144.69,1
2570,40.27,43.69,-207.84,1
2571,40.28,-186.27,-164.7,1
2572,40.29,93.78,-265.54,1
2573,40.31,-121.2,-276.53,1
2574,40.32,-144.02,-130.03,1
2575,40.33,59.0,-467.23,1
2576,40.35,29.37,-98.74,1
2577,40.36,79.51,-136.85,1
2578,40.37,71.13,-0.81,1
2579,40.38,30.9,-78.4,1
2580,40.4,-60.96,219.4,1
2581,40.41,354.52,-217.58,1
2582,40.43,-21.35,297.12,1
2583,40.44,-140.66,199.53,1
2584,40.45,92.96,166.34,1
2585,40.47,-70.94,329.98,1
2586,40.48,-80.9,-115.43,1
2587,40.49,-60.01,-100.3,1
2588,40.51,-167.04,-70.75,1
2589,40.52,-102.08,-4.98,1
2590,40.53,48.28,-6.9,1
2591,40.55,64.89,253.07,1
2592,40.56,-43.0,477.59,1
2593,40.57,-151.88,262.85,1
2594,40.59,50.89,-95.2,1
2595,40.6,95.34,-408.07,1
2596,40.61,3.84,-5.79,1
2597,40.63,-4.76,151.17,1
2598,40.64,73.44,-22.31,1
2599,40.65,289.86,297.31,1
2600,40.67,145.13,-376.3,1
2601,40.68,148.91,323.9,1
2602,40.69,85.3,-137.09,1
2603,40.71,61.17,-262.69,1
2604,40.72,8.63,-30.95,1
2605,40.73,-13.34,-130.47,1
2606,40.75,-184.07,206.51,1
2607,40.76,-59.92,178.81,1
2608,40.77,-21.59,197.28,1
2609,40.79,203.83,-79.29,1
2610,40.8,-197.28,4.44,1
2611,40.81,-104.58,69.15,1
2612,40.83,-235.62,-98.0,1
2613,40.84,124.41,193.92,1
2614,40.85,1.61,17.89,1
2615,40.87,-110.14,-55.75,1
2616,40.88,-260.27,433.85,1
2617,40.89,-127.58,0.26,1
2618,40.9,48.02,-9.57,1
2619,40.92,-232.54,-5.35,1
2620,40.93,-1.96,41.12,1
2621,40.95,149.97,-389.33,1
2622,40.96,248.53,-116.77,1
2623,40.97,-131.0,233.86,1
2624,40.99,152.52,106.02,1
2625,41.0,53.18,82.7,1
2626,41.01,-89.38,-40.69,1
2627,41.03,-218.83,-266.45,1
2628,41.04,93.36,-131.29,1
2629,41.05,-307.72,-488.41,1
2630,41.06,49.79,-304.38,1
2631,41.08,-222.08,-381.82,1
2632,41.09,197.88,-84.68,1
2633,41.11,65.87,-181.26,1
2634,41.12,-89.47,-137.57,1
2635,41.13,103.23,-126.9,1
2636,41.15,32.66,-149.66,1
2637,41.16,95.48,-148.5,1
2638,41.17,71.09,-27.33,1
2639,41.19,73.99,0.21,1
2640,41.2,45.67,48.22,1
2641,41.21,96.54,85.37,1
2642,41.23,49.49,72.89,1
2643,41.24,55.57,116.42,1
2644,41.25,38.25,100.18,1
2645,41.27,49.92,119.58,1
2646,41.28,29.42,152.23,1
2647,41.29,5.56,122.75,1
2648,41.31,46.66,144.5,1
2649,41.32,12.23,179.37,1
2650,41.33,4.68,203.77,1
2651,41.35,16.96,187.25,1
2652,41.36,24.98,194.09,1
2653,41.37,40.57,172.45,1
2654,41.38,15.07,135.2,1
2655,41.4,11.4,123.29,1
2656,41.41,27.01,125.16,1
2657,41.43,9.22,98.08,1
2658,41.44,-3.07,70.42,1
2659,41.45,6.07,35.15,1
2660,41.47,15.79,26.32,1
2661,41.48,-2.63,2.44,1
2662,41.49,-16.66,-5.44,1
2663,41.51,-5.0,-15.85,1
2664,41.52,8.46,-28.74,1
2665,41.53,-7.66,-24.6,1
2666,41.54,-34.66,-16.35,1
2667,41.56,-32.0,-31.77,1
2668,41.57,-6.89,-4.29,1
2669,41.59,-15.57,-35.62,1
2670,41.6,-34.99,-60.39,1
2671,41.61,-36.15,-39.24,1
2672,41.63,-21.24,-42.06,1
2673,41.64,-26.54,-57.23,1
2674,41.65,-35.01,-53.58,1
2675,41.67,-33.49,-70.1,1
2676,41.68,-16.19,-91.46,1
2677,41.69,-38.52,-83.23,1
2678,41.71,-28.69,-66.01,1
2679,41.72,6.69,-42.35,1
2680,41.73,-12.72,-47.88,1
2681,41.75,-24.13,-44.46,1
2682,41.76,-25.28,-53.45,1
2683,41.77,-8.02,-36.38,1
2684,41.79,-21.07,-45.64,1
2685,41.8,-10.42,-51.07,1
2686,41.81,-12.95,-15.73,1
2687,41.83,5.0,-37.01,1
2688,41.84,-6.74,-35.46,1
2689,41.85,-5.08,-20.11,1
2690,41.87,-7.07,-20.93,1
2691,41.88,7.52,-6.14,1
2692,41.89,-7.42,-9.85,1
2693,41.91,-9.62,-32.14,1
2694,41.92,-2.6,-15.45,1
2695,41.93,-2.35,7.65,1
2696,41.95,-15.77,9.61,1
2697,41.96,-8.35,-8.76,1
2698,41.97,-5.82,-7.35,1
2699,41.99,27.69,-3.25,1
2700,42.0,10.26,6.04,1
2701,42.01,-11.24,-5.13,1
2702,42.03,-5.7,-1.94,1
2703,42.04,24.35,16.19,1
2704,42.05,-1.14,19.07,1
2705,42.06,-34.16,5.3,1
2706,42.08,-32.15,13.07,1
2707,42.09,-8.25,0.95,1
2708,42.11,27.85,5.56,1
2709,42.12,7.84,17.78,1
2710,42.13,60.69,63.94,1
2711,42.15,27.67,89.9,1
2712,42.16,22.85,160.47,1
2713,42.17,24.59,288.42,1
2714,42.19,17.18,342.46,1
2715,42.2,-99.24,171.83,1
2716,42.21,-8.42,-11.06,1
2717,42.22,43.41,-28.0,1
2718,42.24,303.46,11.83,1
2719,42.25,26.4,-246.08,1
2720,42.27,244.45,136.23,1
2721,42.28,118.08,-124.64,1
2722,42.29,56.26,-127.92,1
2723,42.31,99.4,-277.73,1
2724,42.32,19.95,-396.67,1
2725,42.33,-77.94,-76.49,1
2726,42.35,142.91,-238.38,1
2727,42.36,-235.45,1.61,1
2728,42.37,51.51,19.41,1
2729,42.38,-218.42,-183.4,1
2730,42.4,-21.53,-255.16,1
2731,42.41,-161.77,345.3,1
2732,42.43,43.92,-43.95,1
2733,42.44,-233.15,-470.41,1
2734,42.45,-213.21,-56.47,1
2735,42.47,-121.88,-13.64,1
2736,42.48,-138.58,-264.68,1
2737,42.49,-72.8,34.45,1
2738,42.51,-167.45,-121.17,1
2739,42.52,-76.03,-139.21,1
2740,42.53,-317.4,287.15,1
2741,42.55,314.19,408.02,1
2742,42.56,-267.16,196.7,1
2743,42.57,9.67,-132.11,1
2744,42.59,110.27,317.04,1
2745,42.6,65.43,143.0,1
2746,42.61,51.56,-34.07,1
2747,42.63,-20.34,241.1,1
2748,42.64,70.82,-76.91,1
2749,42.65,110.92,211.6,1
2750,42.67,361.64,586.45,1
2751,42.68,133.0,-2.4,1
2752,42.69,183.74,55.13,1
2753,42.71,-139.6,548.79,1
2754,42.72,323.88,284.51,1
2755,42.73,-122.15,-49.03,1
2756,42.75,-76.39,-354.7,1
2757,42.76,221.76,-43.58,1
2758,42.77,-219.35,252.0,1
2759,42.79,48.98,-31.99,1
2760,42.8,-87.52,-64.48,1
2761,42.81,16.23,-400.76,1
2762,42.83,-170.17,-229.71,1
2763,42.84,176.76,290.46,1
2764,42.85,73.96,320.89,1
2765,42.87,-176.61,142.61,1
2766,42.88,159.79,-197.49,1
2767,42.89,-141.03,-463.04,1
2768,42.9,-128.75,-90.15,1
2769,42.92,-122.35,-226.0,1
2770,42.93,-125.97,132.41,1
2771,42.95,189.56,-171.83,1
2772,42.96,-255.74,-57.15,1
2773,42.97,165.06,-157.12,1
2774,42.99,-340.85,116.62,1
2775,43.0,-86.18,-43.54,1
2776,43.01,161.62,-354.75,1
2777,43.03,35.47,188.16,1
2778,43.04,281.83,58.79,1
2779,43.05,-8.61,-180.19,1
2780,43.06,132.53,18.79,1
2781,43.08,-119.47,-104.87,1
2782,43.09,149.86,-76.39,1
2783,43.11,70.36,-120.94,1
2784,43.12,157.75,-50.7,1
2785,43.13,82.45,-11.14,1
2786,43.15,115.16,33.14,1
2787,43.16,66.89,41.9,1
2788,43.17,75.41,70.96,1
2789,43.19,52.82,72.63,1
2790,43.2,77.5,56.17,1
2791,43.21,80.22,85.65,1
2792,43.23,62.09,72.81,1
2793,43.24,37.28,61.59,1
2794,43.25,32.4,51.88,1
2795,43.27,42.81,52.09,1
2796,43.28,21.8,59.55,1
2797,43.29,1.11,76.01,1
2798,43.31,12.41,59.77,1
2799,43.32,5.76,61.64,1
2800,43.33,-24.15,38.28,1
2801,43.35,-38.6,49.84,1
2802,43.36,-40.33,23.42,1
2803,43.37,-42.73,20.75,1
2804,43.38,-59.18,-9.16,1
2805,43.4,-60.41,-20.97,1
2806,43.41,-69.54,8.3,1
2807,43.43,-36.62,-16.13,1
2808,43.44,-52.22,-31.17,1
2809,43.45,-71.44,-9.79,1
2810,43.47,-71.39,-30.11,1
2811,43.48,-102.93,-41.94,1
2812,43.49,-117.79,-11.18,1
2813,43.51,-98.91,-36.4,1
2814,43.52,-67.62,-31.2,1
2815,43.53,-59.21,-51.33,1
2816,43.54,-38.43,-16.42,1
2817,43.56,-41.23,-33.48,1
2818,43.57,-21.8,-48.63,1
2819,43.59,-45.23,-43.43,1
2820,43.6,-32.91,-41.42,1
2821,43.61,-25.23,-33.41,1
2822,43.63,-14.81,-4.05,1
2823,43.64,-26.63,-24.46,1
2824,43.65,-27.85,-12.97,1
2825,43.67,-41.73,-12.63,1
2826,43.68,8.97,-33.96,1
2827,43.69,-15.3,-14.06,1
2828,43.71,-18.33,-14.95,1
2829,43.72,-31.7,-3.96,1
2830,43.73,6.83,-22.97,1
2831,43.75,1.06,-29.05,1
2832,43.76,-2.63,-0.42,1
2833,43.77,0.66,-14.86,1
2834,43.79,22.43,9.71,1
2835,43.8,0.54,12.75,1
2836,43.81,23.21,3.01,1
2837,43.83,5.71,-3.77,1
2838,43.84,32.57,1.98,1
2839,43.85,10.54,8.99,1
2840,43.87,12.97,7.16,1
2841,43.88,5.22,3.84,1
2842,43.89,32.77,3.9,1
2843,43.91,11.91,-0.8,1
2844,43.92,20.35,14.47,1
2845,43.93,19.42,1.41,1
2846,43.95,46.51,14.27,1
2847,43.96,39.45,14.04,1
2848,43.97,20.25,14.19,1
2849,43.99,24.98,7.19,1
2850,44.0,21.65,9.33,1
2851,44.01,20.06,14.27,1
2852,44.03,20.68,22.18,1
2853,44.04,44.94,30.28,1
2854,44.05,4.04,27.96,1
2855,44.06,-29.52,34.91,1
2856,44.08,-6.17,26.97,1
2857,44.09,32.45,26.43,1
2858,44.11,-0.42,60.87,1
2859,44.12,9.33,77.15,1
2860,44.13,20.5,246.4,1
2861,44.15,51.11,389.18,1
2862,44.16,79.24,58.87,1
2863,44.17,50.16,-105.87,1
2864,44.19,-116.19,287.53,1
2865,44.2,96.07,13.59,1
2866,44.21,74.57,4.04,1
2867,44.22,171.3,-23.91,1
2868,44.24,-156.24,-147.78,1
2869,44.25,-31.3,-454.37,1
2870,44.27,30.51,-420.57,1
2871,44.28,-30.03,-158.38,1
2872,44.29,125.46,-315.49,1
2873,44.31,-205.36,-329.62,1
2874,44.32,238.58,-82.74,1
2875,44.33,142.39,252.47,1
2876,44.35,181.23,-160.65,1
2877,44.36,-416.58,461.85,1
2878,44.37,-51.04,-28.93,1
2879,44.385000000000005,-400.24,-388.37,1
2880,44.4,-112.57,-198.79,1
2881,44.41,4.58,-176.15,1
2882,44.43,128.82,-4.82,1
2883,44.44,-38.35,270.94,1
2884,44.45,206.09,-91.55,1
2885,44.47,-109.24,331.92,1
2886,44.48,276.55,-160.98,1
2887,44.49,-196.26,187.59,1
2888,44.51,222.35,-309.54,1
2889,44.52,19.07,-32.98,1
2890,44.53,-68.59,148.54,1
2891,44.55,22.78,257.26,1
2892,44.56,272.6,-40.16,1
2893,44.57,-37.65,400.02,1
2894,44.59,-190.21,61.71,1
2895,44.6,-8.51,-240.94,1
2896,44.61,74.46,89.15,1
2897,44.63,72.18,156.83,1
2898,44.64,45.23,192.75,1
2899,44.65,-104.27,178.81,1
2900,44.67,63.26,87.06,1
2901,44.68,-164.14,-208.14,1
2902,44.69,-160.36,120.23,1
2903,44.71,32.88,19.7,1
2904,44.72,-58.71,21.56,1
2905,44.73,48.29,-187.41,1
2906,44.75,-242.48,274.64,1
2907,44.76,-167.51,248.67,1
2908,44.77,11.55,333.43,1
2909,44.79,-111.7,-168.89,1
2910,44.8,-128.78,-244.85,1
2911,44.81,144.43,238.84,1
2912,44.83,-65.98,158.46,1
2913,44.84,-98.18,47.73,1
2914,44.85,133.72,139.29,1
2915,44.87,-86.7,-477.48,1
2916,44.88,136.17,-121.46,1
2917,44.89,62.49,-74.68,1
2918,44.9,148.77,-11.9,1
2919,44.92,-120.94,297.19,1
2920,44.93,-128.14,-174.35,1
2921,44.95,-128.32,-172.57,1
2922,44.96,1.66,39.45,1
2923,44.97,336.48,11.59,1
2924,44.99,-54.39,437.82,1
2925,45.0,-20.11,225.81,1
2926,45.01,300.29,112.3,1
2927,45.03,-121.66,-237.45,1
2928,45.04,50.84,-298.36,1
2929,45.05,-368.4,-227.06,1
2930,45.07,-183.15,-218.46,1
2931,45.08,168.25,-272.08,1
2932,45.09,-92.84,-274.54,1
2933,45.11,-7.41,-206.34,1
2934,45.12,-68.63,-236.56,1
2935,45.13,-47.28,-142.37,1
2936,45.15,-86.06,-134.85,1
2937,45.16,-29.93,-42.34,1
2938,45.17,24.13,-35.94,1
2939,45.19,61.66,-61.61,1
2940,45.2,115.98,-28.31,1
2941,45.21,160.91,24.6,1
2942,45.22,205.68,69.74,1
2943,45.24,237.29,99.53,1
2944,45.25,232.95,87.2,1
2945,45.27,211.25,92.09,1
2946,45.28,215.11,105.29,1
2947,45.29,177.6,116.33,1
2948,45.31,148.81,108.15,1
2949,45.32,109.79,125.36,1
2950,45.33,91.36,126.94,1
2951,45.35,75.54,106.36,1
2952,45.36,44.84,101.66,1
2953,45.37,43.59,94.24,1
2954,45.38,26.96,65.52,1
2955,45.4,0.37,52.75,1
2956,45.41,-47.43,65.03,1
2957,45.43,-44.79,41.33,1
2958,45.44,-39.17,37.5,1
2959,45.45,-70.12,-1.0,1
2960,45.47,-73.94,27.26,1
2961,45.48,-77.88,8.93,1
2962,45.49,-105.32,7.05,1
2963,45.51,-104.3,-9.95,1
2964,45.52,-126.3,-21.06,1
2965,45.53,-137.11,-18.18,1
2966,45.54,-121.37,-27.06,1
2967,45.56,-102.87,-7.58,1
2968,45.57,-96.23,-9.38,1
2969,45.59,-75.4,-21.29,1
2970,45.6,-80.51,-6.38,1
2971,45.61,-82.98,-8.56,1
2972,45.63,-82.41,-0.62,1
2973,45.64,-55.78,-24.87,1
2974,45.65,-62.18,-35.67,1
2975,45.67,-45.75,-23.41,1
2976,45.68,-81.17,-27.37,1
2977,45.69,-54.54,-23.98,1
2978,45.71,-48.89,-35.63,1
2979,45.72,-39.07,-37.98,1
2980,45.73,-51.06,-3.97,1
2981,45.75,-31.74,-26.09,1
2982,45.76,-36.44,-28.38,1
2983,45.77,-39.41,-25.75,1
2984,45.79,-18.54,-19.57,1
2985,45.8,-4.46,-8.15,1
2986,45.81,-15.95,-28.99,1
2987,45.83,-5.24,-44.49,1
2988,45.84,14.07,-32.68,1
2989,45.85,17.61,-21.16,1
2990,45.87,4.23,-12.42,1
2991,45.88,5.76,-14.62,1
2992,45.89,28.11,15.46,1
2993,45.9,28.72,11.44,1
2994,45.92,27.95,-7.31,1
2995,45.93,25.37,-14.87,1
2996,45.95,26.81,6.19,1
2997,45.96,21.67,24.57,1
2998,45.97,24.27,0.93,1
2999,45.99,29.23,-1.36,1
3000,46.0,51.36,-10.97,1
3001,46.01,24.21,23.25,1
3002,46.03,24.56,9.13,1
3003,46.04,39.89,2.44,1
3004,46.05,50.14,5.52,1
3005,46.06,-33.62,12.26,1
3006,46.08,8.88,2.38,1
3007,46.09,31.21,17.07,1
3008,46.11,12.66,13.27,1
3009,46.12,70.86,14.77,1
3010,46.13,35.01,22.6,1
3011,46.15,16.55,14.34,1
3012,46.16,90.38,-8.05,1
3013,46.17,26.27,101.35,1
3014,46.19,38.61,313.54,1
3015,46.2,96.35,224.96,1
3016,46.21,46.19,88.29,1
3017,46.22,128.55,243.51,1
3018,46.24,59.15,14.09,1
3019,46.25,-54.1,160.47,1
3020,46.27,71.41,82.04,1
3021,46.28,68.76,-8.69,1
3022,46.29,231.9,-144.54,1
3023,46.31,-144.68,56.63,1
3024,46.32,-78.46,-95.16,1
3025,46.33,-357.42,-52.49,1
3026,46.35,195.61,-317.06,1
3027,46.36,-311.35,-666.1,1
3028,46.37,412.97,-306.96,1
3029,46.39,-13.24,-190.18,1
3030,46.4,307.9,-278.89,1
3031,46.41,-86.96,136.82,1
3032,46.43,-74.92,-165.68,1
3033,46.44,-68.87,-532.88,1
3034,46.45,-93.43,105.68,1
3035,46.47,181.63,-94.55,1
3036,46.48,-62.37,-399.5,1
3037,46.49,-216.54,-10.11,1
3038,46.51,3.88,-260.17,1
3039,46.52,-200.96,58.28,1
3040,46.53,-48.18,33.78,1
3041,46.54,-3.27,2.56,1
3042,46.56,121.52,109.85,1
3043,46.57,68.6,98.49,1
3044,46.59,-249.82,140.52,1
3045,46.6,-180.8,-20.72,1
3046,46.61,-51.6,299.34,1
3047,46.63,85.56,386.43,1
3048,46.64,-381.74,671.28,1
3049,46.65,64.77,61.09,1
3050,46.67,-31.1,40.84,1
3051,46.68,-314.45,228.37,1
3052,46.69,117.45,487.69,1
3053,46.71,117.61,224.92,1
3054,46.72,93.6,194.09,1
3055,46.73,43.49,-331.0,1
3056,46.75,-121.69,-90.09,1
3057,46.76,26.13,47.35,1
3058,46.77,204.53,-150.48,1
3059,46.79,17.11,178.96,1
3060,46.8,255.57,-56.47,1
3061,46.81,-131.27,-78.63,1
3062,46.83,269.53,-65.87,1
3063,46.84,-272.08,103.33,1
3064,46.85,-140.48,-101.71,1
3065,46.87,-311.64,211.91,1
3066,46.88,-153.11,549.12,1
3067,46.89,-259.34,577.63,1
3068,46.9,204.29,338.25,1
3069,46.92,-114.05,30.95,1
3070,46.93,-115.4,-70.0,1
3071,46.95,61.74,-335.68,1
3072,46.96,151.59,-337.06,1
3073,46.97,71.01,185.68,1
3074,46.99,344.0,-65.52,1
3075,47.0,213.33,-149.12,1
3076,47.01,347.0,236.17,1
3077,47.03,128.64,-257.47,1
3078,47.04,129.18,8.09,1
3079,47.05,135.87,-319.35,1
3080,47.07,-143.02,-281.13,1
3081,47.08,-151.74,-307.84,1
3082,47.09,280.49,-64.66,1
3083,47.11,277.18,-124.17,1
3084,47.12,74.49,-192.82,1
3085,47.13,70.05,-178.25,1
3086,47.15,23.98,-224.65,1
3087,47.16,-88.16,-197.43,1
3088,47.17,-34.28,-209.26,1
3089,47.19,-15.83,-171.19,1
3090,47.2,-33.18,-111.36,1
3091,47.21,-37.78,-67.62,1
3092,47.22,-45.8,-44.02,1
3093,47.24,-38.3,-28.19,1
3094,47.25,-55.05,20.5,1
3095,47.27,-49.88,22.16,1
3096,47.28,-43.9,31.47,1
3097,47.29,-32.88,62.56,1
3098,47.31,-34.59,48.2,1
3099,47.32,-26.23,58.67,1
3100,47.33,-28.33,53.98,1
3101,47.35,-42.95,70.97,1
3102,47.36,-38.93,94.81,1
3103,47.37,-38.0,105.1,1
3104,47.38,-23.03,112.98,1
3105,47.4,-19.74,111.78,1
3106,47.41,-23.29,112.68,1
3107,47.43,-33.51,93.29,1
3108,47.44,-21.8,84.74,1
3109,47.45,-49.42,79.86,1
3110,47.47,-15.79,61.92,1
3111,47.48,-30.76,27.59,1
3112,47.49,-13.78,-14.26,1
3113,47.51,-37.45,-6.07,1
3114,47.52,-41.27,21.65,1
3115,47.53,-31.75,34.06,1
3116,47.54,-12.39,50.59,1
3117,47.56,-24.16,44.96,1
3118,47.57,-23.65,40.89,1
3119,47.59,-34.98,20.3,1
3120,47.6,-4.45,38.08,1
3121,47.61,-8.65,13.33,1
3122,47.63,-17.26,0.79,1
3123,47.64,-18.79,1.61,1
3124,47.65,-2.41,21.82,1
3125,47.67,8.0,-13.0,1
3126,47.68,-6.77,-6.85,1
3127,47.69,-2.04,-21.47,1
3128,47.71,1.51,6.64,1
3129,47.72,-8.03,-0.83,1
3130,47.73,-3.99,-16.84,1
3131,47.75,-0.34,-36.56,1
3132,47.76,-1.53,-21.59,1
3133,47.77,-3.66,-43.53,1
3134,47.79,-5.15,-37.13,1
3135,47.8,26.22,-38.04,1
3136,47.81,13.84,-34.47,1
3137,47.83,2.81,-24.21,1
3138,47.84,-8.1,-33.82,1
3139,47.85,21.5,-29.97,1
3140,47.87,22.32,-39.43,1
3141,47.88,7.81,-40.34,1
3142,47.89,3.2,-32.04,1
3143,47.9,28.72,-20.54,1
3144,47.92,16.05,-24.1,1
3145,47.93,25.07,-17.55,1
3146,47.95,1.91,7.47,1
3147,47.96,17.94,-3.92,1
3148,47.97,3.25,-5.34,1
3149,47.99,-0.85,-7.52,1
3150,48.0,3.27,-10.76,1
3151,48.01,26.02,2.62,1
3152,48.03,20.14,-10.86,1
3153,48.04,15.95,13.88,1
3154,48.05,5.93,18.26,1
3155,48.06,-67.22,1.31,1
3156,48.08,18.26,-4.61,1
3157,48.09,-20.41,4.13,1
3158,48.11,13.66,8.4,1
3159,48.12,27.79,17.77,1
3160,48.13,-5.64,18.25,1
3161,48.15,30.26,58.98,1
3162,48.16,47.22,121.87,1
3163,48.17,10.65,185.11,1
3164,48.19,10.86,251.22,1
3165,48.2,-12.49,52.23,1
3166,48.21,236.84,-33.41,1
3167,48.22,267.98,169.94,1
3168,48.24,-6.4,-278.36,1
3169,48.25,58.41,-166.96,1
3170,48.27,-149.03,-91.83,1
3171,48.28,-31.01,332.85,1
3172,48.29,222.21,45.74,1
3173,48.31,-69.62,40.27,1
3174,48.32,17.17,-260.28,1
3175,48.33,116.23,-397.45,1
3176,48.35,-106.34,-0.29,1
3177,48.36,-397.43,-273.34,1
3178,48.37,-22.28,-370.58,1
3179,48.39,-263.41,61.72,1
3180,48.4,-88.82,358.79,1
3181,48.41,-21.55,55.87,1
3182,48.43,59.23,8.26,1
3183,48.44,-231.09,161.46,1
3184,48.45,-27.52,-353.21,1
3185,48.47,-191.21,-178.14,1
3186,48.48,31.43,-164.11,1
3187,48.49,-60.65,6.28,1
3188,48.51,175.71,-96.76,1
3189,48.52,35.57,-34.04,1
3190,48.53,84.68,128.3,1
3191,48.54,52.42,292.73,1
3192,48.56,1.58,163.93,1
3193,48.57,246.77,-30.12,1
3194,48.59,-247.43,99.37,1
3195,48.6,205.53,-257.9,1
3196,48.61,-142.59,-94.28,1
3197,48.63,-4.92,-58.8,1
3198,48.64,69.15,119.46,1
3199,48.65,-257.17,-12.24,1
3200,48.67,-19.06,-330.15,1
3201,48.68,288.14,52.34,1
3202,48.69,-159.24,323.38,1
3203,48.71,18.25,231.96,1
3204,48.72,-155.49,215.19,1
3205,48.73,44.26,549.16,1
3206,48.75,84.74,-47.06,1
3207,48.76,-169.08,49.55,1
3208,48.77,250.35,-209.96,1
3209,48.79,42.16,309.87,1
3210,48.8,29.59,101.1,1
3211,48.81,-20.13,507.11,1
3212,48.83,-55.7,196.3,1
3213,48.84,83.52,81.97,1
3214,48.85,-74.88,111.32,1
3215,48.87,68.14,-329.21,1
3216,48.88,-85.99,242.56,1
3217,48.89,45.49,-320.85,1
3218,48.9,75.96,-516.46,1
3219,48.92,75.55,69.19,1
3220,48.93,267.68,105.75,1
3221,48.95,117.98,-253.16,1
3222,48.96,89.99,-173.43,1
3223,48.97,174.87,-200.07,1
3224,48.99,-151.31,-179.88,1
3225,49.0,-6.55,-206.33,1
3226,49.01,-42.61,-202.76,1
3227,49.03,-15.09,-148.81,1
3228,49.04,-11.83,-78.5,1
3229,49.05,-17.85,-38.83,1
3230,49.06,-3.74,-25.08,1
3231,49.08,10.73,-24.12,1
3232,49.09,23.54,20.23,1
3233,49.11,-2.92,27.4,1
3234,49.12,-3.03,60.91,1
3235,49.13,-30.23,46.74,1
3236,49.15,-35.02,61.79,1
3237,49.16,-24.22,59.08,1
3238,49.17,-23.91,90.81,1
3239,49.19,-27.07,93.64,1
3240,49.2,-14.66,103.57,1
3241,49.21,-39.06,112.86,1
3242,49.22,-28.07,104.97,1
3243,49.24,-1.33,84.13,1
3244,49.25,-15.13,84.87,1
3245,49.27,-30.1,92.68,1
3246,49.28,-12.28,70.35,1
3247,49.29,-6.56,40.66,1
3248,49.31,-8.22,13.11,1
3249,49.32,-11.75,15.85,1
3250,49.33,-32.34,-12.64,1
3251,49.35,-9.02,16.09,1
3252,49.36,-8.74,-5.19,1
3253,49.37,-19.97,-4.67,1
3254,49.38,-30.15,-16.56,1
3255,49.4,-3.67,-29.62,1
3256,49.41,-38.3,-29.41,1
3257,49.43,-28.86,-37.33,1
3258,49.44,-22.46,-46.75,1
3259,49.45,9.7,-55.86,1
3260,49.47,-8.99,-40.96,1
3261,49.48,-11.88,-38.46,1
3262,49.49,-20.97,-63.31,1
3263,49.51,12.45,-23.24,1
3264,49.52,-6.86,-47.27,1
3265,49.53,-8.95,-44.59,1
3266,49.54,-25.66,-23.63,1
3267,49.56,0.23,-24.44,1
3268,49.57,-3.66,-30.34,1
3269,49.59,-6.97,-40.22,1
3270,49.6,-0.71,-36.38,1
3271,49.61,-5.72,-9.31,1
3272,49.63,-8.24,-13.32,1
3273,49.64,5.06,-29.04,1
3274,49.65,1.82,-20.27,1
3275,49.67,4.53,-15.71,1
3276,49.68,-7.7,-20.65,1
3277,49.69,-7.39,-19.19,1
3278,49.71,21.93,21.09,1
3279,49.72,9.75,-7.3,1
3280,49.73,3.45,-4.35,1
3281,49.75,-10.52,-5.32,1
3282,49.76,15.15,15.23,1
3283,49.77,10.45,9.21,1
3284,49.79,10.81,4.3,1
3285,49.8,-0.38,4.73,1
3286,49.81,30.77,19.87,1
3287,49.83,12.07,4.91,1
3288,49.84,6.28,15.45,1
3289,49.85,2.01,-3.68,1
3290,49.87,21.24,-9.93,1
3291,49.88,-1.93,2.1,1
3292,49.89,3.3,19.64,1
3293,49.9,20.7,10.47,1
3294,49.92,21.86,20.3,1
3295,49.93,-6.11,9.63,1
3296,49.95,-4.53,10.91,1
3297,49.96,2.88,15.52,1
3298,49.97,23.62,-7.3,1
3299,49.99,-1.4,17.08,1
3300,50.0,8.55,5.58,1
3301,50.01,20.81,17.08,1
3302,50.03,15.88,12.21,1
3303,50.04,18.09,15.56,1
3304,50.05,1.83,22.21,1
3305,50.06,-24.52,-2.63,1
3306,50.08,-23.04,42.33,1
3307,50.09,-33.03,20.72,1
3308,50.11,9.83,10.79,1
3309,50.12,31.17,57.87,1
3310,50.13,16.63,148.1,1
3311,50.15,28.66,132.68,1
3312,50.16,4.45,62.14,1
3313,50.17,18.02,45.46,1
3314,50.19,67.93,333.59,1
3315,50.2,-213.11,195.8,1
3316,50.21,-252.25,84.79,1
3317,50.22,134.64,5.52,1
3318,50.24,306.2,-187.38,1
3319,50.25,-42.42,119.26,1
3320,50.27,133.87,-135.29,1
3321,50.28,-35.98,-13.39,1
3322,50.29,277.18,-297.53,1
3323,50.31,74.89,-128.95,1
3324,50.32,-156.12,-325.19,1
3325,50.33,-193.37,54.61,1
3326,50.35,29.83,-224.25,1
3327,50.36,-107.36,-182.63,1
3328,50.37,197.83,57.36,1
3329,50.38,158.65,-485.55,1
3330,50.4,-37.78,-399.5,1
3331,50.41,0.24,-324.42,1
3332,50.43,24.9,-187.25,1
3333,50.44,-251.7,52.28,1
3334,50.45,-51.4,-297.49,1
3335,50.47,-260.4,271.36,1
3336,50.48,79.15,-165.34,1
3337,50.49,25.26,-56.72,1
3338,50.51,-65.18,5.72,1
3339,50.52,-38.72,100.59,1
3340,50.53,-176.37,-92.12,1
3341,50.54,-111.53,293.71,1
3342,50.56,-125.49,265.79,1
3343,50.57,-135.37,221.22,1
3344,50.59,27.32,540.7,1
3345,50.6,-5.22,339.13,1
3346,50.61,-108.0,306.46,1
3347,50.63,-202.38,-106.07,1
3348,50.64,80.81,96.5,1
3349,50.65,31.63,147.44,1
3350,50.67,63.73,474.84,1
3351,50.68,-174.22,86.09,1
3352,50.69,146.35,31.59,1
3353,50.71,236.45,69.74,1
3354,50.72,153.47,-135.79,1
3355,50.73,291.41,245.49,1
3356,50.75,290.18,417.93,1
3357,50.76,23.84,83.15,1
3358,50.77,-9.58,78.14,1
3359,50.79,295.71,94.03,1
3360,50.8,-32.9,-326.54,1
3361,50.81,75.66,139.05,1
3362,50.83,-40.72,113.61,1
3363,50.84,-276.25,-262.59,1
3364,50.85,-161.19,-580.59,1
3365,50.87,-49.17,-266.71,1
3366,50.88,-95.3,-245.59,1
3367,50.89,228.27,-313.14,1
3368,50.91,-46.32,-191.59,1
3369,50.92,64.66,-246.15,1
3370,50.93,133.73,-31.17,1
3371,50.95,65.27,-154.52,1
3372,50.96,87.34,-130.5,1
3373,50.97,35.84,-93.77,1
3374,50.99,59.52,7.7,1
3375,51.0,65.27,20.35,1
3376,51.01,27.52,38.83,1
3377,51.03,-12.68,44.91,1
3378,51.04,-27.12,58.1,1
3379,51.05,-24.66,73.21,1
3380,51.06,-36.35,90.72,1
3381,51.08,-68.53,79.21,1
3382,51.09,-50.18,78.03,1
3383,51.11,-76.87,85.0,1
3384,51.12,-73.56,99.55,1
3385,51.13,-60.48,91.11,1
3386,51.15,-38.97,106.73,1
3387,51.16,-54.71,74.57,1
3388,51.17,-63.03,65.48,1
3389,51.19,-61.4,56.47,1
3390,51.2,-38.28,27.46,1
3391,51.21,-30.77,23.81,1
3392,51.22,-40.52,31.17,1
3393,51.24,-41.39,14.96,1
3394,51.25,-0.87,-12.68,1
3395,51.27,-26.22,-7.21,1
3396,51.28,-13.46,-10.1,1
3397,51.29,-24.64,-23.67,1
3398,51.31,-1.17,-22.05,1
3399,51.32,-13.87,-38.84,1
3400,51.33,-9.7,-28.66,1
3401,51.35,-3.18,-40.14,1
3402,51.36,9.42,-15.83,1
3403,51.37,-7.05,-24.03,1
3404,51.38,2.82,-21.88,1
3405,51.4,-4.67,-17.2,1
3406,51.41,15.91,-23.35,1
3407,51.43,4.29,-29.46,1
3408,51.44,-10.47,-33.98,1
3409,51.45,3.39,-25.96,1
3410,51.47,24.78,-14.02,1
3411,51.48,10.57,-20.11,1
3412,51.49,9.49,-2.75,1
3413,51.51,11.42,-23.33,1
3414,51.52,4.27,-38.26,1
3415,51.53,11.28,-41.1,1
3416,51.55,-1.42,-2.13,1
3417,51.56,37.73,-17.83,1
3418,51.57,9.32,-16.09,1
3419,51.59,8.1,-15.54,1
3420,51.6,-11.42,-3.99,1
3421,51.61,25.65,-14.57,1
3422,51.63,15.86,-21.61,1
3423,51.64,12.02,1.32,1
3424,51.65,6.88,-0.68,1
3425,51.67,19.41,11.4,1
3426,51.68,27.99,-6.88,1
3427,51.69,27.58,-4.31,1
3428,51.71,-9.32,7.85,1
3429,51.72,18.79,-15.14,1
3430,51.73,23.92,-10.89,1
3431,51.75,2.62,-15.5,1
3432,51.76,13.45,7.86,1
3433,51.77,15.5,8.91,1
3434,51.79,4.73,28.33,1
3435,51.8,-10.91,2.56,1
3436,51.81,-0.03,38.2,1
3437,51.83,9.14,9.6,1
3438,51.84,-13.68,22.66,1
3439,51.85,-4.11,18.92,1
3440,51.87,4.09,16.68,1
3441,51.88,11.93,23.05,1
3442,51.89,7.79,38.22,1
3443,51.9,-4.84,16.22,1
3444,51.92,11.26,19.8,1
3445,51.93,4.36,16.79,1
3446,51.95,-5.96,17.53,1
3447,51.96,-12.77,6.89,1
3448,51.97,20.47,2.32,1
3449,51.99,-3.14,13.25,1
3450,52.0,-12.4,22.35,1
3451,52.01,-16.67,11.32,1
3452,52.03,7.04,17.77,1
3453,52.04,12.87,-9.11,1
3454,52.05,-6.08,12.93,1
3455,52.06,-13.0,43.49,1
3456,52.08,-18.75,-54.23,1
3457,52.09,-19.36,-31.73,1
3458,52.11,1.26,351.38,1
3459,52.12,-48.23,346.5,1
3460,52.13,-77.78,164.8,1
3461,52.15,-105.98,-63.98,1
3462,52.16,61.0,-115.88,1
3463,52.17,238.65,-17.35,1
3464,52.19,21.33,56.85,1
3465,52.2,325.58,-70.87,1
3466,52.21,69.08,167.31,1
3467,52.23,-198.16,0.97,1
3468,52.24,26.43,52.36,1
3469,52.25,20.22,-247.15,1
3470,52.27,-365.09,-625.85,1
3471,52.28,154.36,-425.25,1
3472,52.29,-456.09,-213.65,1
3473,52.31,79.19,-270.35,1
3474,52.32,-250.58,-270.35,1
3475,52.33,44.58,264.99,1
3476,52.35,120.95,-41.48,1
3477,52.36,-31.91,-24.76,1
3478,52.37,162.95,143.13,1
3479,52.38,-270.13,18.2,1
3480,52.4,-123.14,-11.19,1
3481,52.41,166.0,223.95,1
3482,52.43,82.6,-471.05,1
3483,52.44,152.43,-74.62,1
3484,52.45,258.86,224.96,1
3485,52.47,-23.34,-96.05,1
3486,52.48,-193.36,458.72,1
3487,52.49,367.43,-36.11,1
3488,52.51,-20.66,401.89,1
3489,52.52,222.5,149.75,1
3490,52.53,-89.94,-41.78,1
3491,52.54,273.81,-153.42,1
3492,52.56,-18.21,-276.51,1
3493,52.57,32.6,-33.44,1
3494,52.59,-85.05,107.75,1
3495,52.6,-239.6,-64.35,1
3496,52.61,-291.46,74.34,1
3497,52.63,-7.46,339.37,1
3498,52.64,-165.94,-151.33,1
3499,52.65,-66.12,-309.23,1
3500,52.67,142.88,105.5,1
3501,52.68,22.12,236.31,1
3502,52.69,-222.09,-224.02,1
3503,52.71,132.3,229.92,1
3504,52.72,24.91,465.28,1
3505,52.73,-28.25,256.0,1
3506,52.75,-101.13,249.99,1
3507,52.76,-70.77,-221.67,1
3508,52.77,-63.4,201.68,1
3509,52.79,358.56,-96.94,1
3510,52.8,-238.83,23.22,1
3511,52.81,189.04,-49.87,1
3512,52.83,26.72,-47.41,1
3513,52.84,56.47,-79.23,1
3514,52.85,70.1,-95.49,1
3515,52.87,30.71,-125.22,1
3516,52.88,-39.7,-129.54,1
3517,52.89,-40.83,-127.47,1
3518,52.9,-42.03,-62.87,1
3519,52.92,-53.87,-69.19,1
3520,52.93,-30.87,-18.47,1
3521,52.95,-34.85,-15.67,1
3522,52.96,33.38,8.71,1
3523,52.97,26.75,67.89,1
3524,52.99,41.46,48.46,1
3525,53.0,67.29,47.78,1
3526,53.01,51.15,36.67,1
3527,53.03,43.66,51.61,1
3528,53.04,31.8,17.31,1
3529,53.05,41.93,39.54,1
3530,53.06,22.39,64.02,1
3531,53.08,59.0,79.57,1
3532,53.09,36.54,81.85,1
3533,53.11,43.79,88.68,1
3534,53.12,11.8,80.02,1
3535,53.13,-28.03,63.57,1
3536,53.15,-40.33,37.01,1
3537,53.16,-15.46,39.22,1
3538,53.17,-24.37,-11.49,1
3539,53.19,-32.08,-1.92,1
3540,53.2,-44.84,-29.27,1
3541,53.21,-27.59,-42.54,1
3542,53.22,-34.08,-30.16,1
3543,53.24,-26.01,-57.19,1
3544,53.25,-36.83,-54.71,1
3545,53.27,-14.42,-60.49,1
3546,53.28,-27.26,-52.92,1
3547,53.29,-35.79,-66.54,1
3548,53.31,-32.66,-69.12,1
3549,53.32,-0.35,-92.31,1
3550,53.33,-74.48,-70.61,1
3551,53.35,-52.94,-71.75,1
3552,53.36,-10.84,-67.29,1
3553,53.37,0.02,-80.21,1
3554,53.38,-11.16,-60.27,1
3555,53.4,-7.72,-45.4,1
3556,53.41,17.07,-47.38,1
3557,53.43,-7.45,-59.06,1
3558,53.44,-2.13,-57.51,1
3559,53.45,-0.12,-50.81,1
3560,53.47,12.68,-45.21,1
3561,53.48,3.13,-22.34,1
3562,53.49,-3.76,-12.33,1
3563,53.51,2.25,-4.54,1
3564,53.52,32.01,-24.39,1
3565,53.53,11.99,-2.4,1
3566,53.54,-0.52,-2.91,1
3567,53.56,-4.75,-1.18,1
3568,53.57,32.71,26.01,1
3569,53.59,-0.84,7.94,1
3570,53.6,15.97,4.62,1
3571,53.61,0.33,7.38,1
3572,53.63,17.58,23.91,1
3573,53.64,1.27,14.24,1
3574,53.65,3.68,1.95,1
3575,53.67,-1.11,2.13,1
3576,53.68,9.85,19.7,1
3577,53.69,-1.49,25.9,1
3578,53.71,4.83,14.0,1
3579,53.72,-1.3,31.74,1
3580,53.73,43.91,25.71,1
3581,53.75,-8.98,18.52,1
3582,53.76,4.54,13.08,1
3583,53.77,31.72,37.6,1
3584,53.79,6.69,34.5,1
3585,53.8,7.42,30.01,1
3586,53.81,-10.16,41.89,1
3587,53.83,8.68,45.3,1
3588,53.84,-1.16,35.65,1
3589,53.85,5.04,40.11,1
3590,53.87,1.56,32.23,1
3591,53.88,-6.01,30.42,1
3592,53.89,-3.87,29.86,1
3593,53.9,-1.85,10.84,1
3594,53.92,16.33,17.51,1
3595,53.93,33.18,12.22,1
3596,53.95,-1.77,11.27,1
3597,53.96,-7.69,-0.5,1
3598,53.97,-16.57,13.92,1
3599,53.99,24.89,30.07,1
3600,54.0,-5.39,23.17,1
3601,54.01,-2.06,-12.66,1
3602,54.03,-5.58,4.46,1
3603,54.04,9.38,8.63,1
3604,54.05,-2.73,-4.25,1
3605,54.06,-13.39,0.86,1
3606,54.08,-59.65,-4.11,1
3607,54.09,-6.46,35.3,1
3608,54.11,-5.89,62.91,1
3609,54.12,11.03,126.43,1
3610,54.13,34.19,303.49,1
3611,54.15,19.69,20.76,1
3612,54.16,3.16,-287.64,1
3613,54.17,66.51,136.05,1
3614,54.19,18.15,340.8,1
3615,54.2,-45.83,115.87,1
3616,54.21,201.83,-120.37,1
3617,54.22,113.74,-191.04,1
3618,54.24,29.77,-46.32,1
3619,54.25,-180.64,227.78,1
3620,54.27,55.39,73.47,1
3621,54.28,-154.73,-14.24,1
3622,54.29,104.96,-428.83,1
3623,54.31,-149.73,-584.18,1
3624,54.32,220.18,-183.88,1
3625,54.33,175.8,-308.0,1
3626,54.35,-12.92,185.84,1
3627,54.36,-233.6,-295.03,1
3628,54.37,-203.09,207.85,1
3629,54.38,-210.85,-258.83,1
3630,54.4,30.68,-133.89,1
3631,54.41,33.33,-272.88,1
3632,54.43,-248.92,-104.52,1
3633,54.44,-137.71,159.52,1
3634,54.45,-239.43,202.23,1
3635,54.47,-215.65,357.86,1
3636,54.48,-15.75,-55.59,1
3637,54.49,-94.48,-274.42,1
3638,54.51,210.22,-71.08,1
3639,54.52,63.36,24.23,1
3640,54.53,390.8,130.45,1
3641,54.54,42.62,-96.53,1
3642,54.56,75.63,-111.44,1
3643,54.57,-236.4,34.28,1
3644,54.59,227.37,139.36,1
3645,54.6,-151.85,146.9,1
3646,54.61,18.33,105.47,1
3647,54.63,109.88,146.89,1
3648,54.64,190.15,127.43,1
3649,54.65,135.96,252.04,1
3650,54.67,138.5,-9.72,1
3651,54.68,20.43,66.93,1
3652,54.69,258.96,39.21,1
3653,54.71,120.77,72.8,1
3654,54.72,218.54,284.77,1
3655,54.73,68.23,-244.69,1
3656,54.75,208.1,-128.79,1
3657,54.76,3.88,299.17,1
3658,54.77,12.94,59.28,1
3659,54.79,172.71,-182.11,1
3660,54.8,94.52,-49.86,1
3661,54.81,12.08,372.53,1
3662,54.83,-177.64,110.87,1
3663,54.84,-149.45,276.66,1
3664,54.85,-67.41,-342.29,1
3665,54.87,-238.81,316.78,1
3666,54.88,-338.45,167.72,1
3667,54.89,-58.31,-199.28,1
3668,54.9,-354.48,1.05,1
3669,54.92,-245.18,-201.9,1
3670,54.93,-305.2,-144.61,1
3671,54.95,-204.41,-157.69,1
3672,54.96,-163.32,-181.82,1
3673,54.97,-235.38,-168.2,1
3674,54.99,-222.43,-99.16,1
3675,55.0,-187.13,-154.17,1
3676,55.01,-129.76,16.43,1
3677,55.03,-77.94,-85.67,1
3678,55.04,26.02,-10.67,1
3679,55.05,134.03,8.96,1
3680,55.06,202.12,41.13,1
3681,55.08,238.35,26.73,1
3682,55.09,242.17,44.19,1
3683,55.11,217.8,71.44,1
3684,55.12,239.16,72.37,1
3685,55.13,218.58,93.13,1
3686,55.15,207.25,93.48,1
3687,55.16,196.13,63.1,1
3688,55.17,169.13,77.9,1
3689,55.19,126.87,67.63,1
3690,55.2,119.98,52.08,1
3691,55.21,117.38,15.51,1
3692,55.22,99.57,17.69,1
3693,55.24,48.93,15.5,1
3694,55.25,44.5,-4.85,1
3695,55.27,29.53,-2.66,1
3696,55.28,24.73,-32.29,1
3697,55.29,-8.92,-37.32,1
3698,55.31,-27.5,-42.83,1
3699,55.32,-14.03,-51.64,1
3700,55.33,-33.4,-47.72,1
3701,55.35,-64.33,-41.89,1
3702,55.36,-70.1,-12.06,1
3703,55.37,-36.68,-42.98,1
3704,55.38,-27.14,-19.85,1
3705,55.4,-41.57,-27.66,1
3706,55.41,-44.79,-33.18,1
3707,55.43,-33.4,-41.18,1
3708,55.44,-48.28,-37.87,1
3709,55.45,-49.6,-36.34,1
3710,55.47,-52.13,-33.08,1
3711,55.48,-17.73,-34.84,1
3712,55.49,-56.94,-38.34,1
3713,55.51,-68.26,-32.63,1
3714,55.52,-71.07,-32.47,1
3715,55.53,-39.84,-28.02,1
3716,55.54,-48.75,-28.53,1
3717,55.56,-46.71,-23.04,1
3718,55.57,-43.21,-29.24,1
3719,55.59,-31.71,-27.61,1
3720,55.6,-48.05,-2.44,1
3721,55.61,-32.62,-10.38,1
3722,55.63,-9.76,-4.65,1
3723,55.64,-35.3,-11.17,1
3724,55.65,-28.8,-10.4,1
3725,55.67,-43.88,0.41,1
3726,55.68,-24.56,25.52,1
3727,55.69,-35.5,-9.66,1
3728,55.71,-25.62,18.22,1
3729,55.72,-26.42,0.75,1
3730,55.73,14.99,11.48,1
3731,55.75,3.94,27.34,1
3732,55.76,-0.51,7.18,1
3733,55.77,-0.84,17.55,1
3734,55.79,5.14,20.78,1
3735,55.8,19.44,17.52,1
3736,55.81,-6.42,2.46,1
3737,55.83,2.1,2.32,1
3738,55.84,31.27,11.74,1
3739,55.85,18.92,13.27,1
3740,55.87,11.86,24.83,1
3741,55.88,4.19,32.05,1
3742,55.89,20.82,10.87,1
3743,55.9,15.26,31.56,1
3744,55.92,16.42,42.8,1
3745,55.93,2.24,9.5,1
3746,55.95,34.22,21.44,1
3747,55.96,21.46,33.33,1
3748,55.97,11.84,15.97,1
3749,55.99,20.38,5.74,1
3750,56.0,21.6,-2.2,1
3751,56.01,16.8,21.9,1
3752,56.03,22.79,22.17,1
3753,56.04,26.11,14.57,1
3754,56.05,26.24,17.85,1
3755,56.06,-4.71,15.89,1
3756,56.08,-19.26,11.01,1
3757,56.09,22.78,27.37,1
3758,56.11,-2.03,10.37,1
3759,56.12,-1.94,31.83,1
3760,56.13,23.16,23.53,1
3761,56.15,24.42,26.5,1
3762,56.16,31.78,33.11,1
3763,56.17,42.27,61.55,1
3764,56.19,0.89,482.77,1
3765,56.2,77.0,150.37,1
3766,56.21,285.04,-3.61,1
3767,56.22,167.81,-37.37,1
3768,56.24,-157.69,4.38,1
3769,56.25,-262.06,22.52,1
3770,56.27,166.18,187.28,1
3771,56.28,66.14,64.93,1
3772,56.29,146.34,-113.67,1
3773,56.31,-59.29,-479.65,1
3774,56.32,78.57,-194.14,1
3775,56.33,41.5,-226.77,1
3776,56.35,108.28,-510.02,1
3777,56.36,124.74,-385.13,1
3778,56.37,-2.63,-339.42,1
3779,56.38,51.74,-71.09,1
3780,56.4,-235.81,249.91,1
3781,56.41,53.46,-274.79,1
3782,56.43,-184.48,-273.68,1
3783,56.44,-143.85,-184.46,1
3784,56.45,-181.43,135.48,1
3785,56.47,-212.56,114.43,1
3786,56.48,-539.26,128.62,1
3787,56.49,-201.99,425.36,1
3788,56.51,-1.19,76.5,1
3789,56.52,-314.66,33.19,1
3790,56.53,26.77,222.72,1
3791,56.54,-196.94,-91.11,1
3792,56.56,-135.68,-114.43,1
3793,56.57,234.61,-57.43,1
3794,56.59,36.63,513.9,1
3795,56.6,3.02,276.88,1
3796,56.61,40.54,229.88,1
3797,56.63,156.07,-19.44,1
3798,56.64,-100.93,306.48,1
3799,56.65,430.92,65.13,1
3800,56.67,248.02,106.39,1
3801,56.68,142.45,-309.14,1
3802,56.69,116.24,162.58,1
3803,56.71,58.73,-156.49,1
3804,56.72,-29.62,-459.51,1
3805,56.73,120.81,87.62,1
3806,56.75,-21.63,299.65,1
3807,56.76,-5.66,119.5,1
3808,56.77,12.0,66.48,1
3809,56.79,-36.07,97.95,1
3810,56.8,64.04,-252.49,1
3811,56.81,-113.81,-130.87,1
3812,56.83,-238.15,30.67,1
3813,56.84,-12.01,-222.53,1
3814,56.85,-16.25,53.75,1
3815,56.87,17.08,-111.58,1
3816,56.88,186.03,-18.96,1
3817,56.89,-101.6,-89.05,1
3818,56.9,-92.4,-86.38,1
3819,56.92,-162.47,-96.57,1
3820,56.93,-135.32,-62.78,1
3821,56.95,-148.42,-16.34,1
3822,56.96,-121.86,-26.48,1
3823,56.97,-34.73,-13.25,1
3824,56.99,31.8,-10.19,1
3825,57.0,110.95,24.03,1
3826,57.01,181.73,45.45,1
3827,57.03,247.36,85.51,1
3828,57.04,229.84,67.24,1
3829,57.05,237.91,56.86,1
3830,57.06,209.21,79.08,1
3831,57.08,206.12,94.81,1
3832,57.09,162.7,80.85,1
3833,57.11,123.72,98.25,1
3834,57.12,97.43,115.29,1
3835,57.13,90.59,96.84,1
3836,57.15,80.33,70.1,1
3837,57.16,51.61,69.71,1
3838,57.17,55.59,50.95,1
3839,57.19,16.57,67.42,1
3840,57.2,-15.81,26.43,1
3841,57.21,-23.26,-16.25,1
3842,57.22,-19.65,-1.87,1
3843,57.24,-54.12,-18.46,1
3844,57.25,-69.11,-27.51,1
3845,57.27,-89.3,-37.97,1
3846,57.28,-47.88,-42.31,1
3847,57.29,-65.8,-52.5,1
3848,57.31,-104.5,-58.85,1
3849,57.32,-101.92,-62.44,1
3850,57.33,-91.5,-56.6,1
3851,57.35,-100.19,-68.04,1
3852,57.36,-64.2,-40.75,1
3853,57.37,-82.16,-50.15,1
3854,57.38,-84.61,-63.97,1
3855,57.4,-101.9,-52.55,1
3856,57.41,-94.68,-53.35,1
3857,57.43,-98.53,-45.97,1
3858,57.44,-79.73,-41.32,1
3859,57.45,-72.35,-36.46,1
3860,57.47,-74.21,-40.69,1
3861,57.48,-48.76,-26.73,1
3862,57.49,-62.88,-34.35,1
3863,57.51,-60.23,-24.74,1
3864,57.52,-47.16,-41.96,1
3865,57.53,-16.53,-26.89,1
3866,57.54,-29.09,-10.52,1
3867,57.56,-51.46,-17.69,1
3868,57.57,-35.43,-30.66,1
3869,57.59,-11.28,-17.57,1
3870,57.6,-15.5,0.69,1
3871,57.61,-19.06,-16.45,1
3872,57.63,-14.82,-7.59,1
3873,57.64,18.06,11.48,1
3874,57.65,-2.12,6.39,1
3875,57.67,2.54,-8.85,1
3876,57.68,6.79,30.02,1
3877,57.69,34.74,-7.27,1
3878,57.71,27.55,3.66,1
3879,57.72,25.45,8.84,1
3880,57.73,21.99,-2.1,1
3881,57.75,41.07,17.88,1
3882,57.76,34.16,13.89,1
3883,57.77,13.26,14.33,1
3884,57.79,44.24,8.68,1
3885,57.8,46.02,21.95,1
3886,57.81,34.38,16.6,1
3887,57.83,22.76,20.85,1
3888,57.84,37.7,22.39,1
3889,57.85,35.46,17.88,1
3890,57.87,32.02,19.02,1
3891,57.88,36.8,18.73,1
3892,57.89,51.97,11.91,1
3893,57.9,38.17,20.03,1
3894,57.92,20.19,26.63,1
3895,57.93,28.2,20.27,1
3896,57.95,41.11,15.01,1
3897,57.96,14.69,26.53,1
3898,57.97,33.21,33.96,1
3899,57.99,17.67,30.08,1
3900,58.0,18.09,16.65,1
3901,58.01,18.67,17.69,1
3902,58.03,13.86,9.04,1
3903,58.04,14.94,11.87,1
3904,58.05,32.65,38.0,1
3905,58.06,-3.23,27.74,1
3906,58.08,-39.98,-10.0,1
3907,58.09,-8.25,-9.32,1
3908,58.11,10.93,-7.04,1
3909,58.12,20.55,-10.17,1
3910,58.13,0.04,31.57,1
3911,58.15,6.22,42.74,1
3912,58.16,38.2,22.13,1
3913,58.17,-7.65,93.24,1
3914,58.19,5.41,278.88,1
3915,58.2,-4.98,343.59,1
3916,58.21,-32.78,133.16,1
3917,58.22,16.33,-16.49,1
3918,58.24,-120.38,-38.63,1
3919,58.25,4.35,-89.16,1
3920,58.27,193.59,-25.64,1
3921,58.28,168.72,-187.1,1
3922,58.29,196.03,39.51,1
3923,58.31,8.04,-540.79,1
3924,58.32,-8.98,-404.88,1
3925,58.33,-177.63,-1.04,1
3926,58.35,-61.05,94.58,1
3927,58.36,74.55,-199.14,1
3928,58.37,-112.05,77.23,1
3929,58.38,-108.51,-225.97,1
3930,58.4,-210.76,74.79,1
3931,58.41,50.97,-274.93,1
3932,58.43,189.79,-78.22,1
3933,58.44,-208.23,-243.86,1
3934,58.45,-112.42,22.68,1
3935,58.47,40.22,-224.56,1
3936,58.48,-311.03,-174.7,1
3937,58.49,90.67,-18.61,1
3938,58.51,-20.65,-84.07,1
3939,58.52,61.08,36.38,1
3940,58.53,196.56,197.68,1
3941,58.54,-108.34,247.41,1
3942,58.56,-35.61,44.37,1
3943,58.57,-105.89,297.53,1
3944,58.59,-6.23,298.61,1
3945,58.6,-173.23,594.75,1
3946,58.61,-28.6,252.12,1
3947,58.63,-74.44,-13.09,1
3948,58.64,-115.02,26.7,1
3949,58.65,23.02,-239.3,1
3950,58.66,-79.49,-61.47,1
3951,58.68,-110.78,-170.65,1
3952,58.69,-67.24,259.52,1
3953,58.71,116.69,248.57,1
3954,58.72,229.38,236.47,1
3955,58.73,-30.9,-188.85,1
3956,58.75,-83.63,-199.66,1
3957,58.76,1.18,-120.0,1
3958,58.77,-125.55,45.53,1
3959,58.79,334.33,106.12,1
3960,58.8,171.21,-82.12,1
3961,58.81,428.27,-273.42,1
3962,58.83,-223.79,-39.78,1
3963,58.84,202.96,-59.98,1
3964,58.85,113.38,366.84,1
3965,58.87,433.86,226.04,1
3966,58.88,215.43,80.46,1
3967,58.89,-77.96,-144.31,1
3968,58.9,-61.53,-38.4,1
3969,58.92,-92.27,-166.19,1
3970,58.93,-97.95,-175.18,1
3971,58.95,-91.63,-108.24,1
3972,58.96,-79.98,-142.74,1
3973,58.97,6.99,-97.79,1
3974,58.99,-88.87,-63.55,1
3975,59.0,-70.27,-37.97,1
3976,59.01,-55.64,-33.54,1
3977,59.03,-29.92,-24.15,1
3978,59.04,-21.08,13.41,1
3979,59.05,-30.11,58.78,1
3980,59.06,-28.15,55.68,1
3981,59.08,2.66,54.65,1
3982,59.09,-18.53,75.22,1
3983,59.11,-22.91,71.79,1
3984,59.12,-25.74,83.43,1
3985,59.13,0.33,104.09,1
3986,59.15,-15.2,94.51,1
3987,59.16,-12.3,100.44,1
3988,59.17,-16.29,82.33,1
3989,59.19,14.12,86.78,1
3990,59.2,-9.67,68.13,1
3991,59.21,3.61,55.35,1
3992,59.22,7.2,52.08,1
3993,59.24,4.95,4.19,1
3994,59.25,0.47,-13.31,1
3995,59.27,-8.79,-21.23,1
3996,59.28,2.66,-29.86,1
3997,59.29,6.07,-37.24,1
3998,59.3,-0.42,-38.98,1
3999,59.32,-5.27,-27.97,1
4000,59.33,-15.17,-50.7,1
4001,59.35,10.13,-82.94,1
4002,59.36,-9.36,-84.36,1
4003,59.37,0.54,-70.62,1
4004,59.38,35.91,-55.1,1
4005,59.4,13.67,-46.08,1
4006,59.41,2.39,-53.79,1
4007,59.43,-22.29,-58.09,1
4008,59.44,-12.86,-58.56,1
4009,59.45,-17.74,-47.04,1
4010,59.47,-14.46,-41.04,1
4011,59.48,-23.48,-35.86,1
4012,59.49,-3.28,-36.17,1
4013,59.51,-10.33,-22.28,1
4014,59.52,-20.88,-28.53,1
4015,59.53,-27.01,-18.58,1
4016,59.54,7.91,-34.38,1
4017,59.56,-2.38,-19.01,1
4018,59.57,-17.49,-1.91,1
4019,59.59,8.55,-22.66,1
4020,59.6,6.41,-23.54,1
4021,59.61,-2.96,-24.66,1
4022,59.63,-0.29,-0.37,1
4023,59.64,5.27,-8.21,1
4024,59.65,6.52,-6.22,1
4025,59.67,-5.73,-6.54,1
4026,59.68,9.76,-11.3,1
4027,59.69,-6.98,9.0,1
4028,59.71,14.3,20.64,1
4029,59.72,-6.29,19.8,1
4030,59.73,-0.85,11.32,1
4031,59.75,28.39,14.83,1
4032,59.76,5.92,11.58,1
4033,59.77,7.64,16.28,1
4034,59.79,-9.02,11.12,1
4035,59.8,16.89,29.21,1
4036,59.81,8.7,14.55,1
4037,59.83,13.6,32.78,1
4038,59.84,3.71,27.34,1
4039,59.85,17.13,35.01,1
4040,59.87,-4.58,6.22,1
4041,59.88,2.64,37.14,1
4042,59.89,-8.71,14.67,1
4043,59.9,5.22,34.24,1
4044,59.92,-0.69,29.1,1
4045,59.93,6.2,23.43,1
4046,59.94,10.86,27.83,1
4047,59.96,27.28,30.75,1
4048,59.97,-0.32,-1.39,1
4049,59.98,-12.27,0.74,1
4050,60.0,-4.36,-3.48,1
