,Timestamp,Data1,Data2,Label
0,6.0,-5.69,-1.07,1
1,6.01,-2.89,-9.02,1
2,6.03,-2.66,-5.75,1
3,6.04,-1.44,-2.78,1
4,6.05,6.47,-7.31,1
5,6.07,15.56,-15.81,1
6,6.08,15.96,-16.65,1
7,6.09,2.02,-2.59,1
8,6.11,-21.72,6.8,1
9,6.12,-35.5,-5.06,1
10,6.13,-24.99,-11.51,1
11,6.15,-4.42,11.33,2
12,6.16,1.88,63.84,2
13,6.17,-2.08,129.79,2
14,6.19,0.24,142.4,2
15,6.2,-25.67,55.13,2
16,6.21,-110.58,-51.82,2
17,6.23,-152.95,20.61,2
18,6.24,-54.9,311.55,2
19,6.25,76.61,491.0,2
20,6.27,110.08,374.78,2
21,6.28,99.32,229.06,2
22,6.29,104.23,223.66,2
23,6.31,41.3,229.54,2
24,6.32,-77.49,173.65,2
25,6.33,-83.53,120.66,2
26,6.35,0.45,99.03,2
27,6.36,-14.62,77.17,2
28,6.37,-87.54,44.47,2
29,6.39,-41.11,16.13,2
30,6.4,60.97,-4.36,2
31,6.41,50.16,-24.91,2
32,6.43,-4.97,-46.19,2
33,6.44,34.79,-64.64,2
34,6.45,95.92,-80.07,2
35,6.47,76.7,-94.73,2
36,6.48,25.0,-109.03,2
37,6.49,11.9,-121.6,2
38,6.51,50.49,-131.92,2
39,6.52,66.31,-140.94,2
40,6.53,-10.59,-148.85,2
41,6.55,-71.68,-155.63,2
42,6.56,7.89,-160.99,1
43,6.57,124.62,-165.34,1
44,6.59,119.81,-169.08,1
45,6.6,22.97,-172.01,1
46,6.61,-45.56,-173.9,1
47,6.63,-46.01,-174.64,1
48,6.64,-12.02,-174.2,1
49,6.65,27.72,-173.48,1
50,6.67,17.89,-172.54,1
51,6.68,-94.7,-170.73,1
52,6.69,-180.45,-168.21,1
53,6.71,-104.76,-165.29,1
54,6.72,4.94,-162.16,1
55,6.73,27.18,-158.6,1
56,6.75,24.38,-153.93,1
57,6.76,26.19,-148.8,1
58,6.77,13.71,-143.84,1
59,6.79,5.3,-138.79,1
60,6.8,-8.55,-132.83,1
61,6.81,-30.45,-126.55,1
62,6.82,-5.66,-120.27,1
63,6.84,46.13,-113.62,1
64,6.85,26.68,-106.92,1
65,6.86,-33.27,-100.53,1
66,6.88,-33.9,-94.14,1
67,6.89,-21.78,-86.95,1
68,6.91,-54.5,-79.54,1
69,6.92,-79.91,-72.54,1
70,6.93,-64.17,-66.09,1
71,6.95,-6.59,-59.45,1
72,6.96,57.05,-52.18,1
73,6.97,57.01,-44.89,1
74,6.99,7.79,-38.19,1
75,7.0,-9.7,-32.24,1
76,7.01,24.41,-25.96,1
77,7.03,40.58,-18.88,1
78,7.04,15.05,-12.02,1
79,7.05,24.01,-5.94,1
80,7.07,56.3,-0.1,1
81,7.08,29.88,5.81,1
82,7.09,-11.28,11.37,1
83,7.11,-7.01,16.74,1
84,7.12,2.65,22.17,1
85,7.13,-2.37,27.33,1
86,7.15,-5.38,32.47,1
87,7.16,-16.17,37.75,1
88,7.17,-39.35,42.23,1
89,7.19,-44.19,45.9,1
90,7.2,-30.96,49.92,1
91,7.21,-37.9,54.63,1
92,7.23,-31.02,58.82,1
93,7.24,20.32,61.94,1
94,7.25,45.18,64.56,1
95,7.27,13.08,67.91,1
96,7.28,-25.29,71.47,1
97,7.29,-34.18,74.07,1
98,7.31,-2.55,75.82,1
99,7.32,39.92,77.74,1
100,7.33,40.43,80.1,1
101,7.35,20.85,81.69,1
102,7.36,38.21,75.96,1
103,7.37,62.91,32.08,1
104,7.39,38.87,-94.01,1
105,7.4,-2.57,-255.34,1
106,7.41,-18.82,-307.54,1
107,7.43,-29.11,-246.71,1
108,7.44,-26.5,-205.55,1
109,7.45,12.08,-180.97,1
110,7.47,44.36,-111.49,1
111,7.48,53.2,-19.98,1
112,7.49,64.86,54.33,1
113,7.51,35.46,28.61,1
114,7.52,-35.17,-125.26,1
115,7.53,-36.6,-182.47,1
116,7.55,17.95,-3.78,1
117,7.56,11.02,142.78,1
118,7.57,-38.38,97.73,1
119,7.59,-57.66,58.67,1
120,7.6,-47.56,119.02,1
121,7.61,-24.0,180.27,1
122,7.63,-16.6,167.33,1
123,7.64,-23.85,103.23,1
124,7.65,6.96,76.37,1
125,7.67,50.14,130.95,1
126,7.68,40.77,237.75,1
127,7.69,14.31,324.74,1
128,7.71,5.2,329.67,1
129,7.72,-23.7,246.28,1
130,7.73,-44.64,140.87,1
131,7.75,-11.59,137.3,1
132,7.76,19.29,234.42,1
133,7.77,12.5,269.69,1
134,7.79,5.96,213.81,1
135,7.8,3.54,187.74,1
136,7.81,-14.93,203.48,1
137,7.83,-29.47,198.27,1
138,7.84,-9.29,191.79,1
139,7.85,19.39,219.63,1
140,7.87,-0.04,236.63,1
141,7.88,-50.16,189.73,1
142,7.89,-61.71,117.09,1
143,7.91,-31.52,90.26,1
144,7.92,-7.39,117.05,1
145,7.93,10.45,174.65,1
146,7.95,39.23,223.03,1
147,7.96,32.25,198.3,1
148,7.97,-33.08,121.82,1
149,7.99,-71.32,81.83,1
150,8.0,-41.44,115.66,1
151,8.01,-19.26,187.26,1
152,8.03,-28.38,184.63,1
153,8.04,-23.26,72.25,1
154,8.05,-10.0,3.47,1
155,8.07,-5.05,58.46,1
156,8.08,6.3,115.64,1
157,8.09,24.38,116.71,1
158,8.1,30.92,109.55,1
159,8.12,17.03,85.76,1
160,8.13,3.4,57.73,1
161,8.15,9.97,78.96,0
162,8.16,18.57,96.72,0
163,8.17,0.62,7.73,0
164,8.19,-38.28,-121.04,0
165,8.2,-58.07,-91.43,0
166,8.21,-44.13,43.95,0
167,8.23,-23.47,36.52,0
168,8.24,-9.03,-29.09,0
169,8.25,11.01,65.23,0
170,8.27,36.05,153.05,0
171,8.28,44.07,39.72,0
172,8.29,33.45,-93.55,0
173,8.31,30.1,-85.6,0
174,8.32,38.39,-74.49,0
175,8.33,39.74,-153.22,0
176,8.35,31.1,-220.23,0
177,8.36,28.73,-249.81,0
178,8.37,38.7,-331.04,0
179,8.39,43.73,-446.14,0
180,8.4,34.97,-475.44,0
181,8.41,28.48,-405.81,0
182,8.43,28.89,-328.83,0
183,8.44,21.67,-256.36,0
184,8.45,11.24,-136.32,0
185,8.47,10.91,-5.91,0
186,8.48,11.54,52.71,0
187,8.49,1.92,59.15,0
188,8.51,-10.51,89.56,0
189,8.52,-16.38,140.71,0
190,8.53,-18.04,147.66,0
191,8.55,-19.87,90.76,1
192,8.56,-19.24,18.61,1
193,8.57,-13.99,-11.53,1
194,8.59,-6.54,1.21,1
195,8.6,-0.62,3.5,1
196,8.61,-2.16,-28.5,1
197,8.63,-8.28,-56.46,1
198,8.64,-3.19,-58.2,1
199,8.65,8.84,-53.04,1
200,8.67,5.4,-47.6,1
201,8.68,-4.58,-42.77,1
202,8.69,-1.55,-45.7,1
203,8.71,0.51,-47.14,1
204,8.72,-8.03,-41.07,1
205,8.73,-12.19,-38.34,1
206,8.75,-6.21,-47.01,1
207,8.76,1.16,-58.76,1
208,8.77,4.9,-52.12,1
209,8.78,6.43,-28.8,1
210,8.8,6.14,-22.13,1
211,8.81,-2.3,-39.05,1
212,8.82,-20.45,-52.66,1
213,8.84,-29.11,-53.8,1
214,8.85,-14.32,-45.15,1
215,8.87,4.48,-33.36,1
216,8.88,12.57,-45.61,1
217,8.89,13.61,-74.25,1
218,8.91,-0.41,-70.33,1
219,8.92,-22.37,-39.83,1
220,8.93,-21.27,-33.72,1
221,8.95,-0.55,-52.77,1
222,8.96,7.29,-62.79,1
223,8.97,-2.63,-55.72,1
224,8.99,-11.39,-52.23,1
225,9.0,-13.36,-69.47,1
226,9.01,-14.16,-84.18,1
227,9.03,-15.06,-62.7,1
228,9.04,-15.13,-31.91,1
229,9.05,-9.79,-31.86,1
230,9.07,0.4,-42.58,1
231,9.08,0.65,-40.64,1
232,9.09,-10.67,-33.99,1
233,9.11,-17.5,-26.73,1
234,9.12,-12.31,-27.68,1
235,9.13,1.37,-41.08,1
236,9.15,11.66,-44.15,1
237,9.16,12.23,-31.22,1
238,9.17,11.59,-25.88,1
239,9.19,12.03,-34.26,1
240,9.2,6.6,-45.4,1
241,9.21,-3.43,-47.4,1
242,9.23,-9.52,-30.77,1
243,9.24,-6.38,-11.25,1
244,9.25,-1.01,-16.52,1
245,9.27,-5.67,-38.54,1
246,9.28,-11.88,-49.92,1
247,9.29,-0.74,-43.55,1
248,9.31,12.37,-19.48,1
249,9.32,3.18,7.94,1
250,9.33,-4.61,7.79,1
251,9.35,11.09,-14.52,1
252,9.36,21.3,-31.37,1
253,9.37,6.69,-40.96,1
254,9.39,-8.3,-41.01,1
255,9.4,-5.26,-25.61,1
256,9.41,4.43,-14.79,1
257,9.43,5.21,-18.54,1
258,9.44,2.96,-12.01,1
259,9.45,9.81,9.3,1
260,9.47,10.58,17.04,1
261,9.48,-7.97,2.13,1
262,9.49,-17.84,-9.08,1
263,9.51,-4.41,2.54,1
264,9.52,4.55,8.36,1
265,9.53,1.08,-8.03,1
266,9.55,3.83,-5.39,1
267,9.56,10.09,14.45,1
268,9.57,5.76,4.38,1
269,9.59,-3.25,-15.28,1
270,9.6,-4.83,-3.99,1
271,9.61,-2.76,24.54,1
272,9.63,-1.12,42.34,1
273,9.64,8.78,33.21,1
274,9.65,21.8,8.6,1
275,9.67,15.76,4.07,1
276,9.68,-6.03,20.37,1
277,9.69,-16.17,28.99,1
278,9.71,-8.23,27.78,1
279,9.72,1.21,22.74,1
280,9.73,2.29,19.75,1
281,9.75,-0.63,29.35,1
282,9.76,-1.72,32.11,1
283,9.77,-3.67,18.27,1
284,9.79,-6.24,17.66,1
285,9.8,-1.04,31.91,1
286,9.81,13.75,35.72,1
287,9.83,27.73,28.59,1
288,9.84,22.79,22.77,1
289,9.85,1.52,28.46,1
290,9.87,-6.72,44.27,1
291,9.88,0.08,45.28,1
292,9.89,-0.85,26.16,1
293,9.91,-8.04,18.52,1
294,9.92,-8.74,30.62,1
295,9.93,-0.28,37.41,1
296,9.95,9.48,35.98,1
297,9.96,9.14,36.66,1
298,9.97,2.24,29.49,1
299,9.99,-3.7,20.58,1
300,10.0,-7.37,23.55,1
301,10.01,-6.47,19.06,1
302,10.02,-10.58,9.77,1
303,10.04,-24.15,21.09,1
304,10.05,-23.41,34.66,1
305,10.06,-2.59,29.5,1
306,10.08,11.5,19.11,1
307,10.09,11.32,12.0,1
308,10.1,8.32,12.46,1
309,10.12,7.02,22.61,1
310,10.13,13.84,27.76,1
311,10.15,23.09,28.38,0
312,10.16,15.82,33.89,0
313,10.17,0.19,30.65,0
314,10.19,-1.72,17.88,0
315,10.2,5.19,14.32,0
316,10.21,5.1,19.28,0
317,10.23,0.99,23.38,0
318,10.24,1.71,16.86,0
319,10.25,6.52,-13.26,0
320,10.27,20.7,-56.35,0
321,10.28,49.91,-94.27,0
322,10.29,72.67,-129.18,0
323,10.31,62.86,-155.32,0
324,10.32,34.23,-166.78,0
325,10.33,22.55,-175.31,0
326,10.35,27.47,-174.94,0
327,10.36,18.1,-149.91,0
328,10.37,-7.08,-109.18,0
329,10.39,-27.1,-68.18,0
330,10.4,-36.93,-30.13,0
331,10.41,-34.83,2.76,0
332,10.43,-28.92,29.7,0
333,10.44,-35.05,55.41,0
334,10.45,-45.55,87.53,0
335,10.47,-48.78,127.31,0
336,10.48,-47.01,156.09,0
337,10.49,-37.68,165.08,0
338,10.51,-24.19,182.29,0
339,10.52,-26.99,213.02,0
340,10.53,-40.21,217.97,0
341,10.55,-32.9,195.93,1
342,10.56,-17.37,185.41,1
343,10.57,-16.8,184.5,1
344,10.59,-8.71,170.44,1
345,10.6,6.27,151.86,1
346,10.61,-4.75,142.81,1
347,10.63,-21.61,131.45,1
348,10.64,-8.42,103.63,1
349,10.65,11.32,77.21,1
350,10.67,0.69,76.02,1
351,10.68,-25.59,78.98,1
352,10.69,-27.98,54.61,1
353,10.71,-6.95,25.37,1
354,10.72,5.46,22.39,1
355,10.73,1.51,27.65,1
356,10.75,-2.95,24.56,1
357,10.76,0.98,20.07,1
358,10.77,4.79,10.54,1
359,10.78,4.85,-1.21,1
360,10.8,10.21,-5.53,1
361,10.81,10.7,-9.25,1
362,10.83,-3.06,-14.28,1
363,10.84,-7.02,-17.89,1
364,10.85,9.38,-28.89,1
365,10.87,18.44,-41.36,1
366,10.88,7.72,-41.82,1
367,10.89,-3.68,-43.05,1
368,10.91,-3.32,-55.12,1
369,10.92,1.82,-62.58,1
370,10.93,5.36,-58.91,1
371,10.95,7.15,-53.03,1
372,10.96,3.66,-51.56,1
373,10.97,-4.32,-54.05,1
374,10.99,-4.05,-51.04,1
375,11.0,7.84,-45.05,1
376,11.01,14.92,-52.4,1
377,11.03,10.13,-63.32,1
378,11.04,8.47,-60.69,1
379,11.05,14.9,-57.8,1
380,11.07,15.4,-59.25,1
381,11.08,9.16,-54.93,1
382,11.09,9.48,-56.99,1
383,11.11,14.77,-66.75,1
384,11.12,11.27,-65.25,1
385,11.13,2.56,-59.07,1
386,11.15,3.79,-59.47,1
387,11.16,8.23,-58.32,1
388,11.17,3.48,-57.6,1
389,11.19,1.88,-54.13,1
390,11.2,7.7,-38.67,1
391,11.21,5.29,-37.48,1
392,11.23,-1.02,-61.1,1
393,11.24,8.33,-67.88,1
394,11.25,26.57,-50.45,1
395,11.27,26.24,-43.6,1
396,11.28,7.31,-48.22,1
397,11.29,-1.4,-46.15,1
398,11.31,4.03,-39.68,1
399,11.32,2.04,-37.23,1
400,11.33,-4.57,-39.7,1
401,11.35,0.71,-38.03,1
402,11.36,10.01,-29.41,1
403,11.37,9.7,-29.71,1
404,11.39,6.01,-39.06,1
405,11.4,4.79,-41.22,1
406,11.41,0.67,-40.53,1
407,11.43,-3.71,-41.69,1
408,11.44,-3.34,-35.22,1
409,11.45,-1.55,-25.83,1
410,11.47,4.75,-21.3,1
411,11.48,11.51,-14.56,1
412,11.49,3.01,-8.59,1
413,11.51,-11.77,-10.82,1
414,11.52,-9.76,-12.94,1
415,11.53,5.74,-16.14,1
416,11.55,10.44,-23.07,1
417,11.56,-3.9,-17.01,1
418,11.57,-14.7,-1.8,1
419,11.59,-8.27,4.21,1
420,11.6,1.05,7.31,1
421,11.61,5.04,7.89,1
422,11.63,5.25,-0.71,1
423,11.64,-0.19,-5.6,1
424,11.65,-5.39,-4.24,1
425,11.67,-0.74,-2.55,1
426,11.68,5.37,7.95,1
427,11.69,-0.29,18.47,1
428,11.71,-7.49,14.35,1
429,11.72,-2.33,6.03,1
430,11.73,2.96,-0.13,1
431,11.75,-2.61,-2.29,1
432,11.76,-5.75,8.93,1
433,11.77,-0.91,23.58,1
434,11.79,1.59,27.61,1
435,11.8,0.64,27.74,1
436,11.81,1.44,23.03,1
437,11.83,0.39,10.97,1
438,11.84,-7.18,9.68,1
439,11.85,-10.92,18.08,1
440,11.87,-0.08,17.09,1
441,11.88,7.77,16.08,1
442,11.89,-4.05,24.97,1
443,11.91,-14.24,30.97,1
444,11.92,-2.6,30.41,1
445,11.93,14.63,27.37,1
446,11.94,17.46,22.81,1
447,11.96,10.21,20.05,1
448,11.97,7.22,18.57,1
449,11.98,9.34,21.3,1
450,12.0,5.57,30.2,1
451,12.01,-5.88,31.68,1
452,12.02,-13.34,23.64,1
453,12.04,-10.98,22.15,1
454,12.05,-8.53,25.57,1
455,12.06,-10.13,23.91,1
456,12.08,-7.54,24.64,1
457,12.09,1.23,26.95,1
458,12.1,8.89,20.39,1
459,12.12,5.01,14.42,1
460,12.13,-10.25,14.84,1
461,12.15,-19.53,16.95,2
462,12.16,-15.3,25.78,2
463,12.17,-6.68,30.86,2
464,12.19,-1.24,21.77,2
465,12.2,-3.41,19.23,2
466,12.21,-11.6,31.54,2
467,12.23,-19.7,63.26,2
468,12.24,-28.65,147.8,2
469,12.25,-41.65,273.12,2
470,12.27,-51.27,361.04,2
471,12.28,-48.19,367.52,2
472,12.29,-41.62,319.18,2
473,12.31,-42.31,250.41,2
474,12.32,-37.77,167.34,2
475,12.33,-22.19,74.97,2
476,12.35,-11.29,-3.13,2
477,12.36,-7.65,-55.76,2
478,12.37,2.4,-109.12,2
479,12.39,18.25,-176.99,2
480,12.4,28.84,-221.68,2
481,12.41,37.53,-221.16,2
482,12.43,48.94,-203.0,2
483,12.44,50.86,-190.11,2
484,12.45,39.35,-184.81,2
485,12.47,29.34,-179.51,2
486,12.48,26.52,-163.88,2
487,12.49,24.81,-147.67,2
488,12.51,25.57,-141.31,2
489,12.52,29.55,-131.58,2
490,12.53,28.85,-117.48,2
491,12.55,23.38,-114.01,1
492,12.56,21.56,-110.57,1
493,12.57,20.42,-94.62,1
494,12.59,14.59,-83.07,1
495,12.6,12.23,-81.96,1
496,12.61,17.1,-78.14,1
497,12.63,18.29,-71.54,1
498,12.64,9.51,-63.46,1
499,12.65,2.64,-52.13,1
500,12.67,9.57,-43.33,1
501,12.68,21.93,-34.9,1
502,12.69,21.4,-24.74,1
503,12.71,7.44,-16.37,1
504,12.72,-5.23,-3.25,1
505,12.73,-11.78,7.23,1
506,12.75,-15.23,-1.29,1
507,12.76,-14.15,-6.61,1
508,12.77,-9.08,12.31,1
509,12.79,-2.64,26.73,1
510,12.8,1.04,20.14,1
511,12.81,-3.05,16.23,1
512,12.83,-8.32,23.76,1
513,12.84,-6.64,30.89,1
514,12.85,-3.62,35.38,1
515,12.87,-4.59,41.27,1
516,12.88,-6.84,45.84,1
517,12.89,-7.1,40.94,1
518,12.91,-3.65,28.39,1
519,12.92,1.36,24.48,1
520,12.93,0.96,33.14,1
521,12.95,-5.78,39.19,1
522,12.96,-10.36,41.77,1
523,12.97,-11.22,48.79,1
524,12.99,-14.91,50.34,1
525,13.0,-16.42,42.43,1
526,13.01,-7.74,35.59,1
527,13.03,-0.31,34.17,1
528,13.04,-6.02,39.02,1
529,13.05,-13.57,47.79,1
530,13.07,-10.3,51.41,1
531,13.08,-4.24,46.79,1
532,13.09,-3.26,38.35,1
533,13.11,0.79,31.92,1
534,13.12,5.8,36.07,1
535,13.13,-3.1,46.6,1
536,13.15,-18.28,46.01,1
537,13.16,-19.35,37.07,1
538,13.17,-10.81,35.27,1
539,13.19,-8.08,37.32,1
540,13.2,-7.39,37.03,1
541,13.21,0.11,35.1,1
542,13.23,7.94,30.72,1
543,13.24,5.58,29.7,1
544,13.25,-5.01,30.25,1
545,13.27,-12.63,22.45,1
546,13.28,-12.37,19.21,1
547,13.29,-9.66,27.31,1
548,13.31,-9.89,27.67,1
549,13.32,-11.48,24.47,1
550,13.33,-10.77,28.68,1
551,13.35,-5.51,24.96,1
552,13.36,2.67,15.13,1
553,13.37,4.06,14.98,1
554,13.39,-4.82,16.37,1
555,13.4,-12.42,10.64,1
556,13.41,-10.02,4.54,1
557,13.43,-4.7,2.21,1
558,13.44,-5.22,4.73,1
559,13.45,-5.91,8.39,1
560,13.47,-1.44,2.38,1
561,13.48,-0.17,-7.29,1
562,13.49,-3.87,-7.1,1
563,13.51,-1.21,-5.78,1
564,13.52,6.44,-6.71,1
565,13.53,0.54,-1.12,1
566,13.55,-17.01,5.64,1
567,13.56,-18.79,10.45,1
568,13.57,-1.18,12.46,1
569,13.59,9.21,3.7,1
570,13.6,4.55,-7.01,1
571,13.61,3.02,-12.51,1
572,13.63,11.25,-18.51,1
573,13.64,13.96,-12.51,1
574,13.65,5.15,5.06,1
575,13.67,-1.46,1.47,1
576,13.68,0.49,-20.97,1
577,13.69,6.18,-26.77,1
578,13.71,9.44,-17.55,1
579,13.72,3.96,-15.27,1
580,13.73,-2.89,-17.94,1
581,13.75,0.41,-17.62,1
582,13.76,6.73,-13.77,1
583,13.77,7.1,-11.39,1
584,13.79,5.78,-16.49,1
585,13.8,8.1,-17.72,1
586,13.81,10.32,-7.74,1
587,13.83,1.4,-4.68,1
588,13.84,-13.31,-12.06,1
589,13.85,-10.9,-11.65,1
590,13.86,8.84,-4.15,1
591,13.88,19.52,-2.69,1
592,13.89,10.96,-6.97,1
593,13.9,1.4,-13.11,1
594,13.92,2.44,-15.41,1
595,13.93,6.5,-7.13,1
596,13.94,8.81,-0.34,1
597,13.96,9.15,-5.87,1
598,13.97,6.94,-14.62,1
599,13.98,7.84,-19.55,1
600,14.0,11.76,-18.37,1
601,14.01,6.99,-15.23,1
602,14.02,-3.5,-21.71,1
603,14.04,-5.1,-30.96,1
604,14.05,-1.58,-25.33,1
605,14.07,-4.16,-9.47,1
606,14.08,-11.09,0.63,1
607,14.09,-9.11,-2.46,1
608,14.11,8.83,-17.67,1
609,14.12,24.96,-26.17,1
610,14.13,23.45,-13.55,1
611,14.15,14.8,-2.5,2
612,14.16,8.25,-11.77,2
613,14.17,0.96,-25.64,2
614,14.19,-2.77,-29.32,2
615,14.2,1.9,-6.52,2
616,14.21,8.3,52.32,2
617,14.23,0.99,87.75,2
618,14.24,-13.35,52.8,2
619,14.25,-1.38,-0.81,2
620,14.27,4.73,-31.07,2
621,14.28,-40.9,-17.08,2
622,14.29,-51.55,40.76,2
623,14.31,25.06,83.45,2
624,14.32,84.93,157.26,2
625,14.33,105.41,280.03,2
626,14.35,144.65,291.18,2
627,14.36,107.3,232.64,2
628,14.37,-59.94,277.42,2
629,14.39,-147.57,321.96,2
630,14.4,-46.19,248.53,2
631,14.41,39.67,166.13,2
632,14.43,-21.25,146.49,2
633,14.44,-109.38,130.49,2
634,14.45,-116.55,89.38,2
635,14.47,-51.68,52.75,2
636,14.48,-8.71,30.52,2
637,14.49,-70.41,7.8,2
638,14.51,-97.95,-18.3,2
639,14.52,40.85,-40.41,2
640,14.53,145.07,-58.62,2
641,14.55,40.9,-76.07,1
642,14.56,-121.31,-92.55,1
643,14.57,-164.07,-106.67,1
644,14.59,-86.37,-119.29,1
645,14.6,12.92,-130.85,1
646,14.61,18.77,-141.08,1
647,14.63,-48.1,-150.06,1
648,14.64,-35.93,-157.72,1
649,14.65,54.93,-163.78,1
650,14.67,95.45,-168.53,1
651,14.68,75.17,-172.67,1
652,14.69,61.8,-175.73,1
653,14.71,59.44,-177.39,1
654,14.72,3.99,-178.38,1
655,14.73,-88.57,-178.93,1
656,14.75,-90.74,-178.68,1
657,14.76,4.47,-177.25,1
658,14.77,64.22,-175.04,1
659,14.79,66.85,-172.39,1
660,14.8,92.21,-169.14,1
661,14.81,114.76,-165.39,1
662,14.83,48.95,-161.28,1
663,14.84,-55.46,-156.76,1
664,14.85,-65.58,-151.95,1
665,14.87,28.67,-146.93,1
666,14.88,91.31,-141.68,1
667,14.89,26.43,-135.66,1
668,14.91,-64.54,-128.74,1
669,14.92,-40.52,-121.65,1
670,14.93,15.57,-115.0,1
671,14.95,-38.08,-108.52,1
672,14.96,-103.33,-102.01,1
673,14.97,-35.54,-95.09,1
674,14.99,83.31,-87.75,1
675,15.0,105.17,-80.22,1
676,15.01,15.38,-72.91,1
677,15.03,-81.66,-65.98,1
678,15.04,-72.32,-58.9,1
679,15.05,32.51,-64.52,1
680,15.07,115.89,-111.55,1
681,15.08,94.47,-166.35,1
682,15.09,5.44,-132.77,1
683,15.11,-45.08,-40.51,1
684,15.12,-33.7,-25.27,1
685,15.13,5.53,-107.7,1
686,15.15,63.06,-207.67,1
687,15.16,81.86,-258.92,1
688,15.17,51.61,-244.74,1
689,15.19,57.16,-215.2,1
690,15.2,81.37,-231.47,1
691,15.21,65.09,-260.15,1
692,15.23,45.61,-204.43,1
693,15.24,50.25,-69.5,1
694,15.25,45.68,24.51,1
695,15.27,8.36,29.87,1
696,15.28,-48.78,56.86,1
697,15.29,-92.84,119.57,1
698,15.31,-80.29,65.29,1
699,15.32,-27.11,20.86,1
700,15.33,-17.23,197.32,1
701,15.35,-32.16,311.79,1
702,15.36,-6.56,179.47,1
703,15.37,-1.84,108.68,1
704,15.39,-24.98,133.18,1
705,15.4,-11.48,79.55,1
706,15.41,-13.93,106.03,1
707,15.43,-51.44,248.81,1
708,15.44,-66.04,264.91,1
709,15.45,-60.54,147.27,1
710,15.47,-36.84,107.4,1
711,15.48,-10.82,185.95,1
712,15.49,-36.39,242.58,1
713,15.51,-61.88,239.52,1
714,15.52,-13.98,241.04,1
715,15.53,29.12,242.49,1
716,15.55,-1.0,252.23,1
717,15.56,-22.62,259.3,1
718,15.57,10.78,178.79,1
719,15.59,22.84,118.09,1
720,15.6,-5.65,214.37,1
721,15.61,-18.38,293.08,1
722,15.63,-17.69,214.32,1
723,15.64,-15.04,116.7,1
724,15.65,10.91,157.13,1
725,15.67,27.97,283.88,1
726,15.68,-11.1,294.13,1
727,15.69,-45.53,191.7,1
728,15.71,0.86,170.96,1
729,15.72,51.8,207.91,1
730,15.73,16.41,167.88,1
731,15.75,-37.79,96.95,1
732,15.76,-27.82,85.35,1
733,15.77,14.31,130.3,1
734,15.78,28.05,197.14,1
735,15.8,3.42,221.66,1
736,15.81,-25.54,134.46,1
737,15.82,-25.21,4.48,1
738,15.84,-4.23,6.34,1
739,15.85,10.0,152.19,1
740,15.86,28.91,225.36,1
741,15.88,59.93,100.65,1
742,15.89,41.41,-50.51,1
743,15.9,-20.35,-52.24,1
744,15.92,-15.43,29.31,1
745,15.93,35.67,82.59,1
746,15.94,19.49,106.74,1
747,15.96,-37.53,109.88,1
748,15.97,-42.48,49.61,1
749,15.98,1.09,-39.85,1
750,16.0,30.8,-24.68,1
751,16.01,18.43,83.42,1
752,16.03,-14.96,120.96,1
753,16.04,-37.54,64.76,1
754,16.05,-46.41,35.52,1
755,16.07,-36.24,31.45,1
756,16.08,5.53,-58.08,1
757,16.09,31.27,-159.22,1
758,16.11,3.48,-100.09,1
759,16.12,-32.35,18.38,1
760,16.13,-29.95,-4.94,1
761,16.15,29.11,-79.54,1
762,16.16,94.49,-30.93,0
763,16.17,81.26,67.87,0
764,16.19,53.2,66.45,0
765,16.2,71.93,-20.91,0
766,16.21,32.81,-84.96,0
767,16.23,-64.08,-95.9,0
768,16.24,-84.65,-117.46,0
769,16.25,-27.36,-179.69,0
770,16.27,10.19,-244.5,0
771,16.28,0.71,-277.56,0
772,16.29,-14.72,-275.84,0
773,16.31,-12.88,-276.97,0
774,16.32,-6.95,-321.58,0
775,16.33,-5.44,-366.27,0
776,16.35,-9.83,-343.75,0
777,16.36,-22.21,-265.89,0
778,16.37,-29.41,-176.55,0
779,16.39,-23.21,-93.57,0
780,16.4,-22.11,-23.63,0
781,16.41,-32.25,22.29,0
782,16.42,-30.77,37.74,0
783,16.44,-15.37,42.37,0
784,16.45,-9.93,60.94,0
785,16.46,-18.0,98.12,0
786,16.48,-23.61,166.38,0
787,16.49,-21.6,235.52,0
788,16.5,-14.96,203.0,0
789,16.52,-4.62,64.34,0
790,16.53,1.53,-33.99,0
791,16.54,-5.31,-24.45,0
792,16.56,-13.98,-2.38,1
793,16.57,-13.07,-30.9,1
794,16.58,-10.85,-62.51,1
795,16.6,-9.99,-60.46,1
796,16.61,-6.02,-47.86,1
797,16.62,-3.5,-51.02,1
798,16.64,-1.68,-62.46,1
799,16.65,7.31,-59.91,1
800,16.67,17.63,-51.08,1
801,16.68,18.98,-56.24,1
802,16.69,11.29,-57.14,1
803,16.71,-0.15,-37.79,1
804,16.72,-4.18,-29.97,1
805,16.73,5.04,-38.43,1
806,16.75,15.66,-30.08,1
807,16.76,16.24,-16.89,1
808,16.77,5.31,-16.51,1
809,16.79,-8.64,-9.42,1
810,16.8,-10.49,-0.02,1
811,16.81,-2.58,-5.11,1
812,16.83,2.18,-13.45,1
813,16.84,6.76,-15.81,1
814,16.85,16.45,-10.18,1
815,16.87,23.87,-0.95,1
816,16.88,18.89,-5.24,1
817,16.89,2.16,-15.33,1
818,16.91,-9.06,-14.48,1
819,16.92,0.14,-15.16,1
820,16.93,17.56,-16.29,1
821,16.95,22.66,-3.73,1
822,16.96,19.32,4.54,1
823,16.97,18.04,-6.22,1
824,16.99,12.87,-15.43,1
825,17.0,2.43,-8.77,1
826,17.01,-2.92,-0.78,1
827,17.03,-0.31,-6.49,1
828,17.04,4.43,-18.2,1
829,17.05,7.93,-17.27,1
830,17.06,12.81,-11.31,1
831,17.08,19.01,-23.92,1
832,17.09,20.93,-36.94,1
833,17.1,17.38,-21.09,1
834,17.12,11.94,-4.31,1
835,17.13,7.61,-14.92,1
836,17.14,8.09,-28.83,1
837,17.16,13.41,-25.35,1
838,17.17,18.09,-12.69,1
839,17.18,14.64,-8.65,1
840,17.2,3.97,-18.65,1
841,17.21,-2.57,-19.96,1
842,17.22,-0.44,-10.92,1
843,17.24,4.94,-17.82,1
844,17.25,6.4,-23.75,1
845,17.26,0.3,-8.59,1
846,17.28,-5.55,-5.92,1
847,17.29,-2.06,-24.53,1
848,17.3,1.71,-29.0,1
849,17.32,-5.74,-19.28,1
850,17.33,-12.7,-16.45,1
851,17.35,-9.6,-15.8,1
852,17.36,-9.94,-10.83,1
853,17.37,-11.11,-3.75,1
854,17.39,6.14,1.03,1
855,17.4,25.1,-4.94,1
856,17.41,16.53,-11.33,1
857,17.43,-0.68,-4.81,1
858,17.44,1.11,-3.38,1
859,17.45,7.31,-12.29,1
860,17.47,3.11,-7.39,1
861,17.48,1.2,6.78,1
862,17.49,6.0,7.02,1
863,17.51,9.34,-1.42,1
864,17.52,7.61,-4.34,1
865,17.53,1.77,-4.76,1
866,17.55,-3.12,-6.18,1
867,17.56,-6.28,-4.49,1
868,17.57,-10.9,-1.5,1
869,17.59,-9.27,-0.26,1
870,17.6,2.55,0.7,1
871,17.61,12.31,1.38,1
872,17.63,14.32,-3.16,1
873,17.64,11.92,-20.75,1
874,17.65,5.64,-30.83,1
875,17.67,-0.95,-8.4,1
876,17.68,-5.63,8.83,1
877,17.69,-7.96,-9.73,1
878,17.7,-2.89,-23.65,1
879,17.72,1.27,-7.76,1
880,17.73,-8.16,11.96,1
881,17.75,-14.98,15.2,1
882,17.76,-3.25,8.18,1
883,17.77,8.88,2.45,1
884,17.78,3.62,-0.75,1
885,17.8,-7.11,-2.64,1
886,17.81,-5.5,5.29,1
887,17.82,5.75,21.31,1
888,17.84,10.72,18.93,1
889,17.85,1.33,-0.94,1
890,17.86,-15.56,-1.0,1
891,17.88,-20.78,18.88,1
892,17.89,-6.59,27.09,1
893,17.9,5.0,20.25,1
894,17.92,1.53,13.52,1
895,17.93,0.17,15.16,1
896,17.94,7.88,23.73,1
897,17.96,12.5,26.41,1
898,17.97,6.89,19.73,1
899,17.99,-4.03,14.83,1
900,18.0,-7.17,9.51,1
901,18.01,-2.48,3.8,1
902,18.03,-4.47,8.45,1
903,18.04,-10.85,11.26,1
904,18.05,-9.83,3.84,1
905,18.07,-7.64,6.01,1
906,18.08,-12.0,16.64,1
907,18.09,-14.2,14.85,1
908,18.11,-5.29,2.93,1
909,18.12,9.06,-4.98,1
910,18.13,13.47,-3.9,1
911,18.15,3.42,5.4,1
912,18.16,-5.77,14.18,0
913,18.17,-1.98,7.53,0
914,18.19,7.57,-20.61,0
915,18.2,9.41,-63.52,0
916,18.21,6.58,-104.42,0
917,18.23,21.33,-128.18,0
918,18.24,53.37,-147.17,0
919,18.25,60.92,-175.23,0
920,18.27,29.71,-191.1,0
921,18.28,1.83,-182.2,0
922,18.29,2.46,-159.46,0
923,18.31,11.42,-120.03,0
924,18.32,9.01,-69.82,0
925,18.33,1.35,-26.39,0
926,18.34,-2.85,15.33,0
927,18.36,-8.24,54.82,0
928,18.37,-16.85,82.25,0
929,18.38,-25.42,107.2,0
930,18.4,-32.37,133.14,0
931,18.41,-34.21,154.93,0
932,18.42,-31.8,178.38,0
933,18.44,-30.92,194.75,0
934,18.45,-33.53,193.48,0
935,18.46,-36.39,190.79,0
936,18.48,-34.5,192.39,0
937,18.49,-27.6,190.7,0
938,18.5,-21.22,194.9,0
939,18.52,-16.68,196.34,0
940,18.53,-19.12,173.23,0
941,18.54,-32.55,145.22,0
942,18.56,-37.36,137.66,1
943,18.57,-22.89,135.22,1
944,18.58,-11.07,121.93,1
945,18.6,-11.82,104.08,1
946,18.61,-13.43,88.65,1
947,18.63,-9.03,78.55,1
948,18.64,-4.56,68.97,1
949,18.65,-8.46,53.12,1
950,18.67,-12.55,40.27,1
951,18.68,-1.8,34.53,1
952,18.69,11.87,26.88,1
953,18.71,10.6,22.8,1
954,18.72,5.85,23.69,1
955,18.73,8.11,16.28,1
956,18.75,7.88,4.85,1
957,18.76,5.87,-2.22,1
958,18.77,8.28,-13.53,1
959,18.79,10.73,-30.06,1
960,18.8,8.17,-38.15,1
961,18.81,-3.28,-31.96,1
962,18.83,-17.45,-22.98,1
963,18.84,-13.58,-27.88,1
964,18.85,7.75,-43.28,1
965,18.87,19.92,-49.12,1
966,18.88,15.83,-45.43,1
967,18.89,10.06,-48.3,1
968,18.91,4.17,-54.36,1
969,18.92,-6.34,-56.6,1
970,18.93,-9.22,-60.43,1
971,18.95,2.9,-62.63,1
972,18.96,15.65,-63.39,1
973,18.97,19.7,-71.62,1
974,18.98,24.97,-76.42,1
975,19.0,31.59,-69.49,1
976,19.01,18.8,-63.71,1
977,19.02,-9.29,-62.8,1
978,19.04,-16.54,-65.17,1
979,19.05,6.03,-70.87,1
980,19.06,26.15,-70.09,1
981,19.08,24.39,-63.4,1
982,19.09,15.61,-59.87,1
983,19.1,10.25,-56.31,1
984,19.12,3.36,-57.57,1
985,19.13,-1.2,-66.62,1
986,19.14,4.78,-63.22,1
987,19.16,17.85,-50.25,1
988,19.17,24.81,-54.18,1
989,19.18,17.07,-63.52,1
990,19.2,2.0,-55.62,1
991,19.21,-7.95,-43.89,1
992,19.22,-7.33,-42.35,1
993,19.24,0.04,-43.97,1
994,19.25,2.93,-43.83,1
995,19.265,1.28,-41.33,1
996,19.28,5.69,-36.57,1
997,19.29,10.82,-32.79,1
998,19.31,7.38,-28.42,1
999,19.32,0.52,-24.38,1
1000,19.33,-9.06,-31.12,1
1001,19.35,-21.09,-44.94,1
1002,19.36,-23.83,-48.36,1
1003,19.37,-15.95,-39.23,1
1004,19.39,-4.59,-26.47,1
1005,19.4,9.61,-16.24,1
1006,19.41,16.71,-12.88,1
1007,19.43,10.37,-12.36,1
1008,19.44,9.89,-10.86,1
1009,19.45,20.01,-12.49,1
1010,19.47,19.84,-11.12,1
1011,19.48,7.65,-2.13,1
1012,19.49,-0.85,-0.4,1
1013,19.51,2.08,-7.58,1
1014,19.52,10.91,-10.54,1
1015,19.53,12.46,-10.84,1
1016,19.55,6.43,-6.35,1
1017,19.56,5.8,5.99,1
1018,19.57,9.55,10.75,1
1019,19.59,10.23,6.0,1
1020,19.6,12.59,2.99,1
1021,19.61,13.32,1.49,1
1022,19.62,3.08,6.26,1
1023,19.64,-6.11,17.18,1
1024,19.65,-1.88,15.03,1
1025,19.67,5.72,1.95,1
1026,19.68,3.98,2.19,1
1027,19.69,-4.08,11.48,1
1028,19.7,-3.7,14.66,1
1029,19.72,5.23,17.25,1
1030,19.73,2.29,19.26,1
1031,19.75,-11.59,18.23,1
1032,19.76,-10.91,19.36,1
1033,19.77,4.9,17.79,1
1034,19.78,10.53,14.82,1
1035,19.8,-2.26,15.15,1
1036,19.81,-14.95,8.56,1
1037,19.82,-12.86,2.31,1
1038,19.84,-0.91,7.07,1
1039,19.85,8.03,6.03,1
1040,19.86,6.42,1.37,1
1041,19.88,-1.42,12.17,1
1042,19.89,-9.06,26.27,1
1043,19.9,-18.75,29.06,1
1044,19.92,-24.09,26.25,1
1045,19.93,-11.44,21.75,1
1046,19.95,7.91,22.29,1
1047,19.96,13.3,30.15,1
1048,19.97,9.91,28.51,1
1049,19.99,3.86,20.69,1
1050,20.0,-13.51,26.34,1
1051,20.01,-30.08,31.05,1
1052,20.03,-24.46,22.07,1
1053,20.04,-8.37,18.85,1
1054,20.05,-4.77,21.81,1
1055,20.07,-10.58,15.87,1
1056,20.08,-8.57,12.22,1
1057,20.09,1.24,16.9,1
1058,20.11,4.0,13.93,1
1059,20.12,-1.52,2.75,1
1060,20.13,-7.06,3.64,1
1061,20.15,-6.82,25.35,1
1062,20.16,-0.65,41.66,2
1063,20.17,-0.12,29.99,2
1064,20.19,-5.21,32.13,2
1065,20.2,-6.63,107.87,2
1066,20.21,-12.25,238.55,2
1067,20.23,-26.11,343.63,2
1068,20.24,-36.37,368.01,2
1069,20.25,-42.79,323.12,2
1070,20.26,-49.47,258.41,2
1071,20.28,-46.98,195.03,2
1072,20.29,-30.58,119.29,2
1073,20.3,-9.51,35.89,2
1074,20.32,9.85,-35.24,2
1075,20.33,26.81,-96.36,2
1076,20.34,40.14,-160.0,2
1077,20.36,48.37,-214.0,2
1078,20.37,46.44,-229.56,2
1079,20.38,29.06,-209.28,2
1080,20.4,11.32,-189.41,2
1081,20.41,9.73,-189.79,2
1082,20.42,12.1,-196.14,2
1083,20.44,5.57,-187.92,2
1084,20.45,1.2,-164.17,2
1085,20.46,7.08,-137.88,2
1086,20.48,14.84,-114.23,2
1087,20.49,16.86,-90.53,2
1088,20.5,14.07,-70.22,2
1089,20.52,11.54,-66.04,2
1090,20.53,11.93,-81.86,2
1091,20.54,10.45,-94.44,2
1092,20.56,6.52,-83.9,1
1093,20.57,6.24,-65.97,1
1094,20.59,6.64,-59.42,1
1095,20.6,2.2,-55.28,1
1096,20.61,-2.32,-45.5,1
1097,20.63,1.02,-38.27,1
1098,20.64,10.13,-39.0,1
1099,20.65,9.54,-45.26,1
1100,20.67,-5.93,-46.23,1
1101,20.68,-14.79,-32.96,1
1102,20.69,-7.47,-19.03,1
1103,20.71,-2.52,-17.41,1
1104,20.72,-5.94,-18.31,1
1105,20.73,-6.96,-12.14,1
1106,20.75,-2.57,0.35,1
1107,20.76,3.76,13.37,1
1108,20.77,3.05,16.34,1
1109,20.79,-4.81,12.28,1
1110,20.8,-3.95,15.58,1
1111,20.81,2.74,23.0,1
1112,20.83,-1.44,29.21,1
1113,20.84,-7.2,34.94,1
1114,20.85,-0.75,31.48,1
1115,20.87,6.16,25.21,1
1116,20.88,5.1,34.3,1
1117,20.89,0.66,44.96,1
1118,20.9,-8.37,41.65,1
1119,20.92,-15.35,38.37,1
1120,20.93,-7.75,42.15,1
1121,20.94,1.66,44.38,1
1122,20.96,-1.44,46.76,1
1123,20.97,-1.81,49.49,1
1124,20.98,8.8,44.65,1
1125,21.0,13.66,41.25,1
1126,21.01,1.97,46.82,1
1127,21.02,-15.61,45.64,1
1128,21.04,-19.07,38.07,1
1129,21.05,-4.63,41.85,1
1130,21.06,7.0,48.7,1
1131,21.08,1.88,44.87,1
1132,21.09,-8.9,39.78,1
1133,21.1,-14.05,44.76,1
1134,21.12,-12.92,53.21,1
1135,21.13,-5.93,46.99,1
1136,21.14,1.61,25.88,1
1137,21.16,2.63,17.53,1
1138,21.17,1.65,30.59,1
1139,21.18,5.0,42.85,1
1140,21.2,8.62,42.91,1
1141,21.21,4.36,36.74,1
1142,21.23,-5.68,33.82,1
1143,21.24,-10.77,35.83,1
1144,21.25,-11.51,32.57,1
1145,21.27,-11.76,28.91,1
1146,21.28,-3.46,35.03,1
1147,21.29,6.72,34.34,1
1148,21.31,-0.92,19.18,1
1149,21.32,-14.82,13.44,1
1150,21.33,-11.68,24.39,1
1151,21.35,-2.43,33.55,1
1152,21.36,-2.96,32.1,1
1153,21.37,-4.91,20.75,1
1154,21.39,-6.44,9.54,1
1155,21.4,-11.35,15.67,1
1156,21.41,-9.84,26.41,1
1157,21.43,-0.52,17.96,1
1158,21.44,4.18,6.3,1
1159,21.45,3.72,7.89,1
1160,21.47,4.96,8.17,1
1161,21.48,3.34,1.3,1
1162,21.49,-3.8,-1.23,1
1163,21.51,-7.0,5.34,1
1164,21.52,-6.64,13.8,1
1165,21.53,-11.04,9.98,1
1166,21.54,-9.63,-7.31,1
1167,21.56,7.82,-14.93,1
1168,21.57,20.04,-5.88,1
1169,21.58,8.44,-0.45,1
1170,21.6,-8.7,0.51,1
1171,21.61,-12.45,4.03,1
1172,21.62,-6.07,-0.47,1
1173,21.64,3.57,-10.55,1
1174,21.65,11.03,-16.66,1
1175,21.67,15.59,-23.76,1
1176,21.68,17.98,-30.02,1
1177,21.69,13.48,-27.98,1
1178,21.7,9.94,-17.32,1
1179,21.72,11.9,-3.4,1
1180,21.73,-0.13,-1.23,1
1181,21.75,-20.29,-13.48,1
1182,21.76,-15.29,-20.75,1
1183,21.77,5.51,-15.66,1
1184,21.78,9.61,-10.13,1
1185,21.8,6.59,-10.76,1
1186,21.81,13.06,-11.99,1
1187,21.82,12.69,-8.86,1
1188,21.84,0.83,-3.7,1
1189,21.85,-1.81,-3.83,1
1190,21.87,8.43,-13.03,1
1191,21.88,12.17,-19.48,1
1192,21.89,-1.24,-14.06,1
1193,21.91,-16.48,-7.6,1
1194,21.92,-12.41,-4.47,1
1195,21.93,3.96,-0.16,1
1196,21.95,9.36,-3.59,1
1197,21.96,3.85,-14.44,1
1198,21.97,1.63,-19.77,1
1199,21.99,2.66,-22.05,1
1200,22.0,5.07,-25.0,1
1201,22.01,11.17,-24.81,1
1202,22.03,14.44,-27.98,1
1203,22.04,7.11,-34.9,1
1204,22.05,-3.5,-34.35,1
1205,22.07,-0.59,-24.42,1
1206,22.08,11.04,-11.34,1
1207,22.09,9.33,-10.83,1
1208,22.11,0.15,-29.58,1
1209,22.12,1.22,-39.49,1
1210,22.13,1.26,-25.12,1
1211,22.15,-10.96,-12.97,1
1212,22.16,-17.78,-17.27,2
1213,22.17,-10.7,-16.81,2
1214,22.18,-4.26,-1.46,2
1215,22.2,7.7,9.35,2
1216,22.21,26.73,27.61,2
1217,22.22,8.53,117.94,2
1218,22.24,-33.94,222.99,2
1219,22.25,-36.11,161.54,2
1220,22.26,-18.96,77.1,2
1221,22.28,-12.81,249.07,2
1222,22.29,12.12,434.12,2
1223,22.3,74.45,350.26,2
1224,22.32,125.92,213.52,2
1225,22.33,64.29,202.1,2
1226,22.34,-74.57,204.28,2
1227,22.36,-131.86,151.68,2
1228,22.37,-90.5,101.46,2
1229,22.38,-29.87,79.96,2
1230,22.4,0.45,58.72,2
1231,22.41,-53.29,27.37,2
1232,22.42,-145.19,-0.41,2
1233,22.44,-108.68,-20.8,2
1234,22.45,31.12,-40.22,2
1235,22.46,66.8,-60.16,2
1236,22.48,6.52,-77.7,2
1237,22.49,6.79,-92.28,2
1238,22.5,72.39,-105.69,2
1239,22.52,95.94,-118.76,2
1240,22.53,48.89,-130.53,2
1241,22.55,30.94,-140.4,1
1242,22.56,88.43,-148.66,1
1243,22.57,133.0,-155.84,1
1244,22.59,94.93,-161.56,1
1245,22.6,19.94,-166.14,1
1246,22.61,-25.11,-169.98,1
1247,22.63,-55.7,-173.02,1
1248,22.64,-58.5,-174.92,1
1249,22.65,20.42,-175.89,1
1250,22.67,87.25,-176.21,1
1251,22.68,13.67,-175.65,1
1252,22.69,-106.62,-174.13,1
1253,22.71,-91.54,-172.14,1
1254,22.72,22.15,-170.12,1
1255,22.73,51.44,-167.59,1
1256,22.75,4.18,-163.65,1
1257,22.76,8.86,-158.97,1
1258,22.77,26.66,-154.66,1
1259,22.79,-4.54,-150.53,1
1260,22.8,-25.39,-145.29,1
1261,22.81,-26.47,-139.11,1
1262,22.82,-35.35,-133.21,1
1263,22.84,-25.79,-127.37,1
1264,22.85,-24.8,-120.82,1
1265,22.86,-56.89,-114.18,1
1266,22.88,-23.46,-107.62,1
1267,22.89,91.93,-100.65,1
1268,22.9,114.68,-93.62,1
1269,22.92,-2.44,-86.83,1
1270,22.93,-59.21,-79.91,1
1271,22.94,30.95,-72.84,1
1272,22.96,86.74,-65.73,1
1273,22.97,-2.59,-58.17,1
1274,22.98,-99.08,-50.52,1
1275,23.0,-93.5,-43.42,1
1276,23.01,-42.86,-36.87,1
1277,23.02,-13.21,-30.42,1
1278,23.04,-23.41,-24.0,1
1279,23.05,-43.35,-17.44,1
1280,23.06,-27.13,-11.03,1
1281,23.08,6.33,-5.48,1
1282,23.09,34.71,-10.94,1
1283,23.1,53.86,-40.61,1
1284,23.12,30.66,-86.99,1
1285,23.13,-0.25,-149.02,1
1286,23.14,30.85,-211.14,1
1287,23.16,58.25,-225.04,1
1288,23.17,-0.54,-239.38,1
1289,23.19,-39.58,-320.51,1
1290,23.2,27.86,-370.34,1
1291,23.21,52.3,-286.03,1
1292,23.23,-41.28,-118.91,1
1293,23.24,-80.23,27.46,1
1294,23.25,-10.79,114.11,1
1295,23.27,13.86,134.86,1
1296,23.28,-29.65,89.15,1
1297,23.29,-30.46,23.87,1
1298,23.31,16.25,-38.94,1
1299,23.32,51.05,-48.85,1
1300,23.33,55.96,84.52,1
1301,23.35,35.73,238.98,1
1302,23.36,8.76,253.81,1
1303,23.37,-16.47,243.66,1
1304,23.39,-30.4,275.01,1
1305,23.4,-29.53,217.52,1
1306,23.41,-30.45,121.52,1
1307,23.43,-19.91,140.61,1
1308,23.44,5.3,193.64,1
1309,23.45,19.21,150.32,1
1310,23.46,18.28,126.67,1
1311,23.48,2.56,258.59,1
1312,23.49,-14.15,381.38,1
1313,23.5,4.34,305.15,1
1314,23.52,44.84,161.26,1
1315,23.53,41.28,142.62,1
1316,23.54,-2.75,195.69,1
1317,23.56,-0.68,211.57,1
1318,23.57,30.28,226.69,1
1319,23.58,-9.96,239.04,1
1320,23.6,-68.76,195.66,1
1321,23.61,-38.45,180.48,1
1322,23.62,13.28,251.82,1
1323,23.64,-20.44,329.99,1
1324,23.65,-88.41,325.1,1
1325,23.67,-54.07,212.57,1
1326,23.68,80.99,115.41,1
1327,23.69,108.02,150.39,1
1328,23.7,-33.87,212.05,1
1329,23.72,-83.04,184.02,1
1330,23.73,47.82,136.28,1
1331,23.75,93.86,98.23,1
1332,23.76,-12.83,6.33,1
1333,23.77,-36.75,-16.67,1
1334,23.78,40.31,103.21,1
1335,23.8,23.28,138.51,1
1336,23.81,-71.96,60.81,1
1337,23.83,-90.93,89.58,1
1338,23.84,-24.76,173.3,1
1339,23.85,23.81,155.17,1
1340,23.87,9.91,120.98,1
1341,23.88,-20.59,168.77,1
1342,23.89,-42.49,209.5,1
1343,23.91,-63.8,162.45,1
1344,23.92,-45.28,97.41,1
1345,23.93,15.5,86.62,1
1346,23.95,42.92,60.64,1
1347,23.96,29.33,-58.02,1
1348,23.97,20.1,-137.97,1
1349,23.99,2.25,-41.02,1
1350,24.0,-19.43,86.38,1
1351,24.01,-7.98,86.17,1
1352,24.03,-1.49,13.87,1
1353,24.04,-26.26,-57.56,1
1354,24.05,-24.81,-69.22,1
1355,24.07,6.44,14.44,1
1356,24.08,14.54,81.92,1
1357,24.09,-2.45,40.56,1
1358,24.1,-10.41,-49.23,1
1359,24.12,-1.92,-93.71,1
1360,24.13,7.12,-47.1,1
1361,24.14,30.93,28.35,1
1362,24.16,58.68,14.96,0
1363,24.17,38.23,-71.66,0
1364,24.18,0.65,-111.94,0
1365,24.2,1.75,-103.44,0
1366,24.21,7.57,-127.18,0
1367,24.22,-9.37,-164.69,0
1368,24.24,-12.59,-173.04,0
1369,24.25,6.94,-203.93,0
1370,24.26,14.64,-296.92,0
1371,24.28,4.67,-396.38,0
1372,24.29,-1.0,-440.11,0
1373,24.3,4.35,-430.41,0
1374,24.32,12.34,-390.32,0
1375,24.33,18.28,-324.12,0
1376,24.34,19.54,-237.22,0
1377,24.36,11.79,-145.08,0
1378,24.37,3.26,-60.27,0
1379,24.38,2.73,0.84,0
1380,24.4,1.56,31.16,0
1381,24.41,-4.4,47.91,0
1382,24.42,-6.63,68.74,0
1383,24.44,0.16,97.41,0
1384,24.45,9.05,122.1,0
1385,24.46,1.0,112.81,0
1386,24.48,-21.12,70.13,0
1387,24.49,-21.87,42.48,0
1388,24.51,6.94,39.39,0
1389,24.52,27.39,16.42,0
1390,24.53,18.97,-22.06,0
1391,24.55,4.66,-28.93,1
1392,24.56,2.3,-8.08,1
1393,24.57,2.45,0.21,1
1394,24.59,-3.34,-17.37,1
1395,24.6,-5.67,-35.36,1
1396,24.61,0.61,-28.57,1
1397,24.63,3.83,-18.31,1
1398,24.64,1.5,-27.83,1
1399,24.65,2.62,-29.36,1
1400,24.67,1.57,-10.54,1
1401,24.68,-7.04,-3.8,1
1402,24.69,-13.44,-9.82,1
1403,24.71,-12.81,-1.9,1
1404,24.72,-6.61,6.84,1
1405,24.73,2.91,-1.94,1
1406,24.75,2.88,-11.1,1
1407,24.76,-10.74,-9.69,1
1408,24.77,-19.65,-5.74,1
1409,24.78,-12.59,-7.25,1
1410,24.8,3.37,-13.76,1
1411,24.81,12.77,-12.01,1
1412,24.82,4.57,-0.69,1
1413,24.84,-8.25,6.77,1
1414,24.85,-8.17,8.82,1
1415,24.86,-6.39,4.02,1
1416,24.88,-10.99,-4.54,1
1417,24.89,-4.19,2.48,1
1418,24.9,10.73,15.56,1
1419,24.92,8.86,8.63,1
1420,24.93,-7.38,-4.03,1
1421,24.94,-16.29,-8.72,1
1422,24.96,-7.06,-17.71,1
1423,24.97,8.62,-22.84,1
1424,24.98,8.87,-15.3,1
1425,25.0,0.46,-11.76,1
1426,25.01,5.04,-13.75,1
1427,25.02,12.03,-11.27,1
1428,25.04,5.47,-14.17,1
1429,25.05,1.91,-25.74,1
1430,25.06,7.43,-30.81,1
1431,25.08,2.95,-22.62,1
1432,25.09,-7.58,-6.21,1
1433,25.1,-6.09,0.73,1
1434,25.12,-0.13,-12.3,1
1435,25.13,-6.04,-21.21,1
1436,25.15,-16.33,-14.36,1
1437,25.16,-11.95,-17.66,1
1438,25.17,6.09,-31.31,1
1439,25.19,17.75,-32.71,1
1440,25.2,11.59,-29.24,1
1441,25.21,-1.9,-29.91,1
1442,25.23,-6.57,-25.72,1
1443,25.24,-2.27,-22.87,1
1444,25.25,3.18,-26.61,1
1445,25.27,9.2,-23.02,1
1446,25.28,9.31,-12.43,1
1447,25.29,-2.85,-10.26,1
1448,25.31,-11.41,-15.74,1
1449,25.32,-2.26,-14.92,1
1450,25.33,10.65,-8.93,1
1451,25.35,9.77,-14.72,1
1452,25.36,0.25,-24.91,1
1453,25.37,-2.92,-14.63,1
1454,25.38,1.51,1.04,1
1455,25.4,5.99,-6.8,1
1456,25.41,7.04,-21.37,1
1457,25.42,2.48,-19.87,1
1458,25.44,-4.72,-17.22,1
1459,25.45,-3.26,-21.26,1
1460,25.46,5.95,-21.99,1
1461,25.48,8.24,-24.19,1
1462,25.49,0.82,-28.13,1
1463,25.5,-5.75,-21.86,1
1464,25.52,-4.58,-8.01,1
1465,25.53,0.07,0.4,1
1466,25.54,1.48,-2.76,1
1467,25.56,2.31,-10.35,1
1468,25.57,1.92,-8.32,1
1469,25.58,-7.11,-1.64,1
1470,25.6,-14.14,-4.92,1
1471,25.61,-4.39,-9.84,1
1472,25.62,4.44,-7.91,1
1473,25.64,-2.98,-5.91,1
1474,25.65,-2.19,-0.02,1
1475,25.67,13.07,9.46,1
1476,25.68,9.44,7.18,1
1477,25.69,-11.22,-4.82,1
1478,25.7,-13.27,-8.75,1
1479,25.72,2.47,-0.56,1
1480,25.73,8.81,8.46,1
1481,25.75,2.75,6.87,1
1482,25.76,3.15,0.64,1
1483,25.77,12.85,4.83,1
1484,25.79,10.89,12.71,1
1485,25.8,-5.48,11.99,1
1486,25.81,-10.76,12.7,1
1487,25.83,-1.37,15.54,1
1488,25.84,1.77,6.54,1
1489,25.85,-0.88,-0.52,1
1490,25.87,2.24,11.98,1
1491,25.88,5.14,22.7,1
1492,25.89,0.94,13.99,1
1493,25.91,-8.32,4.29,1
1494,25.92,-14.84,8.91,1
1495,25.93,-8.33,16.55,1
1496,25.95,5.16,16.26,1
1497,25.96,8.59,18.63,1
1498,25.97,2.47,27.97,1
1499,25.99,-4.27,28.76,1
1500,26.0,-9.47,17.49,1
1501,26.01,-6.7,10.09,1
1502,26.02,6.8,15.06,1
1503,26.04,14.51,18.2,1
1504,26.05,6.58,10.5,1
1505,26.06,-1.69,8.21,1
1506,26.08,-2.72,16.71,1
1507,26.09,-2.48,22.16,1
1508,26.1,2.8,20.1,1
1509,26.12,9.72,12.17,1
1510,26.13,6.88,8.2,1
1511,26.14,0.25,17.31,1
1512,26.16,-1.78,22.59,0
1513,26.17,0.91,18.0,0
1514,26.18,11.77,15.18,0
1515,26.2,24.05,-10.16,0
1516,26.21,25.58,-70.24,0
1517,26.22,23.64,-117.58,0
1518,26.24,25.9,-130.52,0
1519,26.25,27.14,-138.96,0
1520,26.26,27.64,-152.33,0
1521,26.28,25.45,-157.09,0
1522,26.29,20.85,-150.43,0
1523,26.3,24.41,-136.12,0
1524,26.32,31.26,-116.38,0
1525,26.33,26.66,-87.82,0
1526,26.34,11.94,-45.5,0
1527,26.36,-2.02,0.19,0
1528,26.37,-8.54,34.15,0
1529,26.38,-10.19,54.7,0
1530,26.4,-16.11,75.39,0
1531,26.41,-24.54,116.34,0
1532,26.43,-22.99,166.09,0
1533,26.44,-18.47,187.09,0
1534,26.45,-27.25,184.07,0
1535,26.47,-38.8,187.28,0
1536,26.48,-38.0,190.73,0
1537,26.49,-33.84,182.68,0
1538,26.51,-38.25,173.42,0
1539,26.52,-46.99,168.86,0
1540,26.53,-42.59,171.02,0
1541,26.55,-28.07,174.17,1
1542,26.56,-28.58,162.74,1
1543,26.57,-31.2,146.43,1
1544,26.59,-20.16,141.55,1
1545,26.6,-23.85,133.72,1
1546,26.61,-39.9,116.18,1
1547,26.63,-33.5,102.69,1
1548,26.64,-13.59,88.8,1
1549,26.65,-5.11,69.48,1
1550,26.67,-2.19,57.31,1
1551,26.68,4.33,51.77,1
1552,26.69,4.98,44.55,1
1553,26.7,-4.23,34.87,1
1554,26.72,-8.69,20.47,1
1555,26.73,1.88,10.09,1
1556,26.75,16.75,11.16,1
1557,26.76,23.19,5.12,1
1558,26.77,16.43,-11.95,1
1559,26.78,1.09,-17.2,1
1560,26.8,-9.59,-14.09,1
1561,26.81,-10.2,-20.75,1
1562,26.82,-7.34,-28.03,1
1563,26.84,-7.62,-30.45,1
1564,26.85,-6.19,-38.55,1
1565,26.86,5.49,-50.52,1
1566,26.88,18.99,-60.58,1
1567,26.89,21.42,-62.36,1
1568,26.9,18.86,-51.21,1
1569,26.92,18.28,-46.83,1
1570,26.93,14.59,-60.07,1
1571,26.94,7.37,-65.1,1
1572,26.96,3.26,-54.82,1
1573,26.97,1.78,-52.91,1
1574,26.98,3.71,-61.2,1
1575,27.0,11.79,-66.25,1
1576,27.01,17.14,-67.69,1
1577,27.02,13.79,-67.11,1
1578,27.04,9.71,-67.26,1
1579,27.05,6.33,-70.35,1
1580,27.065,-0.77,-69.73,1
1581,27.08,-4.9,-65.05,1
1582,27.09,-1.12,-61.52,1
1583,27.11,-0.63,-58.63,1
1584,27.12,-7.98,-60.37,1
1585,27.13,-7.95,-65.55,1
1586,27.15,3.52,-61.25,1
1587,27.16,10.6,-53.16,1
1588,27.17,10.61,-56.05,1
1589,27.19,12.44,-62.46,1
1590,27.2,15.44,-63.22,1
1591,27.21,14.04,-57.46,1
1592,27.23,3.94,-46.45,1
1593,27.24,-7.14,-45.89,1
1594,27.25,-1.05,-58.7,1
1595,27.27,15.54,-60.04,1
1596,27.28,19.28,-49.94,1
1597,27.29,13.25,-49.86,1
1598,27.3,10.69,-50.06,1
1599,27.32,6.44,-36.83,1
1600,27.33,-1.81,-25.29,1
1601,27.34,-4.37,-25.64,1
1602,27.36,1.97,-34.17,1
1603,27.37,11.42,-43.72,1
1604,27.38,14.41,-39.26,1
1605,27.4,4.12,-22.25,1
1606,27.41,-6.86,-10.9,1
1607,27.42,-0.17,-9.48,1
1608,27.44,12.18,-17.09,1
1609,27.45,14.01,-28.39,1
1610,27.46,18.32,-27.46,1
1611,27.48,25.09,-21.46,1
1612,27.49,14.14,-28.32,1
1613,27.5,-3.78,-32.27,1
1614,27.52,-5.08,-17.92,1
1615,27.53,2.42,-2.96,1
1616,27.54,1.12,0.15,1
1617,27.56,-2.58,0.64,1
1618,27.57,5.38,6.03,1
1619,27.58,16.57,11.16,1
1620,27.6,14.59,6.92,1
1621,27.61,5.7,-0.99,1
1622,27.62,0.2,3.8,1
1623,27.64,-7.45,14.26,1
1624,27.65,-9.5,12.85,1
1625,27.67,3.9,10.01,1
1626,27.68,10.35,13.93,1
1627,27.69,-1.35,11.22,1
1628,27.7,-8.16,6.88,1
1629,27.72,-5.84,13.75,1
1630,27.73,-8.15,21.6,1
1631,27.75,-8.96,21.89,1
1632,27.76,-1.23,18.36,1
1633,27.77,2.04,15.73,1
1634,27.79,-6.04,18.7,1
1635,27.8,-10.01,21.61,1
1636,27.81,-2.91,16.26,1
1637,27.83,-1.46,10.85,1
1638,27.84,-12.03,10.65,1
1639,27.85,-16.06,12.92,1
1640,27.87,-10.18,23.4,1
1641,27.88,-10.75,32.34,1
1642,27.89,-11.44,23.56,1
1643,27.91,-1.37,14.73,1
1644,27.92,0.45,17.43,1
1645,27.93,-10.5,14.86,1
1646,27.94,-8.97,12.02,1
1647,27.96,1.37,20.52,1
1648,27.97,-3.14,25.34,1
1649,27.98,-10.41,19.49,1
1650,28.0,-2.94,14.55,1
1651,28.01,4.43,19.48,1
1652,28.02,1.78,32.72,1
1653,28.04,-3.22,37.69,1
1654,28.05,-8.13,27.67,1
1655,28.06,-9.56,22.88,1
1656,28.08,-4.49,28.71,1
1657,28.09,-0.79,25.04,1
1658,28.1,-2.73,13.81,1
1659,28.12,-7.17,12.17,1
1660,28.13,-12.21,18.98,1
1661,28.14,-13.48,29.13,1
1662,28.16,-10.01,34.27,2
1663,28.17,-3.93,23.75,2
1664,28.18,5.22,13.82,2
1665,28.2,11.17,16.82,2
1666,28.21,8.45,17.37,2
1667,28.22,4.99,25.64,2
1668,28.24,2.43,75.43,2
1669,28.25,-10.99,177.61,2
1670,28.26,-35.22,306.93,2
1671,28.28,-54.84,389.71,2
1672,28.29,-60.01,366.44,2
1673,28.3,-54.33,284.01,2
1674,28.32,-46.19,213.44,2
1675,28.33,-35.85,146.02,2
1676,28.34,-20.19,68.22,2
1677,28.36,-4.68,5.16,2
1678,28.37,5.03,-45.74,2
1679,28.39,8.31,-110.86,2
1680,28.4,9.16,-188.4,2
1681,28.41,19.81,-239.66,2
1682,28.43,40.28,-234.85,2
1683,28.44,49.75,-208.21,2
1684,28.45,44.46,-203.46,2
1685,28.47,41.07,-201.31,2
1686,28.48,37.19,-180.5,2
1687,28.49,22.73,-163.77,2
1688,28.51,11.64,-159.14,2
1689,28.52,15.53,-150.18,2
1690,28.53,19.99,-132.68,2
1691,28.55,15.34,-112.54,1
1692,28.56,12.47,-101.82,1
1693,28.57,17.19,-103.13,1
1694,28.58,21.71,-95.03,1
1695,28.6,23.87,-77.11,1
1696,28.61,27.78,-74.73,1
1697,28.62,30.42,-77.41,1
1698,28.64,27.9,-55.35,1
1699,28.65,23.59,-25.86,1
1700,28.67,20.78,-19.68,1
1701,28.68,16.25,-28.08,1
1702,28.69,9.23,-29.52,1
1703,28.7,4.15,-20.43,1
1704,28.72,0.55,-12.49,1
1705,28.73,-0.99,-14.37,1
1706,28.75,3.56,-13.69,1
1707,28.76,4.85,-6.69,1
1708,28.77,-4.84,-5.9,1
1709,28.78,-9.95,1.65,1
1710,28.8,-4.96,22.32,1
1711,28.81,-7.23,28.13,1
1712,28.82,-12.57,23.18,1
1713,28.84,-5.42,32.24,1
1714,28.85,3.12,37.25,1
1715,28.86,-2.26,25.08,1
1716,28.88,-18.38,16.61,1
1717,28.89,-27.98,20.84,1
1718,28.9,-16.66,30.81,1
1719,28.92,2.05,37.67,1
1720,28.93,2.93,33.75,1
1721,28.94,-11.15,31.18,1
1722,28.96,-17.97,39.88,1
1723,28.97,-9.55,41.46,1
1724,28.98,0.75,30.71,1
1725,29.0,-0.2,28.82,1
1726,29.01,-12.1,37.09,1
1727,29.025,-24.16,44.33,1
1728,29.04,-22.82,49.5,1
1729,29.05,-8.13,48.34,1
1730,29.07,2.49,41.3,1
1731,29.08,-1.34,35.16,1
1732,29.09,-10.67,28.76,1
1733,29.11,-12.48,25.89,1
1734,29.12,-3.81,32.3,1
1735,29.13,5.48,41.5,1
1736,29.15,2.72,50.59,1
1737,29.16,-8.49,57.13,1
1738,29.17,-12.71,49.81,1
1739,29.19,-7.59,37.71,1
1740,29.2,-2.06,39.36,1
1741,29.21,2.56,43.89,1
1742,29.22,4.9,42.3,1
1743,29.24,-3.02,41.59,1
1744,29.25,-14.85,37.86,1
1745,29.26,-15.94,32.24,1
1746,29.28,-8.67,32.08,1
1747,29.29,-3.25,33.34,1
1748,29.3,-1.85,38.28,1
1749,29.32,-1.73,41.63,1
1750,29.33,-0.33,24.2,1
1751,29.34,-1.69,5.96,1
1752,29.36,-10.51,14.68,1
1753,29.37,-19.6,23.16,1
1754,29.38,-20.25,10.81,1
1755,29.4,-11.91,2.14,1
1756,29.41,2.45,9.07,1
1757,29.42,14.17,18.27,1
1758,29.44,13.66,21.47,1
1759,29.45,2.46,21.35,1
1760,29.46,-5.96,24.53,1
1761,29.48,-2.37,23.14,1
1762,29.49,3.31,8.76,1
1763,29.5,-2.88,5.2,1
1764,29.52,-12.13,20.15,1
1765,29.53,-5.82,17.98,1
1766,29.54,8.49,0.47,1
1767,29.56,8.91,1.87,1
1768,29.57,-1.22,8.48,1
1769,29.58,-4.05,-1.38,1
1770,29.6,-1.09,-9.31,1
1771,29.61,-3.29,-7.08,1
1772,29.62,-7.07,-3.15,1
1773,29.64,-4.66,0.04,1
1774,29.65,2.63,-8.53,1
1775,29.67,9.81,-23.75,1
1776,29.68,11.19,-20.47,1
1777,29.69,2.76,-10.63,1
1778,29.71,-6.54,-17.54,1
1779,29.72,-5.67,-23.23,1
1780,29.73,-1.7,-19.22,1
1781,29.75,-1.34,-22.45,1
1782,29.76,2.33,-28.1,1
1783,29.77,7.5,-25.5,1
1784,29.79,5.75,-18.18,1
1785,29.8,1.73,-9.94,1
1786,29.81,2.64,-10.17,1
1787,29.83,4.93,-20.23,1
1788,29.84,6.2,-24.63,1
1789,29.85,10.7,-23.01,1
1790,29.86,15.3,-24.71,1
1791,29.88,7.88,-24.59,1
1792,29.89,-6.32,-23.6,1
1793,29.9,-8.23,-24.37,1
1794,29.92,-0.29,-19.27,1
1795,29.93,5.28,-11.97,1
1796,29.94,10.24,-4.91,1
1797,29.96,10.53,4.35,1
1798,29.97,1.44,-1.0,1
1799,29.98,-4.9,-21.43,1
1800,30.0,-2.63,-27.88,1
1801,30.01,0.2,-18.49,1
1802,30.02,3.88,-11.61,1
1803,30.04,9.1,-4.92,1
1804,30.05,10.8,-2.05,1
1805,30.06,6.92,-15.74,1
1806,30.08,-2.72,-33.72,1
1807,30.09,-9.56,-37.51,1
1808,30.1,-4.49,-24.29,1
1809,30.12,3.87,-7.51,1
1810,30.13,7.29,-10.91,1
1811,30.14,10.45,-30.16,1
1812,30.16,8.54,-39.23,2
1813,30.17,-1.02,-42.96,2
1814,30.18,1.69,-52.65,2
1815,30.2,19.55,-54.15,2
1816,30.21,22.37,0.16,2
1817,30.22,2.88,190.04,2
1818,30.24,4.7,420.93,2
1819,30.25,42.32,389.85,2
1820,30.26,41.97,126.7,2
1821,30.28,-27.97,77.9,2
1822,30.29,-75.6,309.83,2
1823,30.3,-45.88,400.14,2
1824,30.32,-1.8,251.13,2
1825,30.33,5.45,150.51,2
1826,30.35,-2.81,166.8,2
1827,30.36,8.63,156.5,2
1828,30.37,28.08,98.23,2
1829,30.39,-12.46,59.83,2
1830,30.4,-100.24,45.16,2
1831,30.41,-118.4,22.17,2
1832,30.43,-52.82,-7.84,2
1833,30.44,13.18,-30.45,2
1834,30.45,34.38,-47.59,2
1835,30.47,-12.26,-66.0,2
1836,30.48,-91.85,-84.01,2
1837,30.49,-89.55,-98.57,2
1838,30.5,17.17,-111.23,2
1839,30.52,81.28,-123.46,2
1840,30.53,24.84,-134.14,2
1841,30.54,-22.69,-143.22,2
1842,30.56,7.68,-160.05,1
1843,30.57,11.61,-200.97,1
1844,30.58,-6.45,-266.37,1
1845,30.6,48.06,-331.52,1
1846,30.61,96.72,-372.12,1
1847,30.62,47.97,-395.05,1
1848,30.64,-3.34,-415.8,1
1849,30.65,22.87,-429.04,1
1850,30.67,57.23,-411.96,1
1851,30.68,38.56,-337.57,1
1852,30.69,18.7,-243.93,1
1853,30.7,48.46,-228.92,1
1854,30.72,85.04,-264.66,1
1855,30.73,69.03,-215.62,1
1856,30.75,36.86,-136.05,1
1857,30.76,52.05,-183.09,1
1858,30.77,60.94,-253.56,1
1859,30.78,6.39,-180.05,1
1860,30.8,-47.92,-79.98,1
1861,30.81,-40.66,-111.27,1
1862,30.82,13.85,-168.48,1
1863,30.84,68.81,-101.98,1
1864,30.85,71.79,-3.43,1
1865,30.86,15.45,-24.08,1
1866,30.88,-32.93,-117.97,1
1867,30.89,-42.67,-166.46,1
1868,30.9,-56.87,-99.49,1
1869,30.92,-65.39,66.89,1
1870,30.93,-34.88,150.51,1
1871,30.94,3.08,71.06,1
1872,30.96,25.62,18.77,1
1873,30.97,29.98,62.36,1
1874,30.99,2.3,59.25,1
1875,31.0,-36.42,20.66,1
1876,31.01,-63.12,55.92,1
1877,31.03,-66.49,114.02,1
1878,31.04,-18.77,136.02,1
1879,31.05,40.39,161.35,1
1880,31.07,38.8,175.72,1
1881,31.08,16.94,158.46,1
1882,31.09,26.56,163.88,1
1883,31.11,13.5,201.46,1
1884,31.12,-27.31,215.91,1
1885,31.13,-15.5,155.79,1
1886,31.14,23.06,39.89,1
1887,31.16,-6.13,13.46,1
1888,31.17,-73.2,115.05,1
1889,31.18,-80.02,166.56,1
1890,31.2,-16.24,140.9,1
1891,31.21,32.96,164.26,1
1892,31.22,4.21,170.65,1
1893,31.24,-40.35,76.54,1
1894,31.25,-28.79,14.56,1
1895,31.26,-19.96,72.83,1
1896,31.28,-63.19,141.9,1
1897,31.29,-83.23,136.68,1
1898,31.3,-37.16,109.77,1
1899,31.32,-0.66,136.54,1
1900,31.33,-12.0,199.14,1
1901,31.34,3.87,197.93,1
1902,31.36,43.03,123.31,1
1903,31.37,8.85,89.05,1
1904,31.38,-44.48,133.32,1
1905,31.4,-11.0,179.3,1
1906,31.41,53.5,176.18,1
1907,31.42,65.36,134.1,1
1908,31.44,41.93,106.87,1
1909,31.45,16.78,151.48,1
1910,31.46,-15.63,192.39,1
1911,31.48,-31.71,123.22,1
1912,31.49,-1.15,36.25,1
1913,31.5,20.91,42.78,1
1914,31.52,-1.83,90.15,1
1915,31.53,-2.78,118.89,1
1916,31.54,26.87,131.95,1
1917,31.56,5.91,131.44,1
1918,31.57,-42.73,98.5,1
1919,31.58,-43.62,36.83,1
1920,31.6,-33.47,33.33,1
1921,31.61,-29.36,93.38,1
1922,31.63,12.09,85.78,1
1923,31.64,42.09,20.46,1
1924,31.65,2.07,4.38,1
1925,31.67,-43.67,14.55,1
1926,31.68,-33.9,4.68,1
1927,31.69,-11.27,13.56,1
1928,31.71,0.77,45.08,1
1929,31.72,29.29,28.69,1
1930,31.73,43.79,-17.97,1
1931,31.75,15.7,-15.42,1
1932,31.76,-3.99,20.98,1
1933,31.77,-2.85,42.39,1
1934,31.78,-22.55,33.39,1
1935,31.8,-27.55,12.35,1
1936,31.81,22.47,3.55,1
1937,31.82,53.7,-10.6,1
1938,31.84,17.03,-38.27,1
1939,31.85,-9.36,-76.0,1
1940,31.86,14.08,-127.71,1
1941,31.88,6.68,-133.05,1
1942,31.89,-54.56,-50.06,1
1943,31.9,-79.21,4.03,1
1944,31.92,-35.03,-47.91,1
1945,31.93,14.05,-86.68,1
1946,31.94,19.1,-70.46,1
1947,31.96,-15.63,-85.42,1
1948,31.97,-36.09,-98.08,1
1949,31.98,0.96,-52.28,1
1950,32.0,42.94,-29.23,1
1951,32.01,30.92,-52.58,1
1952,32.03,0.07,-19.91,1
1953,32.04,-2.59,55.17,1
1954,32.05,19.59,60.88,1
1955,32.06,37.08,-0.44,1
1956,32.08,32.88,-47.03,1
1957,32.09,29.81,-33.65,1
1958,32.11,37.54,-13.99,1
1959,32.12,32.46,-77.97,1
1960,32.13,6.92,-156.54,1
1961,32.15,-23.6,-138.53,1
1962,32.16,-28.52,-101.54,0
1963,32.17,-9.55,-103.79,0
1964,32.19,-8.55,-87.07,0
1965,32.2,-15.38,-115.77,0
1966,32.21,1.4,-258.49,0
1967,32.22,11.42,-367.75,0
1968,32.24,-8.11,-340.78,0
1969,32.25,-20.34,-299.93,0
1970,32.27,15.71,-321.63,0
1971,32.28,72.29,-308.42,0
1972,32.29,73.13,-210.38,0
1973,32.31,27.07,-102.64,0
1974,32.32,7.25,-29.56,0
1975,32.33,14.9,17.84,0
1976,32.35,16.13,35.28,0
1977,32.36,13.49,46.72,0
1978,32.37,14.4,79.48,0
1979,32.39,9.66,88.12,0
1980,32.4,-4.69,62.38,0
1981,32.41,-16.48,64.6,0
1982,32.43,-18.93,86.85,0
1983,32.44,-16.34,85.02,0
1984,32.45,-13.3,74.45,0
1985,32.47,-11.33,65.57,0
1986,32.48,-6.84,58.41,0
1987,32.49,-1.73,72.99,0
1988,32.51,-2.36,89.88,0
1989,32.52,-8.97,74.68,0
1990,32.53,-17.42,52.49,0
1991,32.54,-13.27,52.23,0
1992,32.56,8.71,59.83,1
1993,32.57,22.88,57.66,1
1994,32.59,9.7,39.37,1
1995,32.6,-11.35,21.8,1
1996,32.61,-17.2,26.69,1
1997,32.63,-12.58,35.24,1
1998,32.64,-9.0,30.25,1
1999,32.65,-9.13,28.4,1
2000,32.67,-12.93,33.19,1
2001,32.68,-17.56,38.4,1
2002,32.69,-16.68,53.22,1
2003,32.71,-9.85,69.98,1
2004,32.72,-7.22,65.94,1
2005,32.73,-10.18,44.82,1
2006,32.75,-7.26,30.21,1
2007,32.76,-2.29,36.34,1
2008,32.77,-5.93,47.36,1
2009,32.79,-10.08,29.24,1
2010,32.8,-8.49,-2.75,1
2011,32.81,-6.21,-0.33,1
2012,32.83,-0.87,16.01,1
2013,32.84,4.31,-2.04,1
2014,32.85,-1.37,-30.52,1
2015,32.87,-9.93,-30.6,1
2016,32.88,-7.62,-13.03,1
2017,32.89,-0.52,2.36,1
2018,32.9,2.46,7.48,1
2019,32.92,2.93,9.72,1
2020,32.93,2.23,21.62,1
2021,32.95,3.8,25.89,1
2022,32.96,9.03,9.74,1
2023,32.97,9.33,-2.03,1
2024,32.99,5.27,0.93,1
2025,33.0,5.19,-0.42,1
2026,33.01,7.92,-10.08,1
2027,33.03,8.74,-15.18,1
2028,33.04,7.87,-9.54,1
2029,33.05,8.66,1.09,1
2030,33.06,6.6,4.11,1
2031,33.08,-7.25,2.19,1
2032,33.09,-18.54,9.71,1
2033,33.11,-7.39,15.53,1
2034,33.12,9.19,6.9,1
2035,33.13,9.7,1.2,1
2036,33.15,4.25,0.79,1
2037,33.16,-1.38,-5.66,1
2038,33.17,-9.75,-4.95,1
2039,33.19,-5.16,3.75,1
2040,33.2,11.8,1.87,1
2041,33.21,13.82,-1.22,1
2042,33.22,-0.69,6.86,1
2043,33.24,-11.38,15.52,1
2044,33.25,-9.78,19.6,1
2045,33.27,3.47,14.57,1
2046,33.28,15.19,-1.06,1
2047,33.29,11.58,-8.16,1
2048,33.31,0.94,-2.05,1
2049,33.32,-5.44,-0.18,1
2050,33.33,-5.8,-2.51,1
2051,33.35,2.92,0.11,1
2052,33.36,13.24,4.04,1
2053,33.37,12.23,7.06,1
2054,33.38,1.57,4.25,1
2055,33.4,-8.21,-6.77,1
2056,33.41,-8.05,-8.85,1
2057,33.43,3.25,-2.27,1
2058,33.44,15.26,-1.75,1
2059,33.45,14.81,3.45,1
2060,33.47,4.01,9.71,1
2061,33.48,-0.29,-3.83,1
2062,33.49,6.99,-20.26,1
2063,33.51,12.78,-18.0,1
2064,33.52,6.15,-7.49,1
2065,33.53,-8.97,-3.46,1
2066,33.54,-15.99,-10.87,1
2067,33.56,-9.36,-17.91,1
2068,33.57,0.21,-10.01,1
2069,33.59,2.92,-0.98,1
2070,33.6,-5.7,-6.7,1
2071,33.61,-15.43,-17.32,1
2072,33.63,-11.39,-19.63,1
2073,33.64,-4.27,-12.34,1
2074,33.65,-5.08,-7.58,1
2075,33.67,2.43,-12.77,1
2076,33.68,16.32,-15.24,1
2077,33.69,10.14,-9.33,1
2078,33.71,-7.47,-5.93,1
2079,33.72,-6.68,-8.79,1
2080,33.73,5.54,-11.71,1
2081,33.75,7.12,-11.95,1
2082,33.76,0.17,-11.06,1
2083,33.77,-7.06,-10.72,1
2084,33.79,-11.03,-10.95,1
2085,33.8,-6.8,-4.69,1
2086,33.81,1.48,4.93,1
2087,33.83,5.46,-2.11,1
2088,33.84,6.35,-21.43,1
2089,33.85,6.6,-24.9,1
2090,33.87,4.11,-15.01,1
2091,33.88,-0.15,-15.68,1
2092,33.89,-1.43,-21.62,1
2093,33.9,0.23,-16.76,1
2094,33.92,-0.0,-7.69,1
2095,33.93,-2.64,-4.12,1
2096,33.95,-3.15,-7.72,1
2097,33.96,0.42,-14.59,1
2098,33.97,4.38,-14.61,1
2099,33.99,5.2,-9.01,1
2100,34.0,-2.31,-7.29,1
2101,34.01,-16.6,-12.15,1
2102,34.03,-15.41,-20.65,1
2103,34.04,1.67,-21.79,1
2104,34.05,0.35,-11.91,1
2105,34.06,-14.93,-9.42,1
2106,34.08,-8.38,-18.76,1
2107,34.09,12.34,-19.12,1
2108,34.11,18.33,-10.68,1
2109,34.12,11.43,-6.23,1
2110,34.13,4.34,2.98,1
2111,34.15,-1.11,12.0,1
2112,34.16,-5.76,5.2,0
2113,34.17,-6.76,-5.89,0
2114,34.19,4.32,-26.01,0
2115,34.2,21.89,-71.34,0
2116,34.21,25.2,-111.19,0
2117,34.23,25.74,-127.17,0
2118,34.24,44.03,-147.91,0
2119,34.25,55.9,-171.92,0
2120,34.27,42.84,-174.84,0
2121,34.28,28.45,-163.15,0
2122,34.29,26.64,-148.97,0
2123,34.31,22.71,-136.33,0
2124,34.32,12.08,-124.42,0
2125,34.33,6.04,-91.08,0
2126,34.35,5.17,-34.94,0
2127,34.36,-1.3,10.23,0
2128,34.37,-10.67,40.82,0
2129,34.38,-10.76,74.3,0
2130,34.4,-15.9,106.91,0
2131,34.41,-41.85,133.42,0
2132,34.43,-57.58,150.28,0
2133,34.44,-45.93,155.3,0
2134,34.45,-42.36,162.92,0
2135,34.47,-55.01,173.89,0
2136,34.48,-55.8,175.18,0
2137,34.49,-45.44,182.7,0
2138,34.51,-42.82,200.79,0
2139,34.52,-44.21,196.81,0
2140,34.53,-37.44,173.26,0
2141,34.54,-23.04,156.26,0
2142,34.56,-9.03,137.51,1
2143,34.57,-3.82,116.41,1
2144,34.59,-8.13,108.38,1
2145,34.6,-12.83,101.11,1
2146,34.61,-12.33,88.05,1
2147,34.63,-2.86,82.64,1
2148,34.64,12.21,78.79,1
2149,34.65,15.29,63.06,1
2150,34.67,8.09,40.29,1
2151,34.68,10.13,26.29,1
2152,34.69,9.87,26.79,1
2153,34.71,-9.46,27.15,1
2154,34.72,-19.3,19.97,1
2155,34.73,5.56,19.46,1
2156,34.75,27.44,27.5,1
2157,34.76,7.47,24.05,1
2158,34.77,-16.62,2.81,1
2159,34.79,16.34,-30.81,1
2160,34.8,87.51,-64.75,1
2161,34.81,105.03,-61.81,1
2162,34.83,45.74,-23.28,1
2163,34.84,-5.66,-2.69,1
2164,34.85,-5.94,-7.25,1
2165,34.87,7.37,-12.29,1
2166,34.88,-26.94,-27.73,1
2167,34.89,-112.21,-48.58,1
2168,34.91,-136.11,-39.81,1
2169,34.92,-98.22,-9.43,1
2170,34.93,-107.92,-9.32,1
2171,34.95,-61.51,-45.8,1
2172,34.96,80.97,-62.79,1
2173,34.97,81.68,-43.52,1
2174,34.99,-37.62,-29.66,1
2175,35.0,11.43,-35.74,1
2176,35.01,173.84,-36.61,1
2177,35.03,145.89,-38.14,1
2178,35.04,-34.32,-67.64,1
2179,35.05,-79.89,-87.66,1
2180,35.06,8.74,-64.06,1
2181,35.08,46.76,-44.36,1
2182,35.09,30.4,-51.55,1
2183,35.11,25.75,-55.95,1
2184,35.12,14.38,-54.76,1
2185,35.13,-5.51,-54.64,1
2186,35.15,9.78,-49.09,1
2187,35.16,43.33,-48.27,1
2188,35.17,41.56,-52.67,1
2189,35.19,14.62,-46.35,1
2190,35.2,3.17,-40.52,1
2191,35.21,11.18,-45.65,1
2192,35.22,22.25,-45.76,1
2193,35.24,21.46,-41.31,1
2194,35.25,5.45,-42.11,1
2195,35.27,-8.49,-41.8,1
2196,35.28,-8.87,-42.22,1
2197,35.29,-7.43,-43.44,1
2198,35.31,-9.78,-33.64,1
2199,35.32,-9.1,-22.67,1
2200,35.33,-7.61,-23.71,1
2201,35.35,-8.4,-25.64,1
2202,35.36,-6.94,-22.28,1
2203,35.37,-4.85,-17.43,1
2204,35.38,-5.41,-12.71,1
2205,35.4,-2.64,-12.91,1
2206,35.41,3.81,-11.74,1
2207,35.43,7.52,-2.95,1
2208,35.44,6.95,-2.81,1
2209,35.45,1.23,-11.51,1
2210,35.47,-1.92,-9.2,1
2211,35.48,8.63,-3.74,1
2212,35.49,12.37,-4.51,1
2213,35.51,-9.86,-1.59,1
2214,35.52,-22.25,-1.28,1
2215,35.53,-1.52,-7.47,1
2216,35.55,11.82,-5.04,1
2217,35.56,-3.02,3.11,1
2218,35.57,-13.87,3.94,1
2219,35.59,-5.11,2.76,1
2220,35.6,6.55,7.58,1
2221,35.61,9.27,14.01,1
2222,35.63,4.12,13.25,1
2223,35.64,-0.39,6.67,1
2224,35.65,0.18,9.25,1
2225,35.67,-0.11,18.72,1
2226,35.68,-2.14,14.92,1
2227,35.69,-1.82,7.35,1
2228,35.71,0.08,13.91,1
2229,35.72,1.27,14.55,1
2230,35.73,-1.8,3.23,1
2231,35.75,-5.05,7.86,1
2232,35.76,0.52,24.18,1
2233,35.77,7.33,25.41,1
2234,35.79,1.76,14.3,1
2235,35.8,-8.26,7.39,1
2236,35.81,-5.03,13.24,1
2237,35.83,7.58,24.77,1
2238,35.84,9.42,26.83,1
2239,35.85,-0.41,25.08,1
2240,35.87,-0.97,26.81,1
2241,35.88,7.61,20.39,1
2242,35.89,3.64,14.55,1
2243,35.9,-11.47,25.24,1
2244,35.92,-14.66,29.74,1
2245,35.93,-4.66,12.08,1
2246,35.95,0.07,1.39,1
2247,35.96,-2.56,11.01,1
2248,35.97,-5.64,18.93,1
2249,35.99,-8.48,17.22,1
2250,36.0,-7.92,12.02,1
2251,36.01,-4.11,8.74,1
2252,36.03,-1.69,14.47,1
2253,36.04,-1.77,23.07,1
2254,36.05,-5.54,25.23,1
2255,36.06,-8.62,24.78,1
2256,36.08,-4.94,19.98,1
2257,36.09,0.26,11.13,1
2258,36.11,0.81,12.71,1
2259,36.12,-2.23,23.2,1
2260,36.13,-2.48,24.29,1
2261,36.15,6.16,14.97,1
2262,36.16,12.96,5.89,2
2263,36.17,3.15,5.6,2
2264,36.19,-10.34,21.47,2
2265,36.2,-5.26,56.72,2
2266,36.21,8.98,124.68,2
2267,36.23,4.14,233.84,2
2268,36.24,-22.52,338.73,2
2269,36.25,-44.77,377.61,2
2270,36.27,-47.5,347.43,2
2271,36.28,-43.51,277.15,2
2272,36.29,-45.06,185.64,2
2273,36.31,-40.89,94.67,2
2274,36.32,-25.84,15.82,2
2275,36.33,-18.33,-58.16,2
2276,36.35,-26.37,-129.31,2
2277,36.36,-28.33,-191.77,2
2278,36.37,-6.05,-233.79,2
2279,36.38,22.8,-247.27,2
2280,36.4,36.23,-246.1,2
2281,36.41,42.71,-237.65,2
2282,36.43,50.29,-213.08,2
2283,36.44,48.0,-190.39,2
2284,36.45,31.4,-185.6,2
2285,36.47,17.05,-173.16,2
2286,36.48,20.91,-143.96,2
2287,36.49,30.87,-123.18,2
2288,36.51,27.88,-117.85,2
2289,36.52,20.03,-112.08,2
2290,36.53,18.25,-89.28,2
2291,36.54,18.19,-56.56,2
2292,36.56,23.75,-52.12,1
2293,36.57,31.25,-75.45,1
2294,36.59,23.66,-74.39,1
2295,36.6,11.04,-49.37,1
2296,36.61,9.54,-41.4,1
2297,36.63,9.01,-44.07,1
2298,36.64,2.04,-36.45,1
2299,36.65,-5.13,-28.54,1
2300,36.67,-4.19,-26.29,1
2301,36.68,6.63,-22.78,1
2302,36.69,14.45,-18.87,1
2303,36.71,13.92,-12.52,1
2304,36.72,15.25,-2.65,1
2305,36.73,15.35,4.29,1
2306,36.75,7.27,11.3,1
2307,36.76,-0.35,16.17,1
2308,36.77,-3.96,11.57,1
2309,36.79,-9.77,7.88,1
2310,36.8,-15.22,9.16,1
2311,36.81,-14.17,12.46,1
2312,36.83,-8.91,27.94,1
2313,36.84,-7.73,39.7,1
2314,36.85,-16.91,27.89,1
2315,36.87,-25.16,23.76,1
2316,36.88,-15.68,42.06,1
2317,36.89,-1.61,48.32,1
2318,36.9,-0.88,41.52,1
2319,36.92,-0.73,45.33,1
2320,36.93,3.35,49.87,1
2321,36.95,-3.8,45.32,1
2322,36.96,-13.93,44.7,1
2323,36.97,-11.39,50.81,1
2324,36.99,-4.84,52.7,1
2325,37.0,-5.27,42.25,1
2326,37.01,-11.55,32.83,1
2327,37.03,-14.24,45.21,1
2328,37.04,-8.2,58.5,1
2329,37.05,-4.02,45.15,1
2330,37.06,-6.15,30.05,1
2331,37.08,-4.64,35.29,1
2332,37.09,-0.29,43.31,1
2333,37.11,-1.35,44.32,1
2334,37.12,-4.98,40.94,1
2335,37.13,-5.23,33.5,1
2336,37.15,-3.41,30.14,1
2337,37.16,-5.88,31.63,1
2338,37.17,-17.43,33.16,1
2339,37.19,-25.12,44.82,1
2340,37.2,-10.4,63.18,1
2341,37.21,10.5,58.8,1
2342,37.22,9.09,32.89,1
2343,37.24,-0.98,22.03,1
2344,37.25,1.13,34.9,1
2345,37.27,-0.19,44.47,1
2346,37.28,-13.2,28.33,1
2347,37.29,-19.03,-1.37,1
2348,37.31,-10.09,-4.81,1
2349,37.32,2.6,19.71,1
2350,37.33,7.11,30.97,1
2351,37.35,0.9,24.15,1
2352,37.36,-6.52,23.14,1
2353,37.37,-4.95,23.26,1
2354,37.38,1.2,15.95,1
2355,37.4,0.42,11.28,1
2356,37.41,-6.66,16.14,1
2357,37.43,-7.6,29.54,1
2358,37.44,0.0,36.73,1
2359,37.45,0.49,21.94,1
2360,37.47,-9.84,4.29,1
2361,37.48,-12.59,2.95,1
2362,37.49,-4.89,4.78,1
2363,37.51,0.76,6.63,1
2364,37.52,3.44,8.04,1
2365,37.53,1.8,-3.73,1
2366,37.54,-4.1,-14.16,1
2367,37.56,-2.88,-6.47,1
2368,37.57,1.85,-0.54,1
2369,37.59,-2.33,-6.35,1
2370,37.6,-7.24,-13.12,1
2371,37.61,-3.0,-18.63,1
2372,37.63,4.62,-15.79,1
2373,37.64,7.91,-5.57,1
2374,37.65,4.58,-6.18,1
2375,37.67,-0.22,-11.48,1
2376,37.68,0.6,-8.63,1
2377,37.69,2.11,-10.54,1
2378,37.71,-0.18,-21.28,1
2379,37.72,0.98,-23.22,1
2380,37.73,6.5,-11.65,1
2381,37.75,7.26,-8.35,1
2382,37.76,4.97,-22.39,1
2383,37.77,8.9,-30.21,1
2384,37.79,11.45,-20.05,1
2385,37.8,1.93,-9.22,1
2386,37.81,-8.17,-8.78,1
2387,37.83,-8.24,-9.58,1
2388,37.84,-4.41,-10.41,1
2389,37.85,-2.19,-21.44,1
2390,37.87,-2.57,-30.66,1
2391,37.88,-1.87,-25.17,1
2392,37.89,4.47,-21.86,1
2393,37.9,7.98,-22.52,1
2394,37.92,2.5,-10.29,1
2395,37.93,1.74,2.72,1
2396,37.95,10.41,-0.17,1
2397,37.96,12.95,-14.2,1
2398,37.97,9.73,-29.27,1
2399,37.99,10.97,-31.64,1
2400,38.0,8.16,-22.6,1
2401,38.01,0.07,-22.71,1
2402,38.03,-0.05,-24.74,1
2403,38.04,5.77,-8.1,1
2404,38.05,6.12,4.45,1
2405,38.06,-2.55,-12.06,1
2406,38.08,-8.71,-29.97,1
2407,38.09,0.1,-24.47,1
2408,38.11,10.79,-11.4,1
2409,38.12,7.57,-3.5,1
2410,38.13,1.4,-4.33,1
2411,38.15,3.98,-17.98,1
2412,38.16,7.04,-26.08,2
2413,38.17,-0.57,-5.11,2
2414,38.19,-11.88,50.92,2
2415,38.2,-7.57,156.11,2
2416,38.21,11.64,278.96,2
2417,38.22,24.44,254.98,2
2418,38.24,14.14,47.18,2
2419,38.25,-7.11,-25.21,2
2420,38.27,8.27,183.51,2
2421,38.28,37.1,347.5,2
2422,38.29,-15.62,297.77,2
2423,38.31,-82.12,223.17,2
2424,38.32,-43.88,210.81,2
2425,38.33,-5.62,186.96,2
2426,38.35,-36.26,137.07,2
2427,38.36,-22.09,99.7,2
2428,38.37,63.06,76.67,2
2429,38.38,146.23,50.31,2
2430,38.4,157.35,21.36,2
2431,38.41,72.05,-2.49,2
2432,38.43,-0.17,-23.04,2
2433,38.44,5.91,-43.87,2
2434,38.45,-21.51,-63.1,2
2435,38.47,-106.12,-79.41,2
2436,38.48,-123.26,-94.02,2
2437,38.49,-55.38,-124.61,2
2438,38.51,-11.92,-192.52,2
2439,38.52,-43.43,-256.07,2
2440,38.53,-78.18,-304.57,2
2441,38.54,-43.16,-407.64,2
2442,38.56,19.86,-454.87,1
2443,38.57,28.16,-327.7,1
2444,38.59,-6.09,-242.8,1
2445,38.6,-2.19,-305.7,1
2446,38.61,38.1,-343.35,1
2447,38.63,33.64,-369.7,1
2448,38.64,-5.11,-405.39,1
2449,38.65,7.68,-291.63,1
2450,38.67,48.51,-161.64,1
2451,38.68,29.37,-245.54,1
2452,38.69,-11.36,-334.73,1
2453,38.71,9.21,-228.68,1
2454,38.72,38.45,-137.23,1
2455,38.73,9.44,-189.1,1
2456,38.75,-17.13,-214.88,1
2457,38.76,3.86,-143.91,1
2458,38.77,28.79,-63.14,1
2459,38.79,45.35,-7.65,1
2460,38.8,50.79,20.0,1
2461,38.81,12.1,27.45,1
2462,38.83,-41.18,28.19,1
2463,38.84,-46.87,13.99,1
2464,38.85,-10.56,-3.12,1
2465,38.87,15.4,15.02,1
2466,38.88,3.36,65.14,1
2467,38.89,-27.57,85.58,1
2468,38.9,-33.85,63.61,1
2469,38.92,5.62,55.9,1
2470,38.93,39.91,63.51,1
2471,38.95,13.51,52.72,1
2472,38.96,-30.39,55.85,1
2473,38.97,-26.44,93.92,1
2474,38.99,5.86,132.34,1
2475,39.0,19.26,153.63,1
2476,39.01,9.34,138.38,1
2477,39.03,-12.8,94.07,1
2478,39.04,-33.95,93.77,1
2479,39.05,-37.55,120.94,1
2480,39.06,-25.72,99.37,1
2481,39.08,-2.4,96.43,1
2482,39.09,33.11,164.24,1
2483,39.11,49.05,175.6,1
2484,39.12,11.15,102.92,1
2485,39.13,-37.56,82.42,1
2486,39.15,-30.38,102.81,1
2487,39.16,2.7,72.84,1
2488,39.17,0.04,54.43,1
2489,39.19,-20.07,92.18,1
2490,39.2,-16.55,119.08,1
2491,39.21,7.94,117.05,1
2492,39.22,20.17,95.81,1
2493,39.24,5.93,79.96,1
2494,39.25,-2.44,123.14,1
2495,39.27,-1.53,172.32,1
2496,39.28,-21.45,161.63,1
2497,39.29,-44.67,128.95,1
2498,39.31,-42.02,90.48,1
2499,39.32,-17.92,55.44,1
2500,39.33,16.03,69.53,1
2501,39.35,26.89,98.6,1
2502,39.36,-7.32,79.93,1
2503,39.37,-31.16,76.4,1
2504,39.38,-5.03,132.19,1
2505,39.4,12.35,147.7,1
2506,39.41,-3.74,94.0,1
2507,39.43,-0.58,54.88,1
2508,39.44,14.12,59.71,1
2509,39.45,-1.6,85.66,1
2510,39.47,-21.68,87.57,1
2511,39.48,-15.26,37.58,1
2512,39.49,0.42,4.66,1
2513,39.51,7.03,34.57,1
2514,39.52,20.71,36.92,1
2515,39.53,59.46,-24.08,1
2516,39.54,82.2,-35.33,1
2517,39.56,41.38,31.1,1
2518,39.57,-23.23,55.26,1
2519,39.59,-42.88,17.83,1
2520,39.6,-1.35,18.55,1
2521,39.61,64.54,66.56,1
2522,39.63,72.57,88.04,1
2523,39.64,4.29,60.43,1
2524,39.65,-34.69,39.62,1
2525,39.67,-4.09,57.72,1
2526,39.68,14.97,51.76,1
2527,39.69,-4.94,-2.79,1
2528,39.71,-18.18,-15.1,1
2529,39.72,-10.66,43.52,1
2530,39.73,-5.98,70.77,1
2531,39.75,-3.75,26.96,1
2532,39.76,20.36,-6.11,1
2533,39.77,52.75,16.6,1
2534,39.79,57.5,65.73,1
2535,39.8,29.69,90.47,1
2536,39.81,-10.45,30.03,1
2537,39.83,-24.55,-76.38,1
2538,39.84,2.7,-110.21,1
2539,39.85,23.73,-68.25,1
2540,39.87,1.01,-23.8,1
2541,39.88,-33.67,-25.17,1
2542,39.89,-32.85,-62.67,1
2543,39.9,-14.69,-33.51,1
2544,39.92,-33.37,52.47,1
2545,39.93,-73.02,20.19,1
2546,39.95,-71.0,-106.54,1
2547,39.96,-27.93,-124.53,1
2548,39.97,-2.5,-50.3,1
2549,39.99,-14.82,-36.34,1
2550,40.0,-27.67,-84.5,1
2551,40.01,-19.77,-99.22,1
2552,40.03,-6.82,-48.01,1
2553,40.04,-4.35,-22.65,1
2554,40.05,-10.64,-95.73,1
2555,40.06,-18.59,-177.52,1
2556,40.08,-31.02,-147.46,1
2557,40.09,-41.92,-23.15,1
2558,40.11,-29.34,48.53,1
2559,40.12,3.58,1.72,1
2560,40.13,22.31,-49.07,1
2561,40.15,10.45,-25.31,1
2562,40.16,-13.82,-11.26,0
2563,40.17,-22.44,-74.6,0
2564,40.19,0.97,-126.55,0
2565,40.2,33.12,-92.21,0
2566,40.21,34.26,-55.08,0
2567,40.22,11.71,-94.12,0
2568,40.24,-4.02,-180.74,0
2569,40.25,-9.19,-273.88,0
2570,40.27,-4.03,-339.44,0
2571,40.28,14.08,-345.58,0
2572,40.29,30.66,-308.68,0
2573,40.31,37.31,-254.34,0
2574,40.32,43.81,-170.79,0
2575,40.33,47.51,-68.56,0
2576,40.35,34.82,12.43,0
2577,40.36,16.12,67.17,0
2578,40.37,10.72,104.48,0
2579,40.38,12.3,118.72,0
2580,40.4,8.78,124.26,0
2581,40.41,1.7,132.56,0
2582,40.43,-5.01,130.53,0
2583,40.44,-7.51,124.9,0
2584,40.45,-4.19,136.96,0
2585,40.47,-0.98,154.73,0
2586,40.48,-0.89,143.95,0
2587,40.49,-0.89,103.42,0
2588,40.51,0.17,72.19,0
2589,40.52,0.76,65.74,0
2590,40.53,1.26,56.71,0
2591,40.54,2.41,35.74,0
2592,40.56,6.02,22.56,1
2593,40.57,9.94,24.41,1
2594,40.59,3.66,30.2,1
2595,40.6,-7.74,31.15,1
2596,40.61,-4.03,33.09,1
2597,40.63,7.26,41.06,1
2598,40.64,2.19,45.88,1
2599,40.65,-9.79,42.11,1
2600,40.67,-3.64,36.7,1
2601,40.68,9.49,37.73,1
2602,40.69,5.26,40.7,1
2603,40.71,-6.88,33.89,1
2604,40.72,-5.01,22.65,1
2605,40.73,5.16,22.68,1
2606,40.75,8.13,33.26,1
2607,40.76,4.49,43.14,1
2608,40.77,-4.94,48.07,1
2609,40.79,-15.77,46.19,1
2610,40.8,-11.93,38.16,1
2611,40.81,-0.59,29.05,1
2612,40.83,0.0,20.54,1
2613,40.84,3.01,19.1,1
2614,40.85,16.79,27.87,1
2615,40.87,17.1,27.89,1
2616,40.88,-3.61,13.42,1
2617,40.89,-22.58,9.75,1
2618,40.9,-25.9,20.03,1
2619,40.92,-17.2,17.82,1
2620,40.93,-6.57,1.49,1
2621,40.95,-1.98,-0.58,1
2622,40.96,2.28,20.64,1
2623,40.97,9.82,32.59,1
2624,40.99,8.23,16.78,1
2625,41.0,-2.35,8.34,1
2626,41.01,-5.33,22.9,1
2627,41.03,0.55,20.33,1
2628,41.04,1.15,-6.04,1
2629,41.05,-3.3,-16.58,1
2630,41.06,2.05,-12.46,1
2631,41.08,14.98,-18.51,1
2632,41.09,13.52,-21.41,1
2633,41.11,-3.61,-11.73,1
2634,41.12,-12.36,-6.14,1
2635,41.13,-8.94,-8.1,1
2636,41.15,-7.62,-12.95,1
2637,41.16,-4.42,-15.13,1
2638,41.17,5.57,-12.38,1
2639,41.19,12.81,-14.22,1
2640,41.2,13.42,-15.58,1
2641,41.21,6.77,-8.71,1
2642,41.22,-5.24,-9.13,1
2643,41.24,-7.41,-19.22,1
2644,41.25,1.4,-25.35,1
2645,41.27,1.04,-32.04,1
2646,41.28,-6.13,-40.51,1
2647,41.29,-1.84,-38.41,1
2648,41.31,6.81,-32.26,1
2649,41.32,7.34,-29.94,1
2650,41.33,6.66,-24.43,1
2651,41.35,4.24,-23.19,1
2652,41.36,-8.87,-29.95,1
2653,41.37,-18.43,-32.23,1
2654,41.38,-6.49,-33.51,1
2655,41.4,13.04,-35.86,1
2656,41.41,15.27,-30.78,1
2657,41.43,0.21,-25.8,1
2658,41.44,-10.58,-23.95,1
2659,41.45,-5.77,-19.7,1
2660,41.47,0.41,-21.98,1
2661,41.48,-3.11,-26.83,1
2662,41.49,-4.7,-21.5,1
2663,41.51,-0.29,-23.27,1
2664,41.52,-2.55,-37.94,1
2665,41.53,-11.4,-35.73,1
2666,41.54,-13.01,-19.83,1
2667,41.56,-3.68,-22.81,1
2668,41.57,8.78,-35.7,1
2669,41.59,14.62,-31.64,1
2670,41.6,8.89,-16.96,1
2671,41.61,-2.31,-9.01,1
2672,41.63,-8.95,-10.65,1
2673,41.64,-5.74,-11.53,1
2674,41.65,6.26,-8.53,1
2675,41.67,14.56,-12.34,1
2676,41.68,11.02,-20.05,1
2677,41.69,4.2,-19.32,1
2678,41.71,-0.64,-16.02,1
2679,41.72,-4.27,-15.32,1
2680,41.73,-6.12,-10.66,1
2681,41.75,-8.47,-5.7,1
2682,41.76,-6.83,-4.3,1
2683,41.77,2.25,-2.7,1
2684,41.79,6.82,-6.16,1
2685,41.8,0.65,-12.56,1
2686,41.81,-9.21,-11.98,1
2687,41.83,-17.6,-9.92,1
2688,41.84,-18.76,-9.49,1
2689,41.85,-7.53,-3.16,1
2690,41.87,8.36,1.58,1
2691,41.88,18.06,-1.24,1
2692,41.89,18.31,6.8,1
2693,41.9,5.61,23.71,1
2694,41.92,-10.65,23.35,1
2695,41.93,-11.26,6.52,1
2696,41.95,-1.34,-8.94,1
2697,41.96,1.66,-14.32,1
2698,41.97,-0.75,-7.54,1
2699,41.99,-0.87,-1.45,1
2700,42.0,3.15,-4.71,1
2701,42.01,7.72,-4.19,1
2702,42.03,4.45,3.18,1
2703,42.04,-2.51,7.11,1
2704,42.05,-2.21,8.57,1
2705,42.06,0.04,8.04,1
2706,42.08,-3.43,6.65,1
2707,42.09,-8.04,9.36,1
2708,42.11,-9.27,9.91,1
2709,42.12,-2.86,9.66,1
2710,42.13,8.9,8.59,1
2711,42.15,10.78,-21.7,1
2712,42.16,4.61,-86.16,0
2713,42.17,6.97,-138.75,0
2714,42.19,11.3,-154.46,0
2715,42.2,2.49,-153.16,0
2716,42.21,-9.97,-151.25,0
2717,42.22,-8.69,-154.74,0
2718,42.24,6.86,-158.96,0
2719,42.25,21.04,-145.43,0
2720,42.27,24.65,-121.55,0
2721,42.28,39.48,-103.91,0
2722,42.29,68.33,-76.84,0
2723,42.31,61.67,-28.06,0
2724,42.32,19.57,32.52,0
2725,42.33,7.29,92.18,0
2726,42.35,20.35,131.92,0
2727,42.36,5.97,147.5,0
2728,42.37,-18.29,160.01,0
2729,42.38,-16.97,170.94,0
2730,42.4,-11.87,170.51,0
2731,42.41,-20.1,171.2,0
2732,42.43,-22.54,177.28,0
2733,42.44,-23.24,182.87,0
2734,42.45,-39.19,192.69,0
2735,42.47,-49.83,197.31,0
2736,42.48,-40.59,184.08,0
2737,42.49,-33.78,164.65,0
2738,42.51,-41.0,148.3,0
2739,42.52,-44.42,135.21,0
2740,42.53,-27.32,129.13,0
2741,42.54,-4.04,121.97,0
2742,42.56,0.47,104.91,1
2743,42.57,-13.53,87.59,1
2744,42.59,-27.61,76.12,1
2745,42.6,-20.71,66.49,1
2746,42.61,3.55,56.71,1
2747,42.63,4.55,43.24,1
2748,42.64,-21.89,29.75,1
2749,42.65,-27.04,24.57,1
2750,42.66,-8.7,22.92,1
2751,42.68,-3.85,21.61,1
2752,42.69,-13.46,21.65,1
2753,42.71,-27.25,13.8,1
2754,42.72,-39.25,-1.55,1
2755,42.73,-24.79,-9.78,1
2756,42.75,17.03,-11.76,1
2757,42.76,46.46,-19.82,1
2758,42.77,36.48,-31.6,1
2759,42.79,4.09,-38.21,1
2760,42.8,-20.07,-38.29,1
2761,42.81,-27.05,-34.8,1
2762,42.83,-20.08,-36.69,1
2763,42.84,-3.04,-44.8,1
2764,42.85,7.55,-43.53,1
2765,42.87,4.52,-35.38,1
2766,42.88,11.1,-39.38,1
2767,42.89,34.96,-50.14,1
2768,42.9,43.91,-53.75,1
2769,42.92,29.35,-52.88,1
2770,42.93,20.59,-48.76,1
2771,42.95,20.34,-44.65,1
2772,42.96,15.66,-48.21,1
2773,42.97,17.6,-52.78,1
2774,42.99,23.01,-57.08,1
2775,43.0,10.58,-67.58,1
2776,43.01,-5.51,-70.43,1
2777,43.03,-1.44,-60.26,1
2778,43.04,9.32,-55.08,1
2779,43.05,11.92,-54.27,1
2780,43.06,11.66,-49.07,1
2781,43.08,13.34,-46.68,1
2782,43.09,20.31,-48.58,1
2783,43.11,23.88,-53.39,1
2784,43.12,9.05,-61.06,1
2785,43.13,-6.19,-57.27,1
2786,43.15,3.68,-42.38,1
2787,43.16,20.29,-37.19,1
2788,43.17,16.46,-41.15,1
2789,43.19,3.5,-43.38,1
2790,43.2,-1.07,-42.59,1
2791,43.21,-1.94,-34.26,1
2792,43.22,-1.8,-24.65,1
2793,43.24,2.67,-26.73,1
2794,43.25,4.97,-35.02,1
2795,43.27,2.07,-40.71,1
2796,43.28,2.79,-39.43,1
2797,43.29,6.6,-27.85,1
2798,43.3,6.25,-16.74,1
2799,43.32,6.47,-13.19,1
2800,43.33,10.13,-9.44,1
2801,43.35,8.83,-12.26,1
2802,43.36,2.57,-25.72,1
2803,43.37,-0.24,-26.54,1
2804,43.38,1.59,-13.3,1
2805,43.4,7.49,-8.26,1
2806,43.41,14.64,-4.58,1
2807,43.43,11.13,4.72,1
2808,43.44,0.09,3.29,1
2809,43.45,4.13,-4.2,1
2810,43.47,16.48,-0.87,1
2811,43.48,3.9,5.85,1
2812,43.49,-21.91,4.89,1
2813,43.51,-19.75,-2.34,1
2814,43.52,1.59,-12.09,1
2815,43.53,4.7,-15.29,1
2816,43.54,-8.06,-5.96,1
2817,43.56,-10.01,6.57,1
2818,43.57,-0.7,10.66,1
2819,43.59,4.64,4.96,1
2820,43.6,6.55,-1.27,1
2821,43.61,6.4,2.32,1
2822,43.63,0.52,7.56,1
2823,43.64,-6.17,1.11,1
2824,43.65,-13.31,-6.69,1
2825,43.67,-17.24,-0.68,1
2826,43.68,-6.14,10.26,1
2827,43.69,6.72,13.86,1
2828,43.71,0.68,12.19,1
2829,43.72,-9.93,12.11,1
2830,43.73,-6.7,18.27,1
2831,43.75,-5.09,24.58,1
2832,43.76,-13.36,21.46,1
2833,43.77,-13.13,16.82,1
2834,43.79,-5.95,19.11,1
2835,43.8,-1.98,21.19,1
2836,43.81,10.27,22.51,1
2837,43.83,22.42,24.11,1
2838,43.84,11.12,17.22,1
2839,43.85,-7.95,9.83,1
2840,43.87,-10.85,12.32,1
2841,43.88,-7.65,10.49,1
2842,43.89,-4.68,1.07,1
2843,43.9,6.1,-0.73,1
2844,43.92,12.55,4.86,1
2845,43.93,-0.38,14.61,1
2846,43.94,-18.26,27.58,1
2847,43.96,-21.52,28.75,1
2848,43.97,-12.18,17.86,1
2849,43.99,-1.73,14.63,1
2850,44.0,3.9,20.65,1
2851,44.01,3.88,26.26,1
2852,44.03,1.05,27.12,1
2853,44.04,-3.98,19.28,1
2854,44.05,-11.35,13.49,1
2855,44.06,-17.88,20.14,1
2856,44.08,-20.55,25.75,1
2857,44.09,-17.67,26.63,1
2858,44.11,-10.91,27.57,1
2859,44.12,-1.93,20.86,1
2860,44.13,11.03,14.26,1
2861,44.15,19.88,16.41,1
2862,44.16,13.06,14.16,2
2863,44.17,1.79,10.2,2
2864,44.19,-0.57,11.31,2
2865,44.2,-3.86,4.81,2
2866,44.21,-9.54,2.11,2
2867,44.22,-9.03,30.08,2
2868,44.24,-8.39,96.0,2
2869,44.25,-8.82,208.95,2
2870,44.27,-8.1,342.61,2
2871,44.28,-13.73,410.26,2
2872,44.29,-20.6,379.99,2
2873,44.31,-24.28,308.02,2
2874,44.32,-35.28,222.23,2
2875,44.33,-42.67,111.06,2
2876,44.35,-34.37,-2.65,2
2877,44.36,-29.96,-88.59,2
2878,44.37,-34.72,-148.86,2
2879,44.38,-32.81,-199.81,2
2880,44.4,-22.47,-248.59,2
2881,44.41,0.04,-271.23,2
2882,44.43,27.61,-248.07,2
2883,44.44,33.44,-213.56,2
2884,44.45,22.72,-195.93,2
2885,44.47,20.47,-181.75,2
2886,44.48,22.7,-166.87,2
2887,44.49,19.97,-150.62,2
2888,44.51,21.73,-130.14,2
2889,44.52,32.15,-124.88,2
2890,44.53,40.57,-134.8,2
2891,44.54,39.76,-129.81,2
2892,44.56,31.77,-108.69,1
2893,44.57,21.85,-88.09,1
2894,44.58,18.0,-76.46,1
2895,44.6,25.03,-78.4,1
2896,44.61,32.98,-74.9,1
2897,44.62,30.09,-55.15,1
2898,44.64,23.98,-46.57,1
2899,44.65,21.65,-48.73,1
2900,44.67,13.58,-35.15,1
2901,44.68,3.28,-21.14,1
2902,44.69,5.14,-22.21,1
2903,44.71,12.55,-16.65,1
2904,44.72,12.32,-7.04,1
2905,44.73,5.21,-8.87,1
2906,44.75,-0.75,-3.41,1
2907,44.76,2.67,13.79,1
2908,44.77,9.88,19.63,1
2909,44.79,4.81,13.14,1
2910,44.8,-13.64,8.75,1
2911,44.81,-23.89,11.77,1
2912,44.83,-8.58,22.67,1
2913,44.84,11.89,34.7,1
2914,44.85,6.03,40.65,1
2915,44.87,-16.98,42.49,1
2916,44.88,-25.81,35.05,1
2917,44.89,-14.86,24.03,1
2918,44.9,-3.85,32.08,1
2919,44.92,-6.44,46.93,1
2920,44.93,-14.98,48.39,1
2921,44.95,-14.13,49.26,1
2922,44.96,1.15,44.76,1
2923,44.97,14.62,31.42,1
2924,44.99,4.8,37.62,1
2925,45.0,-13.63,58.0,1
2926,45.01,-10.87,60.43,1
2927,45.03,1.25,48.56,1
2928,45.04,0.25,42.38,1
2929,45.05,-6.31,46.15,1
2930,45.06,-9.44,46.48,1
2931,45.08,-7.49,30.12,1
2932,45.09,4.1,19.15,1
2933,45.11,12.15,35.24,1
2934,45.12,-2.3,47.61,1
2935,45.13,-21.67,38.43,1
2936,45.15,-20.07,34.58,1
2937,45.16,-5.26,39.79,1
2938,45.17,6.13,41.59,1
2939,45.19,9.29,44.32,1
2940,45.2,2.11,40.33,1
2941,45.21,-12.25,30.57,1
2942,45.22,-21.03,35.1,1
2943,45.24,-17.06,41.86,1
2944,45.25,-9.87,35.31,1
2945,45.26,-4.48,33.87,1
2946,45.28,4.5,37.16,1
2947,45.29,8.58,31.38,1
2948,45.31,-2.99,30.97,1
2949,45.32,-17.76,38.21,1
2950,45.33,-18.1,33.32,1
2951,45.35,-8.03,21.48,1
2952,45.36,-0.48,19.29,1
2953,45.37,3.35,23.44,1
2954,45.38,3.62,23.92,1
2955,45.4,-1.66,15.19,1
2956,45.41,-8.31,8.36,1
2957,45.43,-11.99,16.44,1
2958,45.44,-11.28,19.99,1
2959,45.45,-8.92,7.41,1
2960,45.47,-9.15,6.13,1
2961,45.48,-11.61,17.09,1
2962,45.49,-12.97,13.2,1
2963,45.51,-9.82,2.11,1
2964,45.52,-3.17,-0.66,1
2965,45.53,3.73,-4.92,1
2966,45.54,7.53,-12.84,1
2967,45.56,6.61,-13.66,1
2968,45.57,6.39,-3.31,1
2969,45.59,8.55,10.74,1
2970,45.6,6.43,10.8,1
2971,45.61,2.59,-6.0,1
2972,45.63,3.64,-17.59,1
2973,45.64,3.53,-18.63,1
2974,45.65,-0.8,-19.93,1
2975,45.67,-0.84,-15.4,1
2976,45.68,0.4,-5.95,1
2977,45.69,-3.96,-3.24,1
2978,45.71,-4.43,-8.24,1
2979,45.72,2.84,-22.83,1
2980,45.73,4.63,-34.2,1
2981,45.75,-1.76,-21.83,1
2982,45.76,-3.67,-5.67,1
2983,45.77,2.67,-9.81,1
2984,45.79,7.09,-14.24,1
2985,45.8,1.45,-7.54,1
2986,45.81,-4.07,-7.38,1
2987,45.83,5.08,-16.27,1
2988,45.84,17.1,-24.21,1
2989,45.85,17.56,-27.3,1
2990,45.86,13.85,-25.71,1
2991,45.88,5.92,-23.38,1
2992,45.89,-4.96,-20.24,1
2993,45.9,-3.13,-13.62,1
2994,45.92,7.4,-11.59,1
2995,45.93,8.29,-14.79,1
2996,45.95,1.41,-10.49,1
2997,45.96,-2.13,-10.46,1
2998,45.97,-3.69,-25.44,1
2999,45.99,-6.69,-30.74,1
3000,46.0,-6.46,-22.31,1
3001,46.01,-3.48,-25.61,1
3002,46.03,-3.27,-35.39,1
3003,46.04,-4.56,-29.99,1
3004,46.05,-2.09,-17.36,1
3005,46.06,3.53,-13.52,1
3006,46.08,7.1,-16.5,1
3007,46.09,7.48,-14.17,1
3008,46.11,5.53,15.14,1
3009,46.12,1.28,72.84,1
3010,46.13,1.72,132.93,1
3011,46.15,4.03,154.5,1
3012,46.16,-3.94,69.46,2
3013,46.17,-5.84,-94.91,2
3014,46.19,7.77,-178.98,2
3015,46.2,13.32,-101.16,2
3016,46.21,4.99,90.57,2
3017,46.22,-32.79,309.27,2
3018,46.24,-73.84,430.91,2
3019,46.25,-3.26,387.03,2
3020,46.27,103.04,281.01,2
3021,46.28,42.46,234.69,2
3022,46.29,-70.18,222.51,2
3023,46.31,-53.87,184.28,2
3024,46.32,-38.96,136.08,2
3025,46.33,-97.26,104.91,2
3026,46.35,-73.13,81.01,2
3027,46.36,33.14,51.96,2
3028,46.37,54.03,22.73,2
3029,46.38,16.47,-24.52,2
3030,46.4,72.21,-119.33,2
3031,46.41,138.4,-208.43,2
3032,46.43,60.51,-244.1,2
3033,46.44,-52.25,-305.21,2
3034,46.45,-64.37,-386.45,2
3035,46.47,-22.04,-327.74,2
3036,46.48,16.4,-178.32,2
3037,46.49,36.48,-195.4,2
3038,46.5,33.76,-366.83,2
3039,46.52,20.75,-417.44,2
3040,46.53,14.67,-287.63,2
3041,46.54,24.27,-191.26,2
3042,46.56,28.2,-201.67,1
3043,46.57,17.36,-180.85,1
3044,46.59,25.2,-129.13,1
3045,46.6,44.32,-146.73,1
3046,46.61,33.15,-176.73,1
3047,46.63,-0.36,-157.47,1
3048,46.64,-23.22,-145.05,1
3049,46.65,-14.96,-141.37,1
3050,46.67,15.13,-115.01,1
3051,46.68,29.5,-120.16,1
3052,46.69,16.43,-170.92,1
3053,46.71,-3.01,-184.51,1
3054,46.72,-9.95,-118.11,1
3055,46.73,4.41,-37.42,1
3056,46.75,23.94,-37.57,1
3057,46.76,5.24,-94.93,1
3058,46.77,-37.05,-89.31,1
3059,46.79,-31.89,-14.54,1
3060,46.8,-1.39,29.2,1
3061,46.81,-14.45,18.02,1
3062,46.83,-40.71,2.31,1
3063,46.84,-36.94,25.86,1
3064,46.85,-16.94,89.52,1
3065,46.87,3.89,126.54,1
3066,46.88,2.88,91.2,1
3067,46.89,-23.54,59.78,1
3068,46.9,-28.42,93.88,1
3069,46.92,-4.29,121.5,1
3070,46.93,4.08,106.36,1
3071,46.95,-4.91,91.88,1
3072,46.96,6.48,69.17,1
3073,46.97,25.32,41.12,1
3074,46.99,0.38,44.91,1
3075,47.0,-32.7,55.81,1
3076,47.01,-3.3,55.44,1
3077,47.03,42.26,83.68,1
3078,47.04,36.36,119.74,1
3079,47.05,-0.62,95.87,1
3080,47.06,-20.09,49.69,1
3081,47.08,-0.05,47.18,1
3082,47.09,14.75,68.56,1
3083,47.11,-20.92,103.39,1
3084,47.12,-44.75,148.04,1
3085,47.13,-7.52,150.12,1
3086,47.14,11.51,97.16,1
3087,47.16,-37.36,53.02,1
3088,47.17,-64.55,68.37,1
3089,47.18,-13.76,110.94,1
3090,47.2,19.37,128.35,1
3091,47.21,-11.86,113.85,1
3092,47.22,-2.99,89.5,1
3093,47.24,54.49,89.43,1
3094,47.25,42.61,101.68,1
3095,47.27,-20.6,109.55,1
3096,47.28,-20.31,125.65,1
3097,47.29,42.19,92.35,1
3098,47.31,65.77,4.09,1
3099,47.32,0.04,-17.7,1
3100,47.33,-67.39,60.38,1
3101,47.35,-44.23,125.06,1
3102,47.36,16.36,93.22,1
3103,47.37,24.57,56.13,1
3104,47.38,-16.09,101.81,1
3105,47.4,-41.15,123.78,1
3106,47.41,-23.25,84.23,1
3107,47.43,-7.86,69.87,1
3108,47.44,-18.87,32.71,1
3109,47.45,-26.06,-53.27,1
3110,47.47,-21.68,-53.55,1
3111,47.48,-5.52,54.29,1
3112,47.49,33.03,119.14,1
3113,47.51,48.12,76.29,1
3114,47.52,-0.4,15.19,1
3115,47.53,-41.4,-2.1,1
3116,47.54,-22.6,-2.6,1
3117,47.56,-9.56,-2.58,1
3118,47.57,-26.4,27.94,1
3119,47.59,-17.39,80.38,1
3120,47.6,7.27,92.95,1
3121,47.61,8.48,67.19,1
3122,47.63,7.98,53.07,1
3123,47.64,10.83,51.95,1
3124,47.65,-5.53,53.18,1
3125,47.67,-24.68,45.78,1
3126,47.68,-35.05,-3.58,1
3127,47.69,-52.07,-85.06,1
3128,47.71,-54.08,-119.31,1
3129,47.72,-2.77,-76.76,1
3130,47.73,73.6,-60.08,1
3131,47.75,85.87,-105.89,1
3132,47.76,5.68,-91.93,1
3133,47.77,-55.16,-21.92,1
3134,47.78,-6.53,-27.05,1
3135,47.8,57.74,-82.1,1
3136,47.81,38.59,-85.42,1
3137,47.82,-3.85,-41.04,1
3138,47.84,0.02,-8.68,1
3139,47.85,14.09,11.24,1
3140,47.86,-4.21,68.25,1
3141,47.88,-20.22,110.77,1
3142,47.89,3.1,50.29,1
3143,47.9,19.68,-33.18,1
3144,47.92,-12.26,-26.62,1
3145,47.93,-32.29,16.97,1
3146,47.95,-4.21,4.36,1
3147,47.96,8.61,-45.16,1
3148,47.97,-2.32,-64.24,1
3149,47.99,19.46,-52.87,1
3150,48.0,46.57,-63.7,1
3151,48.01,27.43,-83.96,1
3152,48.03,5.6,-59.35,1
3153,48.04,26.0,-31.02,1
3154,48.05,34.38,-55.85,1
3155,48.06,-18.43,-92.26,1
3156,48.08,-64.31,-96.45,1
3157,48.09,-28.41,-57.01,1
3158,48.11,37.24,22.52,1
3159,48.12,45.19,77.69,1
3160,48.13,1.44,70.44,1
3161,48.15,-28.37,55.32,1
3162,48.16,-8.66,46.13,0
3163,48.17,35.34,-13.76,0
3164,48.19,45.27,-96.95,0
3165,48.2,8.22,-121.8,0
3166,48.21,-13.74,-112.85,0
3167,48.22,14.01,-117.99,0
3168,48.24,38.37,-119.51,0
3169,48.25,25.05,-133.93,0
3170,48.27,12.87,-194.77,0
3171,48.28,19.79,-272.09,0
3172,48.29,19.5,-317.32,0
3173,48.31,11.15,-307.95,0
3174,48.32,17.23,-245.67,0
3175,48.33,31.81,-158.06,0
3176,48.35,31.69,-77.17,0
3177,48.36,17.06,-14.06,0
3178,48.37,4.5,31.91,0
3179,48.38,-4.15,65.36,0
3180,48.4,-16.59,92.54,0
3181,48.41,-24.8,105.63,0
3182,48.42,-17.66,100.58,0
3183,48.44,-6.02,101.09,0
3184,48.45,-10.29,117.48,0
3185,48.46,-28.25,134.57,0
3186,48.48,-35.49,147.55,0
3187,48.49,-19.66,142.37,0
3188,48.5,2.18,108.31,0
3189,48.52,6.29,76.54,0
3190,48.53,-6.21,59.35,0
3191,48.54,-12.9,38.21,0
3192,48.56,-7.62,27.23,1
3193,48.57,-3.02,35.77,1
3194,48.59,-3.24,45.25,1
3195,48.6,-6.58,58.27,1
3196,48.61,-8.33,68.77,1
3197,48.63,-4.2,58.97,1
3198,48.64,-3.56,48.96,1
3199,48.65,-4.63,50.0,1
3200,48.67,1.19,47.07,1
3201,48.68,0.39,44.57,1
3202,48.69,-5.14,47.75,1
3203,48.71,-0.58,50.84,1
3204,48.72,-0.5,50.42,1
3205,48.73,-12.93,39.45,1
3206,48.75,-16.79,28.95,1
3207,48.76,-8.67,36.73,1
3208,48.77,-6.77,41.21,1
3209,48.79,-14.34,29.14,1
3210,48.8,-19.54,30.59,1
3211,48.81,-13.56,44.67,1
3212,48.83,1.11,36.65,1
3213,48.84,7.98,13.12,1
3214,48.85,0.66,4.42,1
3215,48.87,-4.47,9.23,1
3216,48.88,0.41,11.36,1
3217,48.89,3.98,10.28,1
3218,48.9,1.22,14.72,1
3219,48.92,-3.86,24.18,1
3220,48.93,-10.66,26.1,1
3221,48.95,-14.2,18.48,1
3222,48.96,-3.92,14.23,1
3223,48.97,10.87,12.29,1
3224,48.99,8.62,7.45,1
3225,49.0,-5.14,8.14,1
3226,49.01,-10.44,5.23,1
3227,49.03,-9.52,-10.05,1
3228,49.04,-14.08,-12.02,1
3229,49.05,-15.98,3.49,1
3230,49.06,-4.7,5.23,1
3231,49.08,7.65,-9.17,1
3232,49.09,9.76,-15.36,1
3233,49.1,6.91,-9.2,1
3234,49.12,0.27,-5.46,1
3235,49.13,-5.42,-12.54,1
3236,49.14,2.57,-19.77,1
3237,49.16,13.44,-13.06,1
3238,49.17,6.99,-5.83,1
3239,49.19,-7.97,-16.69,1
3240,49.2,-11.02,-24.72,1
3241,49.21,0.73,-12.08,1
3242,49.22,10.4,-1.57,1
3243,49.24,5.45,-5.33,1
3244,49.25,-1.93,-9.73,1
3245,49.27,4.05,-13.03,1
3246,49.28,14.12,-17.71,1
3247,49.29,12.61,-17.78,1
3248,49.31,4.87,-13.02,1
3249,49.32,3.23,-7.64,1
3250,49.33,5.74,-12.98,1
3251,49.35,3.53,-32.79,1
3252,49.36,-3.25,-39.57,1
3253,49.37,-4.62,-26.63,1
3254,49.38,-0.22,-26.02,1
3255,49.4,-0.27,-42.73,1
3256,49.41,-0.26,-53.05,1
3257,49.43,6.23,-48.03,1
3258,49.44,6.38,-34.88,1
3259,49.45,-4.3,-26.67,1
3260,49.47,-12.71,-28.38,1
3261,49.48,-9.87,-31.83,1
3262,49.49,2.75,-29.61,1
3263,49.51,11.91,-23.57,1
3264,49.52,7.08,-17.81,1
3265,49.53,0.33,-15.29,1
3266,49.54,3.03,-17.59,1
3267,49.56,2.58,-22.71,1
3268,49.57,-7.98,-29.17,1
3269,49.59,-8.71,-28.11,1
3270,49.6,6.66,-8.16,1
3271,49.61,15.93,7.03,1
3272,49.63,8.29,-9.86,1
3273,49.64,-9.32,-29.79,1
3274,49.65,-26.25,-22.79,1
3275,49.67,-21.36,-11.8,1
3276,49.68,8.07,-14.94,1
3277,49.69,23.4,-17.79,1
3278,49.7,7.25,-16.75,1
3279,49.72,-8.11,-18.43,1
3280,49.73,-6.1,-23.7,1
3281,49.74,0.35,-30.56,1
3282,49.76,5.39,-26.04,1
3283,49.77,5.51,-9.17,1
3284,49.78,2.05,-4.3,1
3285,49.8,10.98,-17.83,1
3286,49.81,30.43,-29.12,1
3287,49.83,34.51,-22.98,1
3288,49.84,13.56,-8.31,1
3289,49.85,-15.3,-8.69,1
3290,49.87,-26.78,-16.14,1
3291,49.88,-13.71,-5.55,1
3292,49.89,0.65,1.86,1
3293,49.9,-2.28,-12.81,1
3294,49.92,-6.28,-16.3,1
3295,49.93,5.86,-2.0,1
3296,49.95,20.71,-5.78,1
3297,49.96,15.79,-19.88,1
3298,49.97,-3.07,-13.91,1
3299,49.99,-11.53,0.69,1
3300,50.0,-2.94,12.64,1
3301,50.01,8.27,21.84,1
3302,50.03,11.13,13.9,1
3303,50.04,3.94,0.44,1
3304,50.05,-12.04,5.37,1
3305,50.06,-27.5,12.36,1
3306,50.08,-27.1,5.31,1
3307,50.09,-9.76,-3.52,1
3308,50.11,6.13,-7.81,1
3309,50.12,5.64,-4.02,1
3310,50.13,-2.27,10.74,1
3311,50.15,-3.66,23.36,1
3312,50.16,-0.44,29.46,0
3313,50.17,-0.31,31.92,0
3314,50.19,-5.53,23.65,0
3315,50.2,-5.58,13.21,0
3316,50.21,8.88,16.31,0
3317,50.22,19.13,12.94,0
3318,50.24,10.22,-26.48,0
3319,50.25,-0.13,-82.78,0
3320,50.27,-1.27,-109.91,0
3321,50.28,-0.42,-108.6,0
3322,50.29,0.94,-118.89,0
3323,50.31,8.08,-142.9,0
3324,50.32,23.26,-148.32,0
3325,50.33,35.59,-143.72,0
3326,50.34,44.1,-159.56,0
3327,50.36,63.09,-164.51,0
3328,50.37,60.04,-119.27,0
3329,50.38,4.73,-58.3,0
3330,50.4,-26.48,-18.01,0
3331,50.41,8.43,11.74,0
3332,50.42,20.64,36.24,0
3333,50.44,-12.13,58.29,0
3334,50.45,-22.03,94.98,0
3335,50.46,-12.34,138.75,0
3336,50.48,-9.67,163.23,0
3337,50.49,-0.38,166.39,0
3338,50.51,-2.47,162.87,0
3339,50.52,-35.52,169.29,0
3340,50.53,-54.53,189.43,0
3341,50.54,-38.79,197.89,0
3342,50.56,-38.79,184.63,1
3343,50.57,-67.28,173.17,1
3344,50.59,-65.08,165.71,1
3345,50.6,-17.82,159.48,1
3346,50.61,8.28,167.12,1
3347,50.63,-10.96,164.67,1
3348,50.64,-31.57,131.82,1
3349,50.65,-38.4,105.46,1
3350,50.67,-35.26,106.22,1
3351,50.68,-9.53,110.9,1
3352,50.69,16.99,102.5,1
3353,50.71,13.04,77.98,1
3354,50.72,3.69,48.92,1
3355,50.73,6.81,36.13,1
3356,50.75,0.32,33.94,1
3357,50.76,-7.04,27.4,1
3358,50.77,1.04,24.55,1
3359,50.79,15.86,23.8,1
3360,50.8,34.07,12.33,1
3361,50.81,37.92,-0.72,1
3362,50.83,14.02,-8.36,1
3363,50.84,-15.61,-15.22,1
3364,50.85,-38.09,-15.23,1
3365,50.87,-39.49,-13.62,1
3366,50.88,-4.35,-22.12,1
3367,50.89,27.91,-29.69,1
3368,50.9,21.6,-34.55,1
3369,50.92,9.23,-42.12,1
3370,50.93,16.16,-39.04,1
3371,50.95,19.85,-33.4,1
3372,50.96,2.23,-44.29,1
3373,50.97,-20.91,-59.49,1
3374,50.98,-24.05,-64.0,1
3375,51.0,-7.62,-59.23,1
3376,51.01,10.1,-53.59,1
3377,51.02,25.6,-59.21,1
3378,51.04,38.52,-69.24,1
3379,51.05,33.04,-64.84,1
3380,51.06,9.17,-55.27,1
3381,51.08,-13.04,-57.45,1
3382,51.09,-23.34,-60.14,1
3383,51.1,-17.84,-52.24,1
3384,51.12,0.78,-43.79,1
3385,51.13,13.38,-43.69,1
3386,51.15,9.14,-51.39,1
3387,51.16,-0.06,-59.17,1
3388,51.17,1.85,-58.57,1
3389,51.19,14.81,-56.5,1
3390,51.2,24.82,-57.97,1
3391,51.21,25.23,-54.81,1
3392,51.22,23.31,-55.71,1
3393,51.24,19.46,-67.71,1
3394,51.25,7.54,-65.21,1
3395,51.27,-3.65,-42.98,1
3396,51.28,-1.96,-32.26,1
3397,51.29,9.68,-39.83,1
3398,51.31,20.51,-43.53,1
3399,51.32,18.22,-32.99,1
3400,51.33,-3.84,-22.11,1
3401,51.35,-29.41,-31.44,1
3402,51.36,-33.61,-50.3,1
3403,51.37,-18.5,-45.81,1
3404,51.38,-1.19,-24.73,1
3405,51.4,15.34,-23.21,1
3406,51.41,27.77,-40.4,1
3407,51.43,26.08,-45.83,1
3408,51.44,9.62,-30.1,1
3409,51.45,-8.91,-14.96,1
3410,51.47,-17.36,-20.86,1
3411,51.48,-17.9,-30.82,1
3412,51.49,-14.26,-18.88,1
3413,51.51,-0.46,-3.85,1
3414,51.52,16.29,-9.01,1
3415,51.53,19.75,-13.77,1
3416,51.54,17.79,-5.55,1
3417,51.56,25.1,2.65,1
3418,51.57,29.65,9.31,1
3419,51.59,14.38,6.53,1
3420,51.6,-12.19,-12.26,1
3421,51.61,-25.62,-22.45,1
3422,51.62,-18.21,-13.4,1
3423,51.64,-8.87,-2.27,1
3424,51.65,-9.56,5.19,1
3425,51.66,-5.89,7.83,1
3426,51.68,7.42,3.32,1
3427,51.69,13.43,3.07,1
3428,51.7,6.68,12.17,1
3429,51.72,-4.25,18.39,1
3430,51.73,-14.34,14.74,1
3431,51.74,-14.22,7.5,1
3432,51.76,-2.08,5.94,1
3433,51.77,6.06,11.62,1
3434,51.79,6.89,14.94,1
3435,51.8,6.67,15.57,1
3436,51.81,0.58,23.21,1
3437,51.83,-7.77,30.82,1
3438,51.84,-10.31,29.97,1
3439,51.85,-9.73,27.25,1
3440,51.87,-3.59,19.9,1
3441,51.88,12.5,9.39,1
3442,51.89,24.6,14.25,1
3443,51.9,15.32,25.54,1
3444,51.92,-9.29,22.2,1
3445,51.93,-27.42,16.75,1
3446,51.95,-22.0,18.56,1
3447,51.96,0.94,18.8,1
3448,51.97,14.62,21.71,1
3449,51.99,7.01,25.34,1
3450,52.0,-5.2,19.52,1
3451,52.01,-8.11,16.85,1
3452,52.03,-3.2,24.06,1
3453,52.04,3.56,26.73,1
3454,52.05,4.7,21.65,1
3455,52.06,4.3,12.23,1
3456,52.08,6.53,1.36,1
3457,52.09,-4.63,3.82,1
3458,52.11,-27.94,18.21,1
3459,52.12,-32.24,22.22,1
3460,52.13,-14.41,18.95,1
3461,52.15,1.77,23.88,1
3462,52.16,13.42,29.67,2
3463,52.17,19.03,26.76,2
3464,52.19,7.0,14.83,2
3465,52.2,-10.45,1.31,2
3466,52.21,-9.17,10.53,2
3467,52.22,7.19,58.66,2
3468,52.24,16.35,145.97,2
3469,52.25,11.94,263.55,2
3470,52.26,4.84,360.74,2
3471,52.28,-3.37,372.62,2
3472,52.29,-24.03,305.08,2
3473,52.3,-50.18,217.81,2
3474,52.32,-54.81,141.95,2
3475,52.33,-37.21,73.26,2
3476,52.34,-20.8,9.11,2
3477,52.36,-10.23,-44.21,2
3478,52.37,-2.4,-86.51,2
3479,52.38,-5.56,-133.36,2
3480,52.4,-18.24,-186.83,2
3481,52.41,-22.9,-220.7,2
3482,52.43,-12.38,-226.93,2
3483,52.44,-0.42,-225.32,2
3484,52.45,5.81,-217.02,2
3485,52.47,13.87,-196.88,2
3486,52.48,25.22,-177.7,2
3487,52.49,31.17,-164.64,2
3488,52.51,26.64,-155.67,2
3489,52.52,15.86,-148.54,2
3490,52.53,3.91,-132.97,2
3491,52.54,1.88,-111.92,2
3492,52.56,20.04,-95.2,1
3493,52.57,42.8,-78.69,1
3494,52.59,45.37,-69.47,1
3495,52.6,25.1,-73.4,1
3496,52.61,0.25,-66.65,1
3497,52.63,-9.24,-45.27,1
3498,52.64,-4.99,-38.71,1
3499,52.65,-1.83,-46.89,1
3500,52.67,4.33,-44.64,1
3501,52.68,18.35,-31.31,1
3502,52.69,22.79,-21.5,1
3503,52.71,13.59,-15.85,1
3504,52.72,8.2,-4.76,1
3505,52.73,8.41,10.87,1
3506,52.75,5.9,13.45,1
3507,52.76,3.53,-0.8,1
3508,52.77,1.97,-1.83,1
3509,52.79,-0.55,21.65,1
3510,52.8,-1.14,38.53,1
3511,52.81,-1.49,35.35,1
3512,52.83,-1.36,28.58,1
3513,52.84,3.04,27.97,1
3514,52.85,8.47,37.67,1
3515,52.87,10.99,50.92,1
3516,52.88,8.33,49.61,1
3517,52.89,-1.52,39.91,1
3518,52.9,-12.19,36.71,1
3519,52.92,-17.11,35.03,1
3520,52.93,-17.59,36.17,1
3521,52.94,-13.47,43.62,1
3522,52.96,-6.95,45.21,1
3523,52.97,-5.27,43.57,1
3524,52.98,-7.51,45.91,1
3525,53.0,-7.26,42.63,1
3526,53.01,-4.26,44.9,1
3527,53.02,-2.22,59.94,1
3528,53.04,-2.79,61.34,1
3529,53.05,-6.54,53.25,1
3530,53.06,-15.78,55.57,1
3531,53.08,-24.93,51.53,1
3532,53.09,-23.75,39.99,1
3533,53.11,-17.45,39.43,1
3534,53.12,-11.87,37.62,1
3535,53.13,-0.1,32.27,1
3536,53.15,15.25,40.6,1
3537,53.16,18.86,44.81,1
3538,53.17,7.19,31.92,1
3539,53.19,-6.57,26.23,1
3540,53.2,-12.49,34.87,1
3541,53.21,-9.67,42.11,1
3542,53.22,1.17,37.41,1
3543,53.24,10.55,19.81,1
3544,53.25,9.44,9.5,1
3545,53.27,5.25,17.9,1
3546,53.28,2.52,23.75,1
3547,53.29,-2.41,20.64,1
3548,53.31,-4.4,18.49,1
3549,53.32,-0.82,11.16,1
3550,53.33,-1.16,6.34,1
3551,53.35,-4.46,17.73,1
3552,53.36,0.66,23.63,1
3553,53.37,6.31,14.42,1
3554,53.38,0.28,11.49,1
3555,53.4,-7.7,10.75,1
3556,53.41,-8.85,5.18,1
3557,53.43,-4.52,8.79,1
3558,53.44,7.01,13.0,1
3559,53.45,13.79,9.81,1
3560,53.47,-0.35,11.33,1
3561,53.48,-18.8,10.18,1
3562,53.49,-13.88,3.86,1
3563,53.51,8.67,12.27,1
3564,53.52,20.14,24.7,1
3565,53.53,9.72,13.53,1
3566,53.54,-1.39,-9.64,1
3567,53.56,1.9,-22.12,1
3568,53.57,2.08,-21.64,1
3569,53.58,-8.18,-11.45,1
3570,53.6,-9.39,-2.49,1
3571,53.61,-1.27,-3.33,1
3572,53.62,-2.21,-14.39,1
3573,53.64,-11.24,-30.25,1
3574,53.65,-14.91,-29.44,1
3575,53.66,-8.2,-9.38,1
3576,53.68,6.2,-1.26,1
3577,53.69,16.59,-6.18,1
3578,53.7,11.32,-3.87,1
3579,53.72,-6.66,-4.68,1
3580,53.73,-24.26,-8.97,1
3581,53.75,-23.09,1.3,1
3582,53.76,0.77,4.94,1
3583,53.77,20.9,-17.13,1
3584,53.79,20.74,-34.68,1
3585,53.8,11.19,-30.48,1
3586,53.81,0.28,-20.08,1
3587,53.83,-8.86,-13.3,1
3588,53.84,-10.45,-10.45,1
3589,53.85,-2.88,-5.58,1
3590,53.87,7.33,-2.95,1
3591,53.88,8.44,-18.33,1
3592,53.89,-0.62,-35.83,1
3593,53.9,-3.31,-25.57,1
3594,53.92,9.4,-8.02,1
3595,53.93,19.36,-12.0,1
3596,53.95,11.98,-16.95,1
3597,53.96,-0.95,-10.95,1
3598,53.97,-7.85,-6.42,1
3599,53.99,-10.68,1.61,1
3600,54.0,-11.59,-0.12,1
3601,54.01,-10.18,-28.57,1
3602,54.03,-1.82,-43.16,1
3603,54.04,12.94,-19.36,1
3604,54.05,20.66,-2.87,1
3605,54.06,9.33,-21.2,1
3606,54.08,-15.82,-39.4,1
3607,54.09,-30.55,-28.9,1
3608,54.11,-11.37,-13.56,1
3609,54.12,24.18,-21.54,1
3610,54.13,31.16,-32.89,1
3611,54.15,9.05,-20.77,1
3612,54.16,-3.35,6.48,2
3613,54.17,-2.31,58.95,2
3614,54.18,-4.58,155.76,2
3615,54.2,0.85,214.21,2
3616,54.21,19.12,148.59,2
3617,54.22,32.98,78.35,2
3618,54.24,37.92,112.0,2
3619,54.25,31.7,126.92,2
3620,54.26,13.53,63.91,2
3621,54.28,15.45,14.91,2
3622,54.29,36.38,-9.49,2
3623,54.3,10.38,-31.28,2
3624,54.32,-54.49,-11.81,2
3625,54.33,-67.93,32.57,2
3626,54.34,-33.41,12.67,2
3627,54.36,-25.54,-62.74,2
3628,54.37,-36.87,-85.26,2
3629,54.38,-18.56,-42.38,2
3630,54.4,6.34,-44.55,2
3631,54.41,-11.45,-119.7,2
3632,54.43,-42.01,-130.72,2
3633,54.44,-32.43,-39.26,2
3634,54.45,-16.91,-2.82,2
3635,54.47,-26.11,-58.64,2
3636,54.48,-10.55,-83.56,2
3637,54.49,30.12,-66.45,2
3638,54.51,35.7,-67.65,2
3639,54.52,8.37,-56.82,2
3640,54.53,-3.46,-28.78,2
3641,54.54,13.59,-56.93,2
3642,54.56,28.9,-120.3,1
3643,54.57,17.19,-140.9,1
3644,54.59,1.53,-146.62,1
3645,54.6,6.19,-175.75,1
3646,54.61,12.66,-166.43,1
3647,54.63,13.67,-84.57,1
3648,54.64,22.24,-42.02,1
3649,54.65,25.2,-89.22,1
3650,54.67,9.52,-99.8,1
3651,54.68,-6.94,-54.78,1
3652,54.69,-1.88,-26.23,1
3653,54.71,15.06,0.74,1
3654,54.72,15.88,-12.0,1
3655,54.73,13.03,-71.73,1
3656,54.75,26.62,-48.69,1
3657,54.76,23.43,32.79,1
3658,54.77,-13.26,27.37,1
3659,54.79,-38.96,-6.83,1
3660,54.8,-22.15,14.89,1
3661,54.81,8.19,24.09,1
3662,54.82,3.08,26.61,1
3663,54.84,-31.41,73.17,1
3664,54.85,-41.32,89.45,1
3665,54.86,-14.41,39.8,1
3666,54.88,13.19,11.82,1
3667,54.89,19.9,35.48,1
3668,54.9,14.36,51.27,1
3669,54.92,10.6,45.33,1
3670,54.93,7.37,49.52,1
3671,54.94,2.53,62.0,1
3672,54.96,8.22,45.17,1
3673,54.97,21.72,-11.63,1
3674,54.98,19.14,-42.69,1
3675,55.0,0.57,-23.08,1
3676,55.01,-3.58,-14.58,1
3677,55.025000000000006,11.77,-8.1,1
3678,55.04,14.76,18.41,1
3679,55.05,-3.99,34.39,1
3680,55.06,-20.1,55.22,1
3681,55.08,-21.62,70.45,1
3682,55.09,-22.17,45.37,1
3683,55.11,-28.43,30.29,1
3684,55.12,-27.66,55.52,1
3685,55.13,-17.11,75.67,1
3686,55.15,-2.98,75.0,1
3687,55.16,13.84,55.1,1
3688,55.17,23.0,21.43,1
3689,55.19,15.62,13.53,1
3690,55.2,0.53,13.42,1
3691,55.21,-2.72,-10.37,1
3692,55.22,12.35,0.43,1
3693,55.24,7.97,53.5,1
3694,55.25,-27.95,79.0,1
3695,55.27,-31.4,61.2,1
3696,55.28,5.62,25.16,1
3697,55.29,13.3,1.55,1
3698,55.31,-10.52,12.63,1
3699,55.32,-21.15,43.11,1
3700,55.33,-14.9,61.5,1
3701,55.35,1.32,50.17,1
3702,55.36,11.29,14.31,1
3703,55.37,-4.38,-12.03,1
3704,55.38,-17.28,7.67,1
3705,55.4,-6.94,37.07,1
3706,55.41,-4.13,17.75,1
3707,55.43,-14.96,-1.76,1
3708,55.44,-15.8,14.96,1
3709,55.45,-6.09,9.02,1
3710,55.46,8.18,-6.6,1
3711,55.48,17.68,20.67,1
3712,55.49,2.58,31.2,1
3713,55.5,-23.26,-25.5,1
3714,55.52,-15.94,-64.56,1
3715,55.53,16.05,-25.1,1
3716,55.54,20.79,32.2,1
3717,55.56,5.53,62.4,1
3718,55.57,13.6,67.44,1
3719,55.58,28.53,27.34,1
3720,55.6,11.7,-21.74,1
3721,55.61,-16.05,2.09,1
3722,55.62,-15.72,65.82,1
3723,55.64,4.81,73.54,1
3724,55.65,27.08,26.43,1
3725,55.66,44.58,-9.09,1
3726,55.68,35.22,-5.51,1
3727,55.69,-2.29,17.93,1
3728,55.71,-23.55,35.88,1
3729,55.72,-5.33,39.87,1
3730,55.73,21.8,41.27,1
3731,55.75,28.94,35.95,1
3732,55.76,20.56,2.61,1
3733,55.77,12.18,-14.62,1
3734,55.79,13.0,38.52,1
3735,55.8,16.66,76.77,1
3736,55.81,0.64,30.37,1
3737,55.83,-29.77,-2.47,1
3738,55.84,-32.69,9.45,1
3739,55.85,-7.65,-18.07,1
3740,55.87,3.57,-55.66,1
3741,55.88,-6.49,-48.43,1
3742,55.89,-15.61,-46.0,1
3743,55.9,-11.37,-52.75,1
3744,55.92,-6.6,-28.01,1
3745,55.93,-24.51,0.15,1
3746,55.95,-44.38,10.56,1
3747,55.96,-34.94,3.36,1
3748,55.97,-14.48,-34.1,1
3749,55.99,-1.18,-53.73,1
3750,56.0,6.27,-23.4,1
3751,56.01,1.42,-12.63,1
3752,56.03,-5.35,-49.76,1
3753,56.04,1.76,-61.81,1
3754,56.05,10.46,-12.55,1
3755,56.06,8.09,35.57,1
3756,56.08,0.28,24.12,1
3757,56.09,-2.48,-22.49,1
3758,56.1,9.35,-35.72,1
3759,56.12,23.02,-8.05,1
3760,56.13,14.42,-22.09,1
3761,56.14,-1.44,-118.69,1
3762,56.16,3.38,-195.69,0
3763,56.17,16.75,-155.91,0
3764,56.18,17.94,-80.81,0
3765,56.2,12.25,-70.84,0
3766,56.21,9.28,-92.73,0
3767,56.22,7.41,-115.76,0
3768,56.24,9.21,-166.16,0
3769,56.25,17.06,-224.64,0
3770,56.26,20.71,-225.14,0
3771,56.28,23.4,-155.62,0
3772,56.29,30.27,-68.86,0
3773,56.3,15.66,5.17,0
3774,56.32,-24.37,67.65,0
3775,56.33,-58.22,102.33,0
3776,56.35,-75.81,102.44,0
3777,56.36,-78.57,94.61,0
3778,56.37,-61.08,101.94,0
3779,56.38,-34.99,121.13,0
3780,56.4,-18.1,131.7,0
3781,56.41,-11.58,118.41,0
3782,56.43,-5.86,100.33,0
3783,56.44,1.88,103.7,0
3784,56.45,3.98,111.65,0
3785,56.47,0.78,105.51,0
3786,56.48,2.25,94.86,0
3787,56.49,12.79,81.43,0
3788,56.51,25.61,72.17,0
3789,56.52,28.14,78.51,0
3790,56.53,21.24,81.54,0
3791,56.54,20.42,68.41,0
3792,56.56,24.03,50.95,1
3793,56.57,16.33,38.11,1
3794,56.59,5.02,42.21,1
3795,56.6,9.95,60.08,1
3796,56.61,25.41,62.29,1
3797,56.63,30.66,44.98,1
3798,56.64,26.16,28.22,1
3799,56.65,29.14,12.78,1
3800,56.67,34.09,2.17,1
3801,56.68,21.99,12.38,1
3802,56.69,4.31,25.15,1
3803,56.71,-0.64,12.66,1
3804,56.72,0.56,-0.58,1
3805,56.73,1.41,7.95,1
3806,56.74,-0.64,10.58,1
3807,56.76,-10.04,-7.63,1
3808,56.77,-20.38,-18.16,1
3809,56.78,-21.43,-1.0,1
3810,56.8,-14.94,20.07,1
3811,56.81,-12.22,13.86,1
3812,56.82,-14.18,-5.93,1
3813,56.84,-11.06,-10.76,1
3814,56.85,-4.92,-11.74,1
3815,56.86,-7.47,-23.12,1
3816,56.88,-16.17,-30.53,1
3817,56.89,-17.1,-32.41,1
3818,56.9,-9.42,-27.48,1
3819,56.92,-3.11,-2.3,1
3820,56.93,-0.52,14.68,1
3821,56.94,2.08,-5.31,1
3822,56.96,3.66,-27.38,1
3823,56.97,0.94,-27.11,1
3824,56.99,-1.23,-23.16,1
3825,57.0,3.04,-19.0,1
3826,57.01,1.99,-16.51,1
3827,57.03,-15.13,-30.14,1
3828,57.04,-28.5,-48.51,1
3829,57.05,-18.3,-48.63,1
3830,57.06,0.26,-32.85,1
3831,57.08,5.24,-22.7,1
3832,57.09,-1.94,-31.06,1
3833,57.11,-9.4,-40.02,1
3834,57.12,-7.3,-32.73,1
3835,57.13,4.44,-27.08,1
3836,57.15,10.94,-30.81,1
3837,57.16,6.77,-28.33,1
3838,57.17,5.1,-24.19,1
3839,57.19,6.98,-26.22,1
3840,57.2,5.4,-26.81,1
3841,57.21,1.9,-27.51,1
3842,57.22,-5.91,-25.07,1
3843,57.24,-15.27,-11.87,1
3844,57.25,-14.3,-6.46,1
3845,57.27,-4.54,-17.1,1
3846,57.28,4.64,-22.84,1
3847,57.29,10.66,-24.66,1
3848,57.31,12.81,-29.17,1
3849,57.32,12.29,-19.04,1
3850,57.33,10.2,-4.6,1
3851,57.35,8.46,-8.39,1
3852,57.36,12.64,-12.52,1
3853,57.37,17.92,-8.99,1
3854,57.38,11.38,-11.91,1
3855,57.4,-4.6,-15.08,1
3856,57.41,-13.34,-17.91,1
3857,57.42,-4.69,-22.25,1
3858,57.44,13.08,-10.59,1
3859,57.45,21.34,3.98,1
3860,57.46,13.06,-5.28,1
3861,57.48,1.36,-20.21,1
3862,57.49,-0.67,-21.1,1
3863,57.5,1.79,-13.96,1
3864,57.52,-5.07,-5.27,1
3865,57.53,-19.34,-7.48,1
3866,57.54,-21.63,-14.24,1
3867,57.56,-4.38,-4.29,1
3868,57.57,9.84,2.83,1
3869,57.58,5.21,-8.37,1
3870,57.6,-1.32,-10.72,1
3871,57.61,-1.52,-1.98,1
3872,57.63,-3.5,-1.84,1
3873,57.64,-0.31,-3.11,1
3874,57.65,8.37,-2.06,1
3875,57.67,4.18,-4.06,1
3876,57.68,-8.99,2.92,1
3877,57.69,-6.83,13.38,1
3878,57.71,4.75,6.61,1
3879,57.72,4.27,-7.03,1
3880,57.73,0.55,-6.32,1
3881,57.75,2.14,3.59,1
3882,57.76,-2.55,4.95,1
3883,57.77,-6.94,-4.75,1
3884,57.79,1.33,-6.68,1
3885,57.8,9.39,7.38,1
3886,57.81,4.7,15.53,1
3887,57.83,-3.14,7.03,1
3888,57.84,1.3,-2.33,1
3889,57.85,14.0,-5.56,1
3890,57.87,15.85,-4.52,1
3891,57.88,7.97,3.19,1
3892,57.89,4.02,12.2,1
3893,57.9,-5.58,16.34,1
3894,57.92,-21.54,18.0,1
3895,57.93,-17.51,10.15,1
3896,57.95,1.62,-9.43,1
3897,57.96,4.41,-19.32,1
3898,57.97,-9.17,-10.99,1
3899,57.99,-17.57,0.5,1
3900,58.0,-9.69,5.68,1
3901,58.01,7.54,6.84,1
3902,58.02,18.13,11.2,1
3903,58.04,19.02,16.79,1
3904,58.05,13.16,10.86,1
3905,58.06,-5.55,0.9,1
3906,58.08,-29.01,2.72,1
3907,58.09,-28.51,6.23,1
3908,58.1,-2.01,5.36,1
3909,58.12,14.05,6.17,1
3910,58.13,5.13,1.33,1
3911,58.14,-1.9,-2.36,1
3912,58.16,4.38,14.9,0
3913,58.17,8.02,36.16,0
3914,58.18,4.19,26.66,0
3915,58.2,-2.96,-20.79,0
3916,58.21,-12.77,-84.11,0
3917,58.22,-15.68,-130.34,0
3918,58.24,-2.99,-146.48,0
3919,58.25,11.23,-147.98,0
3920,58.26,18.19,-153.11,0
3921,58.28,33.7,-164.14,0
3922,58.29,54.0,-167.51,0
3923,58.31,51.02,-147.19,0
3924,58.32,32.54,-107.01,0
3925,58.33,33.45,-69.2,0
3926,58.35,52.64,-34.06,0
3927,58.36,59.87,16.66,0
3928,58.37,37.15,67.21,0
3929,58.38,-2.78,92.72,0
3930,58.4,-24.76,104.37,0
3931,58.41,-23.65,120.59,0
3932,58.43,-32.66,147.38,0
3933,58.44,-53.37,182.54,0
3934,58.45,-48.75,204.82,0
3935,58.47,-17.88,198.8,0
3936,58.48,-1.58,184.12,0
3937,58.49,-19.28,179.86,0
3938,58.51,-48.21,168.82,0
3939,58.52,-52.05,122.71,0
3940,58.53,-25.96,53.62,0
3941,58.54,-4.93,19.59,0
3942,58.56,-12.2,46.16,1
3943,58.57,-38.95,86.79,1
3944,58.59,-68.11,101.06,1
3945,58.6,-78.77,105.67,1
3946,58.61,-67.18,112.66,1
3947,58.63,-55.17,105.26,1
3948,58.64,-46.53,90.36,1
3949,58.65,-21.88,82.03,1
3950,58.66,8.11,67.55,1
3951,58.68,12.52,49.1,1
3952,58.69,-1.24,41.57,1
3953,58.7,-5.88,37.84,1
3954,58.72,-0.69,35.76,1
3955,58.73,6.76,37.27,1
3956,58.74,12.81,27.18,1
3957,58.76,12.9,10.41,1
3958,58.77,14.37,6.3,1
3959,58.78,16.14,6.33,1
3960,58.8,4.03,0.99,1
3961,58.81,-12.6,-5.22,1
3962,58.82,-5.2,-15.34,1
3963,58.84,31.61,-23.65,1
3964,58.85,58.17,-21.18,1
3965,58.86,35.19,-21.17,1
3966,58.88,-7.17,-26.75,1
3967,58.89,-11.51,-28.41,1
3968,58.9,14.15,-33.96,1
3969,58.92,27.5,-39.52,1
3970,58.93,26.02,-36.71,1
3971,58.95,24.13,-42.69,1
3972,58.96,18.92,-54.06,1
3973,58.97,10.57,-40.91,1
3974,58.99,7.78,-9.89,1
3975,59.0,16.38,2.93,1
3976,59.01,54.93,-8.19,1
3977,59.03,133.64,-24.28,1
3978,59.04,208.14,-40.27,1
3979,59.05,229.62,-56.73,1
3980,59.06,209.48,-65.85,1
3981,59.08,175.71,-65.25,1
3982,59.09,124.68,-64.85,1
3983,59.11,49.05,-71.4,1
3984,59.12,-24.78,-77.74,1
3985,59.13,-70.37,-79.98,1
3986,59.15,-95.72,-86.57,1
3987,59.16,-107.18,-91.98,1
3988,59.17,-107.74,-83.53,1
3989,59.19,-116.58,-71.03,1
3990,59.2,-128.99,-66.25,1
3991,59.21,-117.66,-65.75,1
3992,59.22,-92.6,-64.55,1
3993,59.24,-85.33,-56.13,1
3994,59.25,-88.86,-43.65,1
3995,59.27,-81.37,-46.67,1
3996,59.28,-69.1,-60.85,1
3997,59.29,-62.73,-59.31,1
3998,59.3,-60.83,-45.06,1
3999,59.32,-56.29,-34.73,1
4000,59.33,-41.07,-29.33,1
4001,59.34,-23.96,-34.36,1
4002,59.36,-22.55,-44.85,1
4003,59.37,-34.37,-42.29,1
4004,59.38,-38.95,-32.4,1
4005,59.4,-28.51,-25.58,1
4006,59.41,-17.84,-15.12,1
4007,59.42,-12.72,-0.97,1
4008,59.44,-10.26,15.79,1
4009,59.45,-26.05,32.75,1
4010,59.46,-70.22,32.19,1
4011,59.48,-120.28,16.08,1
4012,59.49,-154.22,4.4,1
4013,59.5,-175.39,-9.99,1
4014,59.52,-184.12,-31.69,1
4015,59.53,-170.71,-45.25,1
4016,59.54,-136.29,-58.12,1
4017,59.56,-89.27,-78.92,1
4018,59.57,-31.17,-89.11,1
4019,59.59,34.55,-81.98,1
4020,59.6,85.88,-63.2,1
4021,59.61,110.36,-32.7,1
4022,59.63,128.52,-2.43,1
4023,59.64,152.81,18.69,1
4024,59.65,160.58,35.0,1
4025,59.67,140.22,41.66,1
4026,59.68,127.32,35.54,1
4027,59.69,142.45,13.55,1
4028,59.71,147.89,-27.89,1
4029,59.72,125.81,-49.84,1
4030,59.73,109.28,-16.77,1
4031,59.75,115.79,31.12,1
4032,59.76,126.68,50.46,1
4033,59.77,123.06,55.68,1
4034,59.79,109.77,63.09,1
4035,59.8,96.22,68.15,1
4036,59.81,76.78,66.83,1
4037,59.83,53.98,54.12,1
4038,59.84,40.1,40.39,1
4039,59.85,36.64,45.3,1
4040,59.87,40.19,55.65,1
4041,59.88,47.18,52.33,1
4042,59.89,46.74,46.85,1
4043,59.9,29.91,45.22,1
4044,59.92,9.72,42.22,1
4045,59.93,7.17,43.22,1
4046,59.94,14.23,44.24,1
4047,59.96,12.4,38.33,1
4048,59.97,9.72,31.45,1
4049,59.98,9.39,24.35,1
4050,60.0,-6.6,21.57,1
4051,60.01,-25.51,32.51,1
4052,60.02,-19.27,40.97,1
4053,60.04,-3.38,35.44,1
4054,60.05,-1.08,34.96,1
4055,60.06,-5.28,38.74,1
4056,60.08,-5.5,28.83,1
4057,60.09,-7.27,17.33,1
4058,60.1,-16.83,17.5,1
4059,60.12,-18.24,19.22,1
4060,60.13,-6.04,16.24,1
4061,60.14,-8.35,9.38,1
4062,60.16,-28.71,5.93,2
4063,60.17,-36.92,22.09,2
4064,60.18,-29.43,67.36,2
4065,60.2,-22.04,150.0,2
4066,60.21,-19.58,271.55,2
4067,60.22,-25.56,388.3,2
4068,60.24,-35.5,425.59,2
4069,60.25,-41.06,368.65,2
4070,60.27,-46.94,288.28,2
4071,60.28,-51.01,220.92,2
4072,60.29,-44.18,112.5,2
4073,60.31,-33.3,-43.76,2
4074,60.32,-32.25,-151.3,2
4075,60.33,-44.52,-178.97,2
4076,60.35,-50.68,-214.1,2
4077,60.36,-32.68,-278.29,2
4078,60.37,-11.17,-295.55,2
4079,60.38,-10.94,-259.64,2
4080,60.4,-16.11,-230.47,2
4081,60.41,-6.68,-218.76,2
4082,60.43,1.42,-205.19,2
4083,60.44,-9.69,-187.08,2
4084,60.45,-22.48,-164.32,2
4085,60.47,-18.57,-142.97,2
4086,60.48,-9.35,-132.0,2
4087,60.49,-9.18,-122.39,2
4088,60.51,-15.99,-111.35,2
4089,60.52,-20.91,-107.99,2
4090,60.53,-17.34,-100.05,2
4091,60.54,-7.82,-82.48,2
4092,60.56,1.64,-70.66,1
4093,60.57,6.43,-67.32,1
4094,60.58,2.71,-78.31,1
4095,60.6,-4.23,-95.39,1
4096,60.61,-5.13,-80.32,1
4097,60.62,-2.41,-40.43,1
4098,60.64,-7.02,-21.77,1
4099,60.65,-18.55,-25.85,1
4100,60.66,-21.37,-24.96,1
4101,60.68,-13.38,-7.39,1
4102,60.69,-7.08,11.59,1
4103,60.7,-6.09,6.5,1
4104,60.72,-8.42,-5.01,1
4105,60.73,-11.14,14.53,1
4106,60.74,-9.76,41.39,1
4107,60.76,-7.4,40.37,1
4108,60.77,-10.23,31.04,1
4109,60.78,-13.89,24.94,1
4110,60.8,-10.41,13.39,1
4111,60.81,-2.28,20.02,1
4112,60.82,-1.29,49.28,1
4113,60.84,-10.39,61.68,1
4114,60.85,-15.14,52.44,1
4115,60.865,-6.15,44.95,1
4116,60.88,7.27,40.37,1
4117,60.89,11.38,41.85,1
4118,60.9,4.35,49.84,1
4119,60.92,-3.79,45.75,1
4120,60.93,-11.36,38.77,1
4121,60.95,-20.55,43.77,1
4122,60.96,-15.98,44.21,1
4123,60.97,6.16,41.05,1
4124,60.99,16.79,48.61,1
4125,61.0,-0.74,55.94,1
4126,61.01,-21.48,58.01,1
4127,61.03,-23.8,59.57,1
4128,61.04,-17.31,51.99,1
4129,61.05,-9.78,36.73,1
4130,61.06,2.72,32.47,1
4131,61.08,14.75,41.19,1
4132,61.09,15.5,45.26,1
4133,61.11,6.96,36.59,1
4134,61.12,3.72,25.28,1
4135,61.13,8.8,26.68,1
4136,61.15,6.02,37.17,1
4137,61.16,-2.91,38.25,1
4138,61.17,4.82,33.54,1
4139,61.19,18.53,31.98,1
4140,61.2,7.28,26.1,1
4141,61.21,-11.24,20.67,1
4142,61.22,-5.22,24.99,1
4143,61.24,6.77,31.27,1
4144,61.25,3.79,36.54,1
4145,61.26,-2.07,38.99,1
4146,61.28,0.31,31.87,1
4147,61.29,15.0,25.87,1
4148,61.3,29.2,28.49,1
4149,61.32,18.64,26.87,1
4150,61.33,-5.47,22.46,1
4151,61.34,-12.8,19.91,1
4152,61.36,-3.79,13.63,1
4153,61.37,5.01,14.4,1
4154,61.38,8.31,24.55,1
4155,61.4,11.41,24.16,1
4156,61.41,19.54,10.99,1
4157,61.42,24.58,-3.05,1
4158,61.44,16.74,-12.09,1
4159,61.45,4.98,-7.64,1
4160,61.46,2.88,4.06,1
4161,61.48,8.25,-0.01,1
4162,61.49,12.38,-13.14,1
4163,61.5,6.18,-10.38,1
4164,61.52,-9.13,0.81,1
4165,61.53,-10.61,3.5,1
4166,61.54,6.04,-1.77,1
4167,61.56,13.32,-9.97,1
4168,61.57,5.76,-13.12,1
4169,61.59,0.99,-7.21,1
4170,61.6,2.45,-0.22,1
4171,61.61,5.71,4.55,1
4172,61.63,10.83,9.52,1
4173,61.64,15.58,7.44,1
4174,61.65,14.7,-3.28,1
4175,61.67,4.97,-11.29,1
4176,61.68,-6.47,-13.9,1
4177,61.69,-7.24,-15.89,1
4178,61.71,-1.87,-17.53,1
4179,61.72,-2.1,-16.68,1
4180,61.73,1.17,-10.96,1
4181,61.75,11.91,-4.8,1
4182,61.76,12.89,-6.45,1
4183,61.77,5.32,-11.31,1
4184,61.79,4.22,-15.82,1
4185,61.8,5.96,-27.88,1
4186,61.81,6.82,-35.71,1
4187,61.83,8.18,-26.8,1
4188,61.84,6.45,-20.15,1
4189,61.85,5.98,-22.88,1
4190,61.86,7.89,-24.84,1
4191,61.88,4.32,-28.69,1
4192,61.89,0.54,-30.59,1
4193,61.9,3.59,-24.1,1
4194,61.92,6.54,-16.68,1
4195,61.93,5.68,-12.45,1
4196,61.94,2.3,-16.02,1
4197,61.96,-5.27,-33.13,1
4198,61.97,-9.78,-39.01,1
4199,61.98,-3.1,-15.45,1
4200,62.0,3.75,1.35,1
4201,62.01,2.67,-9.43,1
4202,62.02,0.11,-20.83,1
4203,62.04,-2.08,-18.85,1
4204,62.05,-2.8,-9.05,1
4205,62.06,-0.36,-4.31,1
4206,62.08,0.68,-19.91,1
4207,62.09,0.26,-39.92,1
4208,62.1,-1.93,-38.66,1
4209,62.12,-8.55,-26.65,1
4210,62.13,-9.24,-19.28,1
4211,62.14,2.55,-8.34,1
4212,62.16,14.95,10.24,2
4213,62.17,19.21,31.95,2
4214,62.19,15.66,34.94,2
4215,62.2,3.28,-1.44,2
4216,62.21,-9.75,1.26,2
4217,62.22,-6.68,88.73,2
4218,62.24,19.87,156.95,2
4219,62.25,51.16,229.46,2
4220,62.27,43.34,379.41,2
4221,62.28,8.16,440.66,2
4222,62.29,7.98,334.29,2
4223,62.31,-9.21,238.29,2
4224,62.32,-117.45,226.73,2
4225,62.33,-188.76,209.34,2
4226,62.35,-92.43,157.75,2
4227,62.36,67.79,115.58,2
4228,62.37,130.58,91.54,2
4229,62.38,45.18,65.13,2
4230,62.4,-111.27,34.55,2
4231,62.41,-153.82,9.13,2
4232,62.43,-42.58,-12.13,2
4233,62.44,20.67,-33.83,2
4234,62.45,-34.22,-54.74,2
4235,62.47,-46.39,-72.83,2
4236,62.48,35.79,-88.76,2
4237,62.49,89.87,-103.37,2
4238,62.5,41.06,-115.85,2
4239,62.52,-45.13,-126.55,2
4240,62.53,-49.44,-136.62,2
4241,62.54,44.12,-146.43,2
4242,62.56,111.61,-154.68,1
4243,62.57,91.14,-160.74,1
4244,62.58,80.51,-165.64,1
4245,62.6,105.01,-169.79,1
4246,62.61,62.29,-173.34,1
4247,62.62,-26.55,-176.03,1
4248,62.64,-38.51,-195.8,1
4249,62.65,19.87,-272.16,1
4250,62.66,42.1,-354.57,1
4251,62.68,-4.27,-325.09,1
4252,62.69,-39.39,-245.68,1
4253,62.7,-1.59,-250.43,1
4254,62.72,33.54,-295.29,1
4255,62.73,-4.49,-317.93,1
4256,62.74,-28.29,-314.63,1
4257,62.76,10.73,-254.25,1
4258,62.77,19.37,-201.47,1
4259,62.78,-5.08,-265.62,1
4260,62.8,18.48,-343.45,1
4261,62.81,41.96,-281.52,1
4262,62.83,0.61,-164.59,1
4263,62.84,-29.1,-105.46,1
4264,62.85,12.62,-66.45,1
4265,62.87,49.45,-66.53,1
4266,62.88,1.5,-142.84,1
4267,62.89,-73.27,-188.33,1
4268,62.9,-61.09,-162.1,1
4269,62.92,7.35,-140.77,1
4270,62.93,13.24,-99.04,1
4271,62.95,-14.35,-29.81,1
4272,62.96,20.71,-47.81,1
4273,62.97,58.04,-100.06,1
4274,62.99,19.12,-26.18,1
4275,63.0,-17.11,70.48,1
4276,63.01,7.58,27.18,1
4277,63.03,17.22,-36.13,1
4278,63.04,-21.28,27.67,1
4279,63.05,-39.4,126.96,1
4280,63.06,-23.65,134.57,1
4281,63.08,-33.16,97.47,1
4282,63.09,-64.25,106.71,1
4283,63.11,-52.71,142.17,1
4284,63.12,-4.31,139.7,1
4285,63.13,3.3,93.18,1
4286,63.14,-34.95,64.02,1
4287,63.16,-51.69,104.9,1
4288,63.17,-39.2,148.62,1
4289,63.18,-26.28,113.27,1
4290,63.2,-14.23,115.93,1
4291,63.21,-9.22,235.32,1
4292,63.22,-10.07,272.84,1
4293,63.24,-2.52,187.92,1
4294,63.25,1.45,204.29,1
4295,63.26,-14.14,271.09,1
4296,63.28,-24.91,181.64,1
4297,63.29,-4.22,65.8,1
4298,63.3,10.97,136.02,1
4299,63.32,-11.35,270.5,1
4300,63.33,-20.44,251.16,1
4301,63.34,8.97,138.47,1
4302,63.36,24.15,110.44,1
4303,63.37,9.42,149.83,1
4304,63.38,-2.81,141.38,1
4305,63.4,-12.17,107.9,1
4306,63.41,-28.96,150.67,1
4307,63.42,-27.94,235.41,1
4308,63.44,5.41,237.59,1
4309,63.45,32.85,195.49,1
4310,63.46,13.02,224.8,1
4311,63.48,-30.54,230.86,1
4312,63.49,-36.71,130.97,1
4313,63.51,-11.5,83.25,1
4314,63.52,-8.64,117.95,1
4315,63.53,-12.79,105.61,1
4316,63.54,8.75,103.53,1
4317,63.56,22.98,175.34,1
4318,63.57,15.45,204.09,1
4319,63.59,16.95,129.14,1
4320,63.6,21.33,44.77,1
4321,63.61,9.76,46.83,1
4322,63.63,0.69,111.91,1
4323,63.64,2.76,140.74,1
4324,63.65,-0.38,95.15,1
4325,63.67,-6.93,29.18,1
4326,63.68,-2.05,-2.95,1
4327,63.69,-1.0,-1.71,1
4328,63.71,-19.71,5.64,1
4329,63.72,-23.64,5.55,1
4330,63.73,2.21,-21.4,1
4331,63.75,12.57,-74.11,1
4332,63.76,-4.4,-71.32,1
4333,63.77,-7.16,14.48,1
4334,63.78,16.74,82.99,1
4335,63.8,25.82,69.07,1
4336,63.81,1.82,23.9,1
4337,63.82,-8.19,-1.37,1
4338,63.84,17.49,-38.17,1
4339,63.85,21.67,-74.25,1
4340,63.86,-15.57,-56.87,1
4341,63.88,-20.39,-37.99,1
4342,63.89,29.78,-46.06,1
4343,63.9,53.24,-21.68,1
4344,63.92,21.58,25.28,1
4345,63.93,-2.15,26.75,1
4346,63.94,4.19,-3.41,1
4347,63.96,4.55,-3.41,1
4348,63.97,-11.64,-0.03,1
4349,63.98,-14.06,-34.35,1
4350,64.0,6.4,-70.24,1
4351,64.01,10.0,-73.92,1
4352,64.02,-12.9,-26.81,1
4353,64.04,-22.96,35.73,1
4354,64.05,-8.41,19.8,1
4355,64.06,10.89,-40.18,1
4356,64.08,14.05,-70.21,1
4357,64.09,0.53,-129.05,1
4358,64.1,-7.43,-167.11,1
4359,64.12,-12.56,-74.77,1
4360,64.13,-12.21,5.24,1
4361,64.14,26.54,-57.33,1
4362,64.16,67.17,-136.17,0
4363,64.17,51.19,-123.92,0
4364,64.18,23.23,-69.48,0
4365,64.2,28.34,-55.09,0
4366,64.21,30.03,-92.48,0
4367,64.22,11.99,-118.05,0
4368,64.24,2.98,-107.81,0
4369,64.25,5.12,-115.72,0
4370,64.26,-3.14,-165.23,0
4371,64.28,-13.22,-224.83,0
4372,64.29,-8.35,-275.2,0
4373,64.3,-5.21,-314.8,0
4374,64.32,-9.25,-335.32,0
4375,64.33,1.64,-328.68,0
4376,64.34,20.81,-295.84,0
4377,64.36,28.92,-253.64,0
4378,64.37,32.85,-219.26,0
4379,64.38,34.36,-171.68,0
4380,64.4,19.39,-86.57,0
4381,64.41,-5.57,3.33,0
4382,64.42,-12.59,53.35,0
4383,64.44,-0.06,65.15,0
4384,64.45,4.77,70.9,0
4385,64.46,-4.69,91.98,0
4386,64.48,-15.93,113.45,0
4387,64.49,-18.68,112.33,0
4388,64.5,-7.25,101.76,0
4389,64.52,3.9,95.79,0
4390,64.53,-2.14,67.11,0
4391,64.54,-16.11,11.03,0
4392,64.56,-23.44,-15.06,1
4393,64.57,-22.41,19.36,1
4394,64.58,-12.28,66.84,1
4395,64.6,4.53,78.2,1
4396,64.61,14.32,60.98,1
4397,64.62,7.93,44.38,1
4398,64.64,-4.3,35.28,1
4399,64.65,-5.77,31.52,1
4400,64.66,4.87,37.77,1
4401,64.68,12.34,45.86,1
4402,64.69,9.43,51.5,1
4403,64.7,3.81,66.67,1
4404,64.72,-2.33,77.35,1
4405,64.73,-9.31,62.95,1
4406,64.74,-12.37,45.76,1
4407,64.76,-9.47,44.95,1
4408,64.77,-4.71,47.46,1
4409,64.79,0.63,52.04,1
4410,64.8,15.25,59.44,1
4411,64.81,23.7,57.02,1
4412,64.82,-0.89,52.63,1
4413,64.84,-26.58,54.29,1
4414,64.85,-15.18,50.81,1
4415,64.86,1.4,50.95,1
4416,64.88,-4.66,61.19,1
4417,64.89,-10.28,55.76,1
4418,64.9,-5.89,35.63,1
4419,64.92,-6.16,33.38,1
4420,64.93,-4.28,46.24,1
4421,64.94,1.48,49.66,1
4422,64.96,-9.12,38.66,1
4423,64.97,-19.82,22.19,1
4424,64.98,-1.91,12.94,1
4425,65.0,19.46,11.73,1
4426,65.01,15.7,5.46,1
4427,65.02,2.34,-5.91,1
4428,65.04,-8.06,-10.92,1
4429,65.05,-14.61,-8.64,1
4430,65.06,-6.45,-3.76,1
4431,65.08,7.33,-1.44,1
4432,65.09,2.1,-6.97,1
4433,65.1,-12.69,-11.65,1
4434,65.12,-15.19,-9.67,1
4435,65.13,-10.39,-16.1,1
4436,65.14,-7.36,-30.05,1
4437,65.16,-5.56,-29.7,1
4438,65.17,-5.05,-18.09,1
4439,65.18,-4.96,-11.9,1
4440,65.2,-6.77,-13.04,1
4441,65.21,-10.26,-17.03,1
4442,65.22,-10.0,-13.71,1
4443,65.24,-10.1,-0.88,1
4444,65.25,-11.53,3.28,1
4445,65.26,-5.87,-11.04,1
4446,65.28,-2.36,-30.77,1
4447,65.29,-9.62,-38.62,1
4448,65.3,-15.33,-28.86,1
4449,65.32,-13.2,-19.02,1
4450,65.33,-7.56,-23.19,1
4451,65.34,-2.05,-22.08,1
4452,65.36,0.11,-9.37,1
4453,65.37,-1.01,-10.57,1
4454,65.38,-5.13,-26.0,1
4455,65.4,-12.05,-30.22,1
4456,65.41,-13.33,-18.44,1
4457,65.42,-4.43,-7.62,1
4458,65.44,5.05,-12.97,1
4459,65.45,1.99,-31.14,1
4460,65.46,-12.17,-37.96,1
4461,65.48,-18.01,-28.33,1
4462,65.49,-3.75,-26.59,1
4463,65.5,17.32,-30.51,1
4464,65.52,24.18,-21.92,1
4465,65.53,13.42,-15.53,1
4466,65.54,-0.22,-19.67,1
4467,65.56,-4.01,-16.86,1
4468,65.57,0.2,-8.26,1
4469,65.58,3.59,-4.91,1
4470,65.6,5.44,-7.07,1
4471,65.61,8.09,-17.97,1
4472,65.62,4.53,-29.65,1
4473,65.64,-5.5,-25.02,1
4474,65.65,-6.65,-16.9,1
4475,65.66,-0.03,-23.25,1
4476,65.68,-1.74,-29.18,1
4477,65.69,-2.8,-23.73,1
4478,65.7,9.18,-16.05,1
4479,65.72,14.21,-10.42,1
4480,65.73,3.53,-5.84,1
4481,65.74,-1.98,-1.18,1
4482,65.76,3.49,0.63,1
4483,65.77,10.44,-6.45,1
4484,65.78,16.57,-9.3,1
4485,65.8,17.42,6.83,1
4486,65.81,9.34,16.37,1
4487,65.82,-0.52,1.14,1
4488,65.84,-5.38,-8.54,1
4489,65.85,-4.45,-3.04,1
4490,65.86,0.2,-0.71,1
4491,65.88,2.27,5.89,1
4492,65.89,2.15,18.94,1
4493,65.9,6.22,20.4,1
4494,65.92,8.59,11.04,1
4495,65.93,5.68,3.74,1
4496,65.94,5.79,2.49,1
4497,65.96,7.39,5.15,1
4498,65.97,7.11,7.45,1
4499,65.98,9.45,9.53,1
4500,66.0,8.21,12.81,1
4501,66.01,-2.92,10.14,1
4502,66.02,-9.55,0.48,1
4503,66.04,-0.98,-5.61,1
4504,66.05,7.85,-3.68,1
4505,66.06,5.06,3.63,1
4506,66.08,0.06,9.64,1
4507,66.09,-0.07,8.06,1
4508,66.11,1.72,11.01,1
4509,66.12,3.19,25.59,1
4510,66.13,4.84,32.52,1
4511,66.14,3.61,27.11,1
4512,66.16,-4.56,16.53,0
4513,66.17,-9.02,-14.93,0
4514,66.18,-1.12,-64.2,0
4515,66.2,3.1,-104.75,0
4516,66.21,-1.15,-136.41,0
4517,66.22,-1.65,-159.0,0
4518,66.24,-5.85,-160.69,0
4519,66.25,-10.97,-160.4,0
4520,66.26,3.31,-167.86,0
4521,66.28,21.14,-152.91,0
4522,66.29,24.2,-114.59,0
4523,66.3,34.5,-84.86,0
4524,66.32,55.51,-62.56,0
4525,66.33,60.29,-33.22,0
4526,66.34,49.28,1.04,0
4527,66.36,39.4,39.28,0
4528,66.37,27.31,70.97,0
4529,66.38,8.36,91.39,0
4530,66.4,-9.55,119.68,0
4531,66.41,-21.28,149.0,0
4532,66.42,-25.48,158.76,0
4533,66.44,-17.63,166.8,0
4534,66.45,-2.49,185.47,0
4535,66.46,-3.38,197.08,0
4536,66.48,-28.7,198.83,0
4537,66.49,-47.48,195.19,0
4538,66.5,-35.75,184.45,0
4539,66.52,-16.17,170.07,0
4540,66.53,-14.37,152.79,0
4541,66.54,-17.7,141.48,0
4542,66.56,-23.65,140.02,1
4543,66.57,-44.65,130.42,1
4544,66.58,-44.56,118.67,1
4545,66.6,-9.26,118.19,1
4546,66.61,3.93,104.66,1
4547,66.62,-11.72,73.22,1
4548,66.64,-12.06,54.19,1
4549,66.65,-0.9,50.03,1
4550,66.66,-4.11,47.89,1
4551,66.68,-20.19,44.12,1
4552,66.69,-26.73,25.7,1
4553,66.7,-13.19,5.3,1
4554,66.72,-3.41,12.53,1
4555,66.73,-11.9,21.61,1
4556,66.75,-22.6,1.63,1
4557,66.76,-26.69,-19.39,1
4558,66.77,-19.35,-19.86,1
4559,66.79,1.1,-14.06,1
4560,66.8,9.99,-13.81,1
4561,66.81,-7.85,-24.12,1
4562,66.82,-22.97,-36.17,1
4563,66.84,-3.02,-35.78,1
4564,66.85,29.26,-36.58,1
4565,66.86,19.59,-50.07,1
4566,66.88,-20.35,-56.96,1
4567,66.89,-22.6,-53.2,1
4568,66.9,8.27,-53.77,1
4569,66.92,4.77,-54.89,1
4570,66.93,-23.01,-52.31,1
4571,66.94,-13.58,-52.88,1
4572,66.96,18.15,-53.01,1
4573,66.97,26.55,-49.78,1
4574,66.98,26.75,-50.01,1
4575,67.0,36.52,-54.61,1
4576,67.01,36.77,-61.38,1
4577,67.02,22.42,-67.27,1
4578,67.04,7.81,-66.77,1
4579,67.05,9.01,-64.17,1
4580,67.06,24.19,-61.96,1
4581,67.08,21.08,-53.53,1
4582,67.09,-0.63,-48.51,1
4583,67.1,-4.67,-57.7,1
4584,67.12,5.11,-65.59,1
4585,67.13,7.52,-63.73,1
4586,67.14,7.0,-60.92,1
4587,67.16,6.48,-56.85,1
4588,67.17,2.53,-53.64,1
4589,67.18,0.44,-57.36,1
4590,67.2,5.61,-60.61,1
4591,67.21,11.73,-59.93,1
4592,67.22,13.11,-58.65,1
4593,67.24,16.87,-51.93,1
4594,67.25,20.89,-45.34,1
4595,67.26,11.99,-44.47,1
4596,67.28,1.32,-36.92,1
4597,67.29,8.35,-28.03,1
4598,67.3,16.8,-31.76,1
4599,67.32,5.5,-33.61,1
4600,67.33,-11.22,-27.19,1
4601,67.34,-11.59,-27.24,1
4602,67.36,0.19,-30.41,1
4603,67.37,3.24,-27.06,1
4604,67.38,-5.5,-20.07,1
4605,67.4,-7.14,-11.87,1
4606,67.41,1.93,-10.29,1
4607,67.43,2.28,-18.6,1
4608,67.44,-8.38,-20.81,1
4609,67.45,-4.46,-13.35,1
4610,67.46,15.89,-10.25,1
4611,67.48,17.99,-11.14,1
4612,67.49,-1.0,-10.22,1
4613,67.5,-6.38,-8.46,1
4614,67.52,5.35,-2.44,1
4615,67.53,9.78,5.64,1
4616,67.54,4.84,5.97,1
4617,67.56,4.01,0.65,1
4618,67.57,3.91,-5.61,1
4619,67.58,-3.31,-10.69,1
4620,67.6,-7.62,-4.05,1
4621,67.61,0.28,7.6,1
4622,67.62,10.84,8.74,1
4623,67.64,10.38,11.29,1
4624,67.65,1.0,17.17,1
4625,67.66,-3.25,11.34,1
4626,67.68,-3.48,8.08,1
4627,67.69,-7.58,16.59,1
4628,67.7,-6.98,19.15,1
4629,67.72,-1.32,15.9,1
4630,67.73,-3.83,14.12,1
4631,67.74,-10.2,12.24,1
4632,67.76,-12.98,19.54,1
4633,67.77,-15.99,31.59,1
4634,67.78,-15.35,28.45,1
4635,67.8,-7.15,20.98,1
4636,67.81,1.95,22.58,1
4637,67.82,5.51,17.5,1
4638,67.84,0.64,8.1,1
4639,67.85,-12.77,14.21,1
4640,67.86,-23.25,26.08,1
4641,67.88,-16.11,28.91,1
4642,67.89,2.74,28.61,1
4643,67.9,12.76,24.56,1
4644,67.92,6.45,16.64,1
4645,67.93,-3.77,16.53,1
4646,67.94,-2.93,24.83,1
4647,67.96,4.09,35.05,1
4648,67.97,1.38,38.57,1
4649,67.98,-7.87,27.57,1
4650,68.0,-11.48,15.71,1
4651,68.01,-11.59,14.11,1
4652,68.02,-15.48,10.87,1
4653,68.04,-18.2,7.57,1
4654,68.05,-11.33,11.23,1
4655,68.06,4.97,9.21,1
4656,68.08,15.01,6.48,1
4657,68.09,-2.22,16.7,1
4658,68.11,-29.26,23.49,1
4659,68.12,-26.61,24.42,1
4660,68.13,-0.99,33.36,1
4661,68.14,15.19,30.7,1
4662,68.16,14.44,13.04,2
4663,68.17,4.87,11.52,2
4664,68.18,-1.66,21.07,2
4665,68.2,-2.33,20.42,2
4666,68.21,-8.1,13.41,2
4667,68.22,-11.87,3.64,2
4668,68.24,-2.57,-1.85,2
4669,68.25,1.64,2.96,2
4670,68.26,-6.03,1.94,2
4671,68.28,-3.95,-7.66,2
4672,68.29,7.94,-7.16,2
4673,68.3,4.4,2.73,2
4674,68.32,-10.61,10.48,2
4675,68.33,-10.42,15.56,2
4676,68.34,1.93,19.43,2
4677,68.36,4.57,28.08,2
4678,68.37,-4.95,44.86,2
4679,68.38,-12.24,73.43,2
4680,68.4,-9.3,146.65,2
4681,68.41,0.24,274.91,2
4682,68.42,10.74,386.25,2
4683,68.44,12.69,410.56,2
4684,68.45,-3.95,363.17,2
4685,68.46,-28.98,295.3,2
4686,68.48,-44.56,220.3,2
4687,68.49,-49.94,122.45,2
4688,68.5,-40.87,3.03,2
4689,68.52,-11.7,-110.56,2
4690,68.53,15.1,-182.45,2
4691,68.54,19.08,-209.23,2
4692,68.56,15.16,-232.16,1
4693,68.57,20.77,-268.98,1
4694,68.58,27.91,-291.23,1
4695,68.6,29.86,-284.27,1
4696,68.61,30.6,-264.61,1
4697,68.62,23.32,-245.19,1
4698,68.64,7.2,-219.56,1
4699,68.65,4.99,-186.39,1
4700,68.66,25.25,-164.17,1
4701,68.68,35.91,-152.9,1
4702,68.69,11.3,-135.93,1
4703,68.7,-12.7,-128.59,1
4704,68.72,8.69,-134.72,1
4705,68.73,48.34,-109.11,1
4706,68.75,58.23,-50.07,1
4707,68.76,38.8,-21.9,1
4708,68.77,17.37,-41.34,1
4709,68.79,4.31,-59.77,1
4710,68.8,-17.35,-55.12,1
4711,68.81,-39.53,-49.15,1
4712,68.82,-22.0,-49.05,1
4713,68.84,14.13,-37.65,1
4714,68.85,11.56,-17.79,1
4715,68.86,-12.48,-8.41,1
4716,68.88,-18.45,-3.83,1
4717,68.89,-11.92,5.39,1
4718,68.9,5.14,10.57,1
4719,68.92,23.89,12.42,1
4720,68.93,23.59,22.16,1
4721,68.94,17.48,32.18,1
4722,68.96,13.12,29.03,1
4723,68.97,-2.04,23.96,1
4724,68.98,-15.3,27.25,1
4725,69.0,-8.83,30.46,1
4726,69.01,5.76,32.63,1
4727,69.02,6.05,38.94,1
4728,69.04,-5.37,46.54,1
4729,69.05,-8.18,50.52,1
4730,69.06,1.74,43.01,1
4731,69.08,7.66,36.37,1
4732,69.09,-2.42,51.18,1
4733,69.1,-11.26,56.64,1
4734,69.12,5.55,28.4,1
4735,69.13,24.82,16.62,1
4736,69.14,12.9,38.12,1
4737,69.16,-0.05,46.01,1
4738,69.17,15.74,41.8,1
4739,69.18,22.23,51.81,1
4740,69.2,-1.54,63.2,1
4741,69.21,-14.12,61.69,1
4742,69.22,1.28,49.05,1
4743,69.24,5.33,38.0,1
4744,69.25,-17.09,44.88,1
4745,69.26,-29.77,56.47,1
4746,69.28,-18.95,51.79,1
4747,69.29,-11.92,40.51,1
4748,69.3,-14.84,37.6,1
4749,69.32,-13.4,40.47,1
4750,69.33,-13.03,45.36,1
4751,69.34,-16.53,48.83,1
4752,69.36,-16.27,45.74,1
4753,69.37,-15.49,36.91,1
4754,69.38,-12.71,25.79,1
4755,69.4,-5.39,22.9,1
4756,69.41,-0.85,34.62,1
4757,69.43,2.95,38.43,1
4758,69.44,2.76,23.8,1
4759,69.45,-13.33,20.04,1
4760,69.46,-30.98,31.49,1
4761,69.48,-26.43,32.85,1
4762,69.49,-4.66,24.83,1
4763,69.5,11.32,20.35,1
4764,69.52,10.79,20.91,1
4765,69.53,3.45,22.8,1
4766,69.54,-0.89,16.55,1
4767,69.56,-3.26,4.53,1
4768,69.57,-2.92,3.87,1
4769,69.58,-3.96,11.1,1
4770,69.6,-14.3,7.97,1
4771,69.61,-23.37,1.6,1
4772,69.62,-19.06,7.92,1
4773,69.64,-10.34,17.45,1
4774,69.65,-4.31,10.08,1
4775,69.66,1.85,-10.41,1
4776,69.68,2.64,-10.57,1
4777,69.69,-4.04,15.26,1
4778,69.7,-4.86,20.2,1
4779,69.72,5.61,-7.82,1
4780,69.73,14.25,-21.18,1
4781,69.74,12.54,-6.57,1
4782,69.76,4.95,1.73,1
4783,69.77,-3.79,-7.54,1
4784,69.78,-8.82,-17.73,1
4785,69.8,-3.92,-16.17,1
4786,69.81,7.36,-4.94,1
4787,69.82,14.65,-1.27,1
4788,69.84,13.26,-7.21,1
4789,69.85,4.42,-6.08,1
4790,69.86,-3.56,-7.97,1
4791,69.88,-1.23,-19.41,1
4792,69.89,5.22,-13.29,1
4793,69.9,4.06,-0.39,1
4794,69.92,-1.17,-11.51,1
4795,69.93,-2.49,-20.92,1
4796,69.94,-3.79,-11.76,1
4797,69.96,-5.49,-13.55,1
