,Timestamp,Data1,Data2,Label
0,6.0,10.77,-3.59,1
1,6.01,-16.15,-6.48,1
2,6.03,-48.81,-14.65,1
3,6.04,-68.75,-7.6,1
4,6.05,-49.84,10.12,1
5,6.07,-3.43,11.72,1
6,6.08,24.76,-3.13,1
7,6.09,26.98,-11.7,1
8,6.11,30.65,-4.68,1
9,6.12,33.96,4.76,1
10,6.13,14.7,2.77,1
11,6.15,-16.55,-5.72,2
12,6.16,-26.57,-9.94,2
13,6.17,-13.92,-17.1,2
14,6.19,1.12,-42.61,2
15,6.2,14.19,-66.71,2
16,6.21,20.78,-53.35,2
17,6.23,21.19,-27.53,2
18,6.24,20.71,-8.04,2
19,6.25,14.45,79.49,2
20,6.265,14.42,269.81,2
21,6.28,14.31,443.43,2
22,6.29,-18.95,466.19,2
23,6.31,-57.65,373.76,2
24,6.32,-47.82,299.04,2
25,6.33,-4.02,273.93,2
26,6.35,6.0,243.4,2
27,6.36,-34.66,194.84,2
28,6.37,-48.77,154.31,2
29,6.39,-0.3,125.07,2
30,6.4,36.25,94.66,2
31,6.41,25.93,62.49,2
32,6.43,21.13,34.34,2
33,6.44,22.75,10.26,2
34,6.45,-10.6,-12.86,2
35,6.47,-38.52,-34.87,2
36,6.48,-10.78,-54.55,2
37,6.49,22.7,-71.98,2
38,6.51,3.92,-88.2,2
39,6.52,-29.35,-103.66,2
40,6.53,-16.97,-117.07,2
41,6.55,14.0,-127.85,2
42,6.56,13.27,-137.32,1
43,6.57,9.77,-146.98,1
44,6.59,28.41,-155.71,1
45,6.6,23.32,-162.38,1
46,6.61,-13.44,-167.39,1
47,6.63,-15.56,-171.87,1
48,6.64,25.46,-175.38,1
49,6.65,31.1,-178.28,1
50,6.67,-15.15,-180.85,1
51,6.68,-34.18,-181.84,1
52,6.69,-1.06,-186.57,1
53,6.71,20.06,-214.86,1
54,6.72,8.38,-276.32,1
55,6.73,6.95,-353.72,1
56,6.75,21.87,-404.14,1
57,6.76,20.61,-370.45,1
58,6.77,-0.21,-291.9,1
59,6.79,-15.79,-301.97,1
60,6.8,-12.43,-391.02,1
61,6.81,4.21,-420.77,1
62,6.82,15.65,-376.82,1
63,6.84,11.88,-320.87,1
64,6.85,12.1,-250.89,1
65,6.86,29.39,-196.55,1
66,6.88,37.59,-200.76,1
67,6.89,29.66,-203.82,1
68,6.91,31.83,-143.32,1
69,6.92,25.77,-67.51,1
70,6.93,-11.67,-67.5,1
71,6.95,-41.05,-132.63,1
72,6.96,-29.58,-157.96,1
73,6.97,-3.6,-93.12,1
74,6.99,-3.22,-2.26,1
75,7.0,-12.68,37.94,1
76,7.01,14.52,35.88,1
77,7.03,51.3,26.97,1
78,7.04,37.86,28.63,1
79,7.05,-0.89,47.48,1
80,7.07,-11.03,78.22,1
81,7.08,-2.96,124.89,1
82,7.09,-9.56,155.5,1
83,7.11,-25.4,134.77,1
84,7.12,-28.03,139.67,1
85,7.13,-7.61,209.42,1
86,7.15,15.62,218.41,1
87,7.16,-1.34,127.43,1
88,7.17,-41.9,83.53,1
89,7.19,-40.65,141.61,1
90,7.2,-2.75,182.52,1
91,7.21,11.98,160.46,1
92,7.23,-6.47,173.4,1
93,7.24,-18.05,236.55,1
94,7.25,-9.18,235.73,1
95,7.27,-6.9,176.31,1
96,7.28,-16.14,198.02,1
97,7.29,-10.82,283.77,1
98,7.31,10.47,287.73,1
99,7.32,18.96,230.45,1
100,7.33,5.61,211.31,1
101,7.35,-10.19,218.11,1
102,7.36,-11.73,226.52,1
103,7.37,2.65,224.5,1
104,7.39,12.08,175.91,1
105,7.4,-5.59,105.77,1
106,7.41,-25.27,95.59,1
107,7.43,-6.34,145.78,1
108,7.44,30.34,171.76,1
109,7.45,30.27,146.53,1
110,7.47,-1.09,136.35,1
111,7.48,-17.21,177.98,1
112,7.49,-12.27,185.63,1
113,7.51,-7.84,122.95,1
114,7.52,-2.21,104.91,1
115,7.53,18.89,142.94,1
116,7.55,32.26,137.84,1
117,7.56,-3.69,100.58,1
118,7.57,-61.22,82.76,1
119,7.59,-65.62,78.02,1
120,7.6,-10.94,56.95,1
121,7.61,30.72,7.52,1
122,7.63,15.16,-33.34,1
123,7.64,-22.68,-13.09,1
124,7.65,-32.04,56.04,1
125,7.67,-1.54,109.86,1
126,7.68,34.76,130.05,1
127,7.69,28.3,125.9,1
128,7.71,-6.96,90.06,1
129,7.72,-18.0,41.82,1
130,7.73,-12.34,16.05,1
131,7.75,-21.47,24.13,1
132,7.76,-36.05,14.27,1
133,7.77,-30.77,-38.54,1
134,7.79,-0.29,-21.62,1
135,7.8,19.41,80.78,1
136,7.81,11.02,88.72,1
137,7.83,14.83,-19.09,1
138,7.84,31.58,-50.59,1
139,7.85,25.26,8.74,1
140,7.87,7.93,3.08,1
141,7.88,-2.14,-59.18,1
142,7.89,-7.87,-104.22,1
143,7.91,0.67,-121.16,1
144,7.92,17.89,-68.85,1
145,7.93,13.42,9.58,1
146,7.95,-11.72,12.9,1
147,7.96,-25.35,-23.34,1
148,7.97,-6.17,-27.21,1
149,7.99,27.72,-23.32,1
150,8.0,20.65,-46.17,1
151,8.01,-33.73,-71.77,1
152,8.03,-67.67,-64.73,1
153,8.04,-50.99,-20.18,1
154,8.05,-32.76,32.23,1
155,8.07,-37.87,36.04,1
156,8.08,-13.57,-25.33,1
157,8.09,48.54,-70.11,1
158,8.1,80.36,-38.28,1
159,8.12,57.72,-10.29,1
160,8.13,5.63,-73.58,1
161,8.15,-36.35,-176.37,0
162,8.16,-33.42,-231.5,0
163,8.17,-4.33,-217.54,0
164,8.19,20.68,-134.57,0
165,8.2,34.1,-53.6,0
166,8.21,34.81,-73.01,0
167,8.23,44.71,-153.95,0
168,8.24,61.01,-219.67,0
169,8.25,40.95,-269.96,0
170,8.27,1.66,-301.49,0
171,8.28,-2.57,-292.78,0
172,8.29,10.55,-246.25,0
173,8.31,-2.15,-181.16,0
174,8.32,-20.15,-118.97,0
175,8.33,-14.57,-75.64,0
176,8.35,-9.22,-44.47,0
177,8.36,-18.74,-13.52,0
178,8.37,-20.06,8.94,0
179,8.39,-10.08,19.54,0
180,8.4,-7.46,29.46,0
181,8.41,-10.71,41.29,0
182,8.43,-7.91,48.92,0
183,8.44,-4.09,49.66,0
184,8.45,-8.07,48.68,0
185,8.47,-9.66,52.58,0
186,8.48,-0.12,57.13,0
187,8.49,3.63,48.37,0
188,8.51,-9.5,30.14,0
189,8.52,-25.39,26.17,0
190,8.53,-29.82,34.09,0
191,8.55,-21.08,27.81,1
192,8.56,-3.77,10.2,1
193,8.57,12.33,0.19,1
194,8.59,16.92,-5.41,1
195,8.6,11.37,-8.44,1
196,8.61,10.46,-0.74,1
197,8.63,17.88,9.44,1
198,8.64,18.05,10.85,1
199,8.65,4.95,11.38,1
200,8.67,-4.44,20.65,1
201,8.68,4.72,27.81,1
202,8.69,19.71,17.85,1
203,8.71,15.81,0.87,1
204,8.72,-2.38,-4.27,1
205,8.73,-8.39,0.66,1
206,8.75,-2.19,4.55,1
207,8.76,2.63,5.0,1
208,8.77,11.92,7.1,1
209,8.78,19.69,11.36,1
210,8.8,4.66,12.73,1
211,8.81,-18.05,11.8,1
212,8.82,-14.27,9.71,1
213,8.84,8.56,6.01,1
214,8.85,16.09,4.18,1
215,8.87,5.61,4.42,1
216,8.88,2.82,2.65,1
217,8.89,10.82,-2.07,1
218,8.91,9.28,-4.7,1
219,8.92,-3.29,-0.8,1
220,8.93,-6.97,2.3,1
221,8.95,0.19,-5.61,1
222,8.96,1.42,-17.49,1
223,8.97,-4.96,-18.84,1
224,8.99,-5.57,-12.84,1
225,9.0,0.16,-12.03,1
226,9.01,-1.26,-12.9,1
227,9.03,-7.94,-4.48,1
228,9.04,-2.34,5.62,1
229,9.05,9.68,0.85,1
230,9.07,5.23,-12.92,1
231,9.08,-6.78,-13.58,1
232,9.09,-4.23,-0.59,1
233,9.11,2.06,7.01,1
234,9.12,-1.59,3.69,1
235,9.13,-2.84,-0.08,1
236,9.15,1.32,3.5,1
237,9.16,-2.11,9.39,1
238,9.17,-8.32,7.4,1
239,9.19,-2.47,0.19,1
240,9.2,9.83,1.55,1
241,9.21,10.73,9.36,1
242,9.23,1.34,8.23,1
243,9.24,-0.65,0.93,1
244,9.25,1.75,2.18,1
245,9.27,-4.38,6.24,1
246,9.28,-3.93,-0.83,1
247,9.29,11.14,-9.79,1
248,9.31,16.82,-10.55,1
249,9.32,7.29,-8.41,1
250,9.33,2.04,1.69,1
251,9.35,4.3,17.42,1
252,9.36,1.82,14.81,1
253,9.37,-3.68,-4.03,1
254,9.39,-3.44,-7.97,1
255,9.4,-3.67,9.12,1
256,9.41,-11.7,19.23,1
257,9.43,-17.12,7.55,1
258,9.44,-7.53,-3.51,1
259,9.45,9.18,3.29,1
260,9.47,13.62,10.19,1
261,9.48,6.83,5.54,1
262,9.49,5.74,4.11,1
263,9.51,6.89,9.57,1
264,9.52,-3.19,10.36,1
265,9.53,-14.21,6.29,1
266,9.55,-6.18,3.92,1
267,9.56,9.46,4.98,1
268,9.57,6.33,4.52,1
269,9.59,-6.88,-1.6,1
270,9.6,-7.86,-2.28,1
271,9.61,-5.51,7.98,1
272,9.63,-11.82,14.15,1
273,9.64,-15.89,11.11,1
274,9.65,-11.49,6.8,1
275,9.67,-6.83,2.87,1
276,9.68,-3.77,3.03,1
277,9.69,1.46,11.59,1
278,9.71,4.2,20.43,1
279,9.72,-0.08,16.78,1
280,9.73,-6.29,2.18,1
281,9.75,-9.27,-3.39,1
282,9.76,-11.95,8.4,1
283,9.77,-18.47,18.23,1
284,9.79,-15.85,14.86,1
285,9.8,4.81,8.22,1
286,9.81,13.95,5.59,1
287,9.83,-4.08,6.95,1
288,9.84,-12.4,7.38,1
289,9.85,6.87,4.58,1
290,9.87,18.0,2.58,1
291,9.88,3.33,-0.89,1
292,9.89,-5.06,-5.06,1
293,9.91,9.95,-0.08,1
294,9.92,15.94,9.06,1
295,9.93,-3.4,8.26,1
296,9.95,-13.58,0.21,1
297,9.96,1.2,-2.93,1
298,9.97,13.62,-0.81,1
299,9.99,8.58,-0.57,1
300,10.0,-0.89,-0.14,1
301,10.01,-11.89,5.26,1
302,10.02,-39.05,11.27,1
303,10.04,-59.44,15.66,1
304,10.05,-31.13,15.07,1
305,10.06,12.96,2.76,1
306,10.08,18.18,-6.05,1
307,10.09,8.39,4.27,1
308,10.1,15.51,13.18,1
309,10.12,14.04,6.85,1
310,10.13,-4.28,4.3,1
311,10.15,-8.75,8.42,0
312,10.16,1.15,3.97,0
313,10.17,-0.54,-6.23,0
314,10.19,-8.21,-12.91,0
315,10.2,8.85,-16.62,0
316,10.21,46.58,-26.67,0
317,10.23,69.73,-65.31,0
318,10.24,67.52,-131.0,0
319,10.25,59.04,-171.0,0
320,10.27,62.96,-154.34,0
321,10.28,63.41,-128.1,0
322,10.29,34.29,-135.42,0
323,10.31,6.16,-153.11,0
324,10.32,15.79,-150.52,0
325,10.33,25.79,-128.91,0
326,10.35,-3.04,-97.26,0
327,10.36,-33.66,-58.76,0
328,10.37,-30.88,-17.32,0
329,10.39,-22.91,19.85,0
330,10.4,-24.61,48.16,0
331,10.41,-15.04,70.28,0
332,10.43,-2.57,92.08,0
333,10.44,-12.83,113.74,0
334,10.45,-35.12,131.82,0
335,10.47,-43.67,150.02,0
336,10.48,-42.09,169.68,0
337,10.49,-40.4,181.45,0
338,10.51,-34.98,183.19,0
339,10.52,-28.65,182.57,0
340,10.53,-25.82,179.77,0
341,10.55,-24.12,169.88,1
342,10.56,-24.96,155.27,1
343,10.57,-29.79,142.37,1
344,10.59,-35.3,132.87,1
345,10.6,-41.9,121.6,1
346,10.61,-41.37,103.65,1
347,10.63,-25.41,79.87,1
348,10.64,-13.71,61.99,1
349,10.65,-14.34,61.0,1
350,10.67,-0.65,59.39,1
351,10.68,21.06,43.32,1
352,10.69,13.38,34.04,1
353,10.71,-11.46,35.68,1
354,10.72,-11.02,29.11,1
355,10.73,5.83,17.36,1
356,10.75,3.69,9.4,1
357,10.76,-3.43,-0.46,1
358,10.77,5.49,-12.72,1
359,10.78,2.32,-17.82,1
360,10.8,-21.05,-12.61,1
361,10.81,-23.12,-7.8,1
362,10.83,3.96,-15.41,1
363,10.84,21.34,-30.91,1
364,10.85,13.46,-38.26,1
365,10.87,6.29,-34.19,1
366,10.88,14.9,-30.93,1
367,10.89,22.06,-37.24,1
368,10.91,20.97,-46.54,1
369,10.92,25.02,-47.07,1
370,10.93,29.25,-45.92,1
371,10.95,17.8,-54.89,1
372,10.96,2.05,-59.67,1
373,10.97,4.43,-48.95,1
374,10.99,16.17,-41.9,1
375,11.0,14.8,-51.61,1
376,11.01,4.7,-64.59,1
377,11.03,3.53,-68.56,1
378,11.04,8.75,-64.0,1
379,11.05,6.78,-57.66,1
380,11.07,2.97,-58.7,1
381,11.08,12.84,-65.3,1
382,11.09,28.42,-60.99,1
383,11.11,28.62,-46.56,1
384,11.12,16.12,-46.28,1
385,11.13,7.22,-59.35,1
386,11.15,1.89,-60.25,1
387,11.16,-4.81,-50.83,1
388,11.17,-4.33,-47.11,1
389,11.19,6.46,-44.73,1
390,11.2,13.46,-36.48,1
391,11.21,10.02,-28.41,1
392,11.23,8.22,-29.66,1
393,11.24,12.65,-37.99,1
394,11.25,10.92,-42.72,1
395,11.27,6.29,-41.7,1
396,11.28,12.38,-41.42,1
397,11.29,21.17,-40.79,1
398,11.31,14.03,-35.96,1
399,11.32,-8.82,-34.31,1
400,11.33,-23.49,-37.65,1
401,11.35,-9.94,-36.61,1
402,11.36,14.17,-33.72,1
403,11.37,17.74,-33.76,1
404,11.39,2.1,-28.22,1
405,11.4,-9.4,-18.13,1
406,11.41,-4.44,-17.15,1
407,11.43,9.37,-22.36,1
408,11.44,15.44,-18.33,1
409,11.45,7.25,-7.12,1
410,11.47,-3.25,-2.61,1
411,11.48,-2.12,-6.14,1
412,11.49,5.17,-10.95,1
413,11.51,4.51,-11.13,1
414,11.52,-2.98,-4.24,1
415,11.53,-5.14,3.41,1
416,11.55,0.08,3.7,1
417,11.56,4.99,-2.95,1
418,11.57,7.05,-8.35,1
419,11.59,7.26,-4.64,1
420,11.6,3.13,3.59,1
421,11.61,-5.56,4.99,1
422,11.63,-15.13,4.3,1
423,11.64,-16.04,11.29,1
424,11.65,-3.3,16.43,1
425,11.67,4.62,11.72,1
426,11.68,-3.03,7.84,1
427,11.69,-8.06,10.37,1
428,11.71,-9.14,11.17,1
429,11.72,-20.8,10.94,1
430,11.73,-27.94,17.53,1
431,11.75,-18.0,20.95,1
432,11.76,-7.64,12.74,1
433,11.77,-1.43,9.26,1
434,11.79,9.28,18.64,1
435,11.8,18.3,24.51,1
436,11.81,18.13,19.26,1
437,11.83,12.78,17.43,1
438,11.84,5.55,26.53,1
439,11.85,-4.13,35.42,1
440,11.87,-10.32,34.27,1
441,11.88,-6.27,24.29,1
442,11.89,-1.12,15.04,1
443,11.91,-4.68,12.19,1
444,11.92,-4.47,10.13,1
445,11.93,8.81,8.97,1
446,11.94,16.06,13.38,1
447,11.96,-1.77,14.66,1
448,11.97,-25.43,8.38,1
449,11.98,-25.04,8.51,1
450,12.0,-10.34,19.15,1
451,12.01,-14.1,26.87,1
452,12.02,-41.22,25.29,1
453,12.04,-55.5,24.07,1
454,12.05,-28.75,28.52,1
455,12.06,7.61,25.39,1
456,12.08,17.5,10.96,1
457,12.09,14.49,3.81,1
458,12.11,13.8,7.07,1
459,12.12,9.82,7.55,1
460,12.13,-0.7,12.35,1
461,12.15,-9.28,23.82,2
462,12.16,-6.49,21.62,2
463,12.17,5.55,10.13,2
464,12.19,19.61,8.79,2
465,12.2,24.26,10.21,2
466,12.21,17.02,9.66,2
467,12.23,23.56,14.32,2
468,12.24,47.23,15.89,2
469,12.25,47.28,10.25,2
470,12.27,13.25,12.29,2
471,12.28,-14.32,44.76,2
472,12.29,-16.21,127.09,2
473,12.31,-19.33,238.03,2
474,12.32,-43.19,314.5,2
475,12.33,-71.12,320.39,2
476,12.35,-71.6,275.67,2
477,12.36,-42.13,215.66,2
478,12.37,-22.18,155.77,2
479,12.39,-26.99,93.57,2
480,12.4,-28.19,25.82,2
481,12.41,-17.31,-42.68,2
482,12.43,-5.83,-100.96,2
483,12.44,2.18,-148.06,2
484,12.45,4.79,-194.2,2
485,12.47,9.29,-230.62,2
486,12.48,22.4,-231.27,2
487,12.49,31.33,-200.72,2
488,12.51,29.27,-173.5,2
489,12.52,28.82,-164.35,2
490,12.53,29.64,-160.37,2
491,12.55,20.01,-151.99,1
492,12.56,6.71,-139.6,1
493,12.57,5.11,-125.19,1
494,12.59,14.18,-113.79,1
495,12.6,25.01,-103.78,1
496,12.61,32.58,-88.78,1
497,12.63,28.43,-74.83,1
498,12.64,9.42,-71.71,1
499,12.65,-5.96,-75.62,1
500,12.67,-0.54,-70.5,1
501,12.68,11.83,-51.63,1
502,12.69,14.12,-34.16,1
503,12.71,13.18,-25.22,1
504,12.72,13.04,-21.27,1
505,12.73,4.62,-22.46,1
506,12.75,-5.98,-23.79,1
507,12.76,-4.06,-15.83,1
508,12.77,3.71,-3.2,1
509,12.79,0.93,-0.52,1
510,12.8,-5.39,-6.95,1
511,12.81,-2.7,-1.58,1
512,12.83,0.35,17.94,1
513,12.84,-2.85,26.74,1
514,12.85,-4.63,21.03,1
515,12.87,-2.35,17.65,1
516,12.88,-0.17,17.09,1
517,12.89,-0.05,20.24,1
518,12.91,-0.38,31.45,1
519,12.92,4.59,34.5,1
520,12.93,10.52,26.62,1
521,12.95,5.35,24.66,1
522,12.96,-1.83,26.18,1
523,12.97,0.55,22.54,1
524,12.99,-4.64,23.54,1
525,13.0,-23.75,38.25,1
526,13.01,-30.74,54.7,1
527,13.03,-17.8,57.6,1
528,13.04,-6.7,53.19,1
529,13.05,-6.52,53.01,1
530,13.07,-6.87,53.49,1
531,13.08,-1.63,46.31,1
532,13.09,0.05,38.76,1
533,13.11,-7.67,39.53,1
534,13.12,-10.27,37.58,1
535,13.13,0.11,26.79,1
536,13.15,10.04,23.21,1
537,13.16,12.56,36.37,1
538,13.17,11.98,49.3,1
539,13.19,7.37,44.03,1
540,13.2,-3.24,31.98,1
541,13.21,-13.59,30.14,1
542,13.23,-14.53,32.09,1
543,13.24,-5.38,30.54,1
544,13.25,2.49,32.55,1
545,13.27,0.4,38.61,1
546,13.28,-6.12,38.81,1
547,13.29,-5.59,29.78,1
548,13.31,-3.01,20.36,1
549,13.32,-10.19,20.06,1
550,13.33,-11.41,25.68,1
551,13.35,6.24,29.48,1
552,13.36,18.12,30.93,1
553,13.37,9.88,28.59,1
554,13.39,2.45,23.8,1
555,13.4,-0.39,24.12,1
556,13.41,-12.4,25.27,1
557,13.43,-19.82,17.64,1
558,13.44,-5.89,6.66,1
559,13.45,9.81,3.44,1
560,13.47,3.86,3.69,1
561,13.48,-10.73,0.23,1
562,13.49,-6.73,-1.15,1
563,13.51,6.57,4.95,1
564,13.52,-0.27,15.08,1
565,13.53,-17.34,14.06,1
566,13.55,-17.23,-6.78,1
567,13.56,-8.31,-21.46,1
568,13.57,-4.84,-8.05,1
569,13.59,5.53,11.76,1
570,13.6,19.7,13.7,1
571,13.61,12.91,6.5,1
572,13.63,-5.36,4.63,1
573,13.64,-3.94,0.99,1
574,13.65,6.27,-10.19,1
575,13.67,-3.42,-16.29,1
576,13.68,-14.71,-10.37,1
577,13.69,-3.75,-1.51,1
578,13.71,6.2,0.92,1
579,13.72,-1.33,-1.04,1
580,13.73,-4.94,-4.72,1
581,13.75,4.54,-13.8,1
582,13.76,12.4,-19.25,1
583,13.77,9.48,-8.71,1
584,13.79,1.4,1.0,1
585,13.8,2.61,-9.6,1
586,13.81,13.18,-25.08,1
587,13.83,13.4,-23.47,1
588,13.84,1.62,-10.06,1
589,13.85,-5.23,-1.17,1
590,13.86,-6.12,-4.02,1
591,13.88,-5.47,-15.08,1
592,13.89,0.36,-22.75,1
593,13.9,3.67,-18.71,1
594,13.92,-0.14,-11.1,1
595,13.93,4.36,-12.52,1
596,13.94,14.44,-19.0,1
597,13.96,9.52,-19.21,1
598,13.97,-3.91,-13.07,1
599,13.98,-5.43,-8.38,1
600,14.0,5.23,-10.41,1
601,14.01,11.43,-15.77,1
602,14.02,-3.36,-15.69,1
603,14.04,-32.69,-13.3,1
604,14.05,-43.35,-15.58,1
605,14.07,-19.04,-14.95,1
606,14.08,8.84,-8.98,1
607,14.09,10.19,-9.69,1
608,14.11,-0.7,-18.96,1
609,14.12,-5.2,-26.74,1
610,14.13,1.64,-27.01,1
611,14.15,17.67,-21.58,2
612,14.16,22.74,-15.13,2
613,14.17,14.12,-9.08,2
614,14.19,8.42,-6.21,2
615,14.2,3.38,-3.12,2
616,14.21,1.87,30.55,2
617,14.23,12.96,99.0,2
618,14.24,23.01,156.61,2
619,14.25,25.07,192.66,2
620,14.27,27.6,163.75,2
621,14.28,18.15,34.44,2
622,14.29,-11.66,22.73,2
623,14.31,-22.41,217.46,2
624,14.32,3.02,268.37,2
625,14.33,22.57,85.53,2
626,14.35,21.92,14.71,2
627,14.36,19.78,92.56,2
628,14.37,17.48,61.09,2
629,14.39,6.88,-18.58,2
630,14.4,-9.9,39.78,2
631,14.41,-20.59,100.34,2
632,14.43,-24.55,30.09,2
633,14.44,-21.68,-61.3,2
634,14.45,-5.49,-121.51,2
635,14.47,1.41,-173.91,2
636,14.48,-20.29,-161.77,2
637,14.49,-35.09,-103.82,2
638,14.51,-6.86,-143.89,2
639,14.52,26.0,-268.99,2
640,14.53,7.55,-284.29,2
641,14.55,-30.38,-165.43,1
642,14.56,-21.62,-91.7,1
643,14.57,21.97,-142.21,1
644,14.59,37.81,-223.29,1
645,14.6,7.31,-217.74,1
646,14.61,-29.88,-127.02,1
647,14.63,-33.76,-64.79,1
648,14.64,-2.09,-82.79,1
649,14.65,33.31,-111.61,1
650,14.67,45.06,-90.05,1
651,14.68,33.68,-50.54,1
652,14.69,8.41,-67.05,1
653,14.71,-2.67,-143.85,1
654,14.72,11.57,-183.01,1
655,14.73,-0.84,-118.96,1
656,14.75,-44.52,-34.82,1
657,14.76,-42.47,-27.46,1
658,14.77,12.84,-52.93,1
659,14.79,37.27,-37.3,1
660,14.8,5.17,-15.06,1
661,14.81,-17.01,-26.53,1
662,14.83,0.42,-24.36,1
663,14.84,10.94,5.35,1
664,14.85,-9.82,12.32,1
665,14.87,-25.42,1.63,1
666,14.88,-20.94,14.63,1
667,14.89,-28.97,40.09,1
668,14.91,-39.89,40.01,1
669,14.92,-15.71,13.48,1
670,14.93,17.59,8.9,1
671,14.95,24.78,47.48,1
672,14.96,25.71,51.98,1
673,14.97,23.94,15.25,1
674,14.99,-10.23,49.02,1
675,15.0,-45.77,114.15,1
676,15.01,-20.82,88.64,1
677,15.03,24.86,20.35,1
678,15.04,21.04,-1.1,1
679,15.05,-0.7,19.14,1
680,15.07,4.54,56.88,1
681,15.08,16.2,89.28,1
682,15.09,10.36,72.08,1
683,15.11,-3.64,26.6,1
684,15.12,-2.71,37.44,1
685,15.13,10.39,84.72,1
686,15.15,1.64,83.75,1
687,15.16,-26.79,36.79,1
688,15.17,-37.24,4.58,1
689,15.19,-31.3,45.19,1
690,15.2,-24.93,120.91,1
691,15.21,0.45,82.64,1
692,15.23,37.11,-69.17,1
693,15.24,23.65,-93.46,1
694,15.25,-36.64,64.11,1
695,15.27,-46.35,136.6,1
696,15.28,12.38,64.91,1
697,15.29,40.54,66.99,1
698,15.31,0.51,150.34,1
699,15.32,-32.51,144.11,1
700,15.33,-9.03,60.98,1
701,15.35,13.82,28.17,1
702,15.36,-15.12,44.12,1
703,15.37,-35.12,43.36,1
704,15.39,-2.07,41.82,1
705,15.4,21.54,88.13,1
706,15.41,9.19,122.21,1
707,15.43,9.9,55.5,1
708,15.44,25.19,4.68,1
709,15.45,18.87,77.97,1
710,15.47,4.88,117.13,1
711,15.48,9.36,36.48,1
712,15.49,10.69,-13.02,1
713,15.51,-5.91,32.62,1
714,15.52,-9.4,74.96,1
715,15.53,8.3,54.56,1
716,15.55,15.15,3.37,1
717,15.56,9.99,-19.06,1
718,15.57,5.85,4.13,1
719,15.59,-7.52,17.67,1
720,15.6,-18.25,-3.95,1
721,15.61,-6.21,-8.32,1
722,15.63,12.59,16.78,1
723,15.64,17.01,21.46,1
724,15.65,3.15,-8.46,1
725,15.67,-11.55,-11.53,1
726,15.68,3.73,50.63,1
727,15.69,33.59,94.49,1
728,15.71,28.98,54.49,1
729,15.72,0.3,-5.06,1
730,15.73,1.69,-32.65,1
731,15.75,32.22,-43.31,1
732,15.76,34.57,-48.47,1
733,15.77,-3.65,-45.8,1
734,15.78,-26.32,-40.25,1
735,15.8,-14.93,-28.8,1
736,15.81,-9.36,3.69,1
737,15.82,-15.58,23.05,1
738,15.84,-12.26,2.88,1
739,15.85,-11.03,5.12,1
740,15.86,-19.62,39.11,1
741,15.88,-13.73,31.95,1
742,15.89,8.75,-8.83,1
743,15.9,14.28,-12.24,1
744,15.92,-3.64,18.5,1
745,15.93,-10.75,15.8,1
746,15.94,6.82,-34.29,1
747,15.96,18.77,-58.4,1
748,15.97,8.82,-29.39,1
749,15.98,-3.28,-20.5,1
750,16.0,-14.75,-43.76,1
751,16.01,-30.47,-35.47,1
752,16.03,-32.8,-4.44,1
753,16.04,-22.45,5.24,1
754,16.05,-17.0,-6.57,1
755,16.07,-13.41,-15.32,1
756,16.08,1.19,-4.53,1
757,16.09,20.81,-20.37,1
758,16.11,22.83,-81.88,1
759,16.12,13.21,-94.23,1
760,16.13,17.76,-40.85,1
761,16.15,23.59,-11.6,1
762,16.16,11.07,-15.98,0
763,16.17,-2.46,-14.51,0
764,16.19,-4.16,-4.4,0
765,16.2,-1.78,-4.34,0
766,16.21,0.01,-14.84,0
767,16.23,1.24,-4.75,0
768,16.24,10.02,10.83,0
769,16.25,25.95,-6.15,0
770,16.27,22.48,-24.1,0
771,16.28,-5.58,-9.15,0
772,16.29,-23.21,14.12,0
773,16.31,-15.33,12.49,0
774,16.32,-4.0,-6.96,0
775,16.33,-3.79,-17.49,0
776,16.35,-7.68,-48.13,0
777,16.36,-6.34,-130.97,0
778,16.37,-2.62,-203.25,0
779,16.39,-2.76,-217.59,0
780,16.4,-2.49,-221.37,0
781,16.41,-5.47,-231.45,0
782,16.42,-18.98,-200.19,0
783,16.44,-24.66,-122.76,0
784,16.45,-9.22,-45.08,0
785,16.46,7.58,15.98,0
786,16.48,7.41,66.93,0
787,16.49,-1.11,94.93,0
788,16.5,-0.65,93.45,0
789,16.52,6.7,88.52,0
790,16.53,3.25,98.37,0
791,16.54,-7.37,104.84,0
792,16.56,-5.13,92.65,1
793,16.57,1.46,76.76,1
794,16.58,-2.47,72.98,1
795,16.6,1.13,76.09,1
796,16.61,24.62,70.02,1
797,16.62,45.16,45.34,1
798,16.64,39.99,12.22,1
799,16.65,19.79,-3.24,1
800,16.67,8.11,9.14,1
801,16.68,5.3,24.87,1
802,16.69,1.85,24.55,1
803,16.71,-0.84,20.53,1
804,16.72,-4.01,24.33,1
805,16.73,-7.2,31.88,1
806,16.75,-0.31,39.12,1
807,16.76,9.49,38.66,1
808,16.77,4.85,24.55,1
809,16.79,-5.4,12.79,1
810,16.8,-7.64,18.51,1
811,16.81,-9.27,24.05,1
812,16.83,-13.46,14.1,1
813,16.84,-13.44,5.13,1
814,16.85,-9.77,5.08,1
815,16.87,-7.56,0.49,1
816,16.88,-9.82,-3.54,1
817,16.89,-13.09,8.8,1
818,16.91,-12.54,23.06,1
819,16.92,-9.83,17.99,1
820,16.93,-4.94,6.16,1
821,16.95,1.06,6.63,1
822,16.96,1.43,10.87,1
823,16.97,-3.33,1.39,1
824,16.99,-6.82,-13.06,1
825,17.0,-3.47,-8.6,1
826,17.01,6.98,7.24,1
827,17.03,14.27,6.92,1
828,17.04,8.45,-6.55,1
829,17.05,-2.21,-13.64,1
830,17.06,-2.08,-15.0,1
831,17.08,3.25,-16.13,1
832,17.09,-0.69,-15.52,1
833,17.1,-6.76,-15.99,1
834,17.12,-4.03,-17.29,1
835,17.13,0.43,-15.87,1
836,17.14,-2.34,-11.08,1
837,17.16,-8.62,-5.67,1
838,17.17,-4.31,-8.93,1
839,17.18,13.75,-18.64,1
840,17.2,21.57,-19.46,1
841,17.21,5.27,-10.89,1
842,17.22,-8.47,-5.95,1
843,17.24,-2.78,-9.64,1
844,17.25,0.34,-13.52,1
845,17.26,-6.08,-12.66,1
846,17.28,-3.82,-11.06,1
847,17.29,3.47,-11.76,1
848,17.3,1.06,-16.2,1
849,17.32,-4.97,-14.74,1
850,17.33,-4.33,-2.35,1
851,17.35,1.64,-1.65,1
852,17.36,7.9,-19.39,1
853,17.37,12.72,-27.4,1
854,17.39,13.19,-17.44,1
855,17.4,6.25,-8.92,1
856,17.41,-2.74,-7.18,1
857,17.43,-9.73,-7.2,1
858,17.44,-14.52,-12.83,1
859,17.45,-13.14,-21.67,1
860,17.47,-7.0,-16.64,1
861,17.48,-4.56,5.64,1
862,17.49,-7.03,16.87,1
863,17.51,-7.98,1.06,1
864,17.52,-4.33,-16.12,1
865,17.53,-2.52,-13.9,1
866,17.55,-9.74,-2.24,1
867,17.56,-15.28,4.13,1
868,17.57,-4.69,2.17,1
869,17.59,8.24,-2.85,1
870,17.6,6.61,-3.85,1
871,17.61,4.07,2.51,1
872,17.63,11.05,4.18,1
873,17.64,10.79,-14.88,1
874,17.65,-0.48,-37.4,1
875,17.67,-5.91,-31.45,1
876,17.68,-5.34,-1.15,1
877,17.69,-6.47,22.14,1
878,17.7,-1.93,21.95,1
879,17.72,8.29,10.89,1
880,17.73,10.3,3.9,1
881,17.75,4.99,-3.92,1
882,17.76,3.58,-10.69,1
883,17.77,1.83,-5.3,1
884,17.78,-4.31,3.29,1
885,17.8,-3.12,5.56,1
886,17.81,4.66,7.01,1
887,17.82,5.47,5.98,1
888,17.84,-0.31,-0.8,1
889,17.85,-6.04,-4.58,1
890,17.86,-6.9,-1.55,1
891,17.88,0.25,1.01,1
892,17.89,6.56,-0.15,1
893,17.9,2.91,-0.97,1
894,17.92,-1.7,1.68,1
895,17.93,3.53,6.46,1
896,17.94,7.18,12.7,1
897,17.96,-4.04,17.32,1
898,17.97,-12.28,9.25,1
899,17.99,2.59,-4.21,1
900,18.0,20.44,1.83,1
901,18.01,16.83,20.85,1
902,18.03,-2.44,20.7,1
903,18.04,-27.97,3.39,1
904,18.05,-44.69,-2.0,1
905,18.07,-25.89,9.0,1
906,18.08,12.26,18.29,1
907,18.09,25.03,10.29,1
908,18.11,18.46,-12.98,1
909,18.12,15.18,-26.06,1
910,18.13,7.72,-11.69,1
911,18.15,1.86,10.37,1
912,18.16,7.77,17.56,0
913,18.17,13.1,15.67,0
914,18.19,14.57,19.09,0
915,18.2,17.65,16.14,0
916,18.21,15.29,-39.34,0
917,18.23,1.72,-146.35,0
918,18.24,-8.05,-209.36,0
919,18.25,0.49,-181.89,0
920,18.27,14.67,-138.67,0
921,18.28,22.3,-134.87,0
922,18.29,25.22,-136.39,0
923,18.31,24.94,-108.79,0
924,18.32,25.66,-78.12,0
925,18.33,25.47,-75.8,0
926,18.34,21.8,-78.86,0
927,18.36,20.49,-55.3,0
928,18.37,18.62,-14.97,0
929,18.38,15.58,25.13,0
930,18.4,19.11,64.82,0
931,18.41,22.04,99.8,0
932,18.42,16.27,120.65,0
933,18.44,7.74,133.05,0
934,18.45,-0.44,149.18,0
935,18.46,-7.56,164.14,0
936,18.48,-9.95,168.85,0
937,18.49,-10.84,168.19,0
938,18.5,-17.16,169.49,0
939,18.52,-26.16,175.13,0
940,18.53,-32.18,180.99,0
941,18.54,-39.45,174.28,0
942,18.56,-48.25,155.0,1
943,18.57,-45.92,141.09,1
944,18.58,-32.95,133.75,1
945,18.6,-28.69,117.67,1
946,18.61,-36.96,94.55,1
947,18.63,-38.65,75.53,1
948,18.64,-32.51,64.25,1
949,18.65,-33.12,62.42,1
950,18.67,-30.53,63.47,1
951,18.68,-13.53,52.26,1
952,18.69,-0.72,27.73,1
953,18.71,-3.55,4.88,1
954,18.72,-3.34,-8.85,1
955,18.73,8.55,-19.29,1
956,18.75,9.43,-25.09,1
957,18.76,-8.47,-16.5,1
958,18.77,-20.91,1.35,1
959,18.79,-18.68,9.51,1
960,18.8,-13.74,0.57,1
961,18.81,-8.98,-14.11,1
962,18.83,-2.58,-23.29,1
963,18.84,2.23,-24.67,1
964,18.85,1.01,-21.59,1
965,18.87,-8.42,-22.44,1
966,18.88,-13.65,-31.78,1
967,18.89,-2.28,-41.82,1
968,18.91,10.99,-41.94,1
969,18.92,10.03,-36.78,1
970,18.93,6.1,-40.86,1
971,18.95,5.13,-53.64,1
972,18.96,-2.38,-60.41,1
973,18.97,-7.34,-55.72,1
974,18.98,2.3,-48.23,1
975,19.0,13.17,-43.69,1
976,19.01,11.46,-42.19,1
977,19.02,7.35,-44.64,1
978,19.04,11.1,-49.23,1
979,19.05,11.0,-52.05,1
980,19.06,1.42,-54.09,1
981,19.08,-1.38,-59.07,1
982,19.09,6.2,-61.09,1
983,19.1,8.0,-52.26,1
984,19.12,2.89,-44.67,1
985,19.13,5.12,-49.95,1
986,19.14,10.86,-54.06,1
987,19.16,5.47,-47.21,1
988,19.17,-3.6,-42.35,1
989,19.18,-1.33,-43.63,1
990,19.2,4.87,-39.28,1
991,19.21,5.69,-32.18,1
992,19.22,8.91,-35.95,1
993,19.24,14.57,-46.97,1
994,19.25,11.79,-51.25,1
995,19.265,6.7,-43.79,1
996,19.28,13.06,-33.58,1
997,19.29,21.93,-32.67,1
998,19.31,15.8,-35.04,1
999,19.32,2.17,-32.01,1
1000,19.33,-0.7,-30.38,1
1001,19.35,7.21,-34.5,1
1002,19.36,15.55,-38.46,1
1003,19.37,20.45,-35.7,1
1004,19.39,22.07,-28.99,1
1005,19.4,18.01,-25.69,1
1006,19.41,6.63,-23.85,1
1007,19.43,-4.41,-23.58,1
1008,19.44,-6.19,-25.27,1
1009,19.45,-0.91,-20.77,1
1010,19.47,5.62,-14.54,1
1011,19.48,8.84,-14.49,1
1012,19.49,6.51,-11.64,1
1013,19.51,1.74,-3.98,1
1014,19.52,-3.32,-0.49,1
1015,19.53,-5.57,0.3,1
1016,19.55,-1.7,0.65,1
1017,19.56,2.79,-1.21,1
1018,19.57,5.31,-0.2,1
1019,19.59,10.48,1.31,1
1020,19.6,16.11,-3.01,1
1021,19.61,15.15,-3.33,1
1022,19.62,8.02,5.86,1
1023,19.64,0.02,11.55,1
1024,19.65,-2.54,10.32,1
1025,19.67,-0.21,15.28,1
1026,19.68,1.15,24.22,1
1027,19.69,3.09,20.65,1
1028,19.7,4.77,10.52,1
1029,19.72,0.27,11.58,1
1030,19.73,-3.25,16.66,1
1031,19.75,2.79,15.65,1
1032,19.76,11.07,17.09,1
1033,19.77,8.95,19.57,1
1034,19.78,-2.34,13.88,1
1035,19.8,-6.59,11.3,1
1036,19.81,-0.13,20.83,1
1037,19.82,4.41,26.67,1
1038,19.84,2.98,21.24,1
1039,19.85,-1.71,16.73,1
1040,19.86,-5.07,14.06,1
1041,19.88,-2.6,8.44,1
1042,19.89,-2.08,7.66,1
1043,19.9,-6.51,12.84,1
1044,19.92,-4.5,14.72,1
1045,19.93,3.95,13.08,1
1046,19.95,4.19,12.43,1
1047,19.96,-8.33,13.11,1
1048,19.97,-16.83,15.49,1
1049,19.99,-6.72,17.59,1
1050,20.0,7.28,16.2,1
1051,20.01,4.39,15.79,1
1052,20.03,-13.25,18.94,1
1053,20.04,-40.15,19.69,1
1054,20.05,-61.15,17.75,1
1055,20.07,-47.34,20.03,1
1056,20.08,-11.15,23.26,1
1057,20.09,9.52,20.09,1
1058,20.11,13.84,18.33,1
1059,20.12,18.32,25.29,1
1060,20.13,19.73,32.66,1
1061,20.15,7.74,32.51,1
1062,20.16,-9.7,28.2,2
1063,20.17,-18.44,24.37,2
1064,20.19,-17.56,18.56,2
1065,20.2,-4.96,15.56,2
1066,20.21,17.58,28.45,2
1067,20.23,35.55,67.8,2
1068,20.24,45.4,139.83,2
1069,20.25,46.75,225.84,2
1070,20.26,27.98,287.11,2
1071,20.28,-6.49,307.99,2
1072,20.29,-35.63,294.29,2
1073,20.3,-49.11,246.93,2
1074,20.32,-53.42,173.94,2
1075,20.33,-58.55,97.88,2
1076,20.34,-64.85,32.61,2
1077,20.36,-64.09,-22.16,2
1078,20.37,-46.22,-70.55,2
1079,20.38,-16.06,-115.24,2
1080,20.4,2.76,-152.79,2
1081,20.41,2.44,-183.43,2
1082,20.42,1.82,-213.18,2
1083,20.44,13.74,-233.43,2
1084,20.45,27.83,-230.15,2
1085,20.46,29.64,-210.29,2
1086,20.48,22.21,-192.98,2
1087,20.49,16.69,-178.99,2
1088,20.5,15.61,-159.43,2
1089,20.52,20.51,-143.44,2
1090,20.53,28.79,-134.48,2
1091,20.54,26.91,-116.71,2
1092,20.56,16.49,-93.46,1
1093,20.57,18.39,-84.14,1
1094,20.59,30.45,-82.65,1
1095,20.6,29.13,-70.59,1
1096,20.61,16.46,-54.13,1
1097,20.63,13.89,-50.0,1
1098,20.64,19.47,-57.39,1
1099,20.65,14.55,-60.23,1
1100,20.67,3.49,-49.48,1
1101,20.68,2.97,-34.06,1
1102,20.69,6.29,-19.46,1
1103,20.71,1.75,-8.61,1
1104,20.72,-3.75,-16.02,1
1105,20.73,-3.32,-32.56,1
1106,20.75,-0.42,-26.99,1
1107,20.76,-1.46,0.16,1
1108,20.77,-6.49,20.55,1
1109,20.79,-6.85,18.87,1
1110,20.8,-3.59,7.4,1
1111,20.81,-3.6,9.36,1
1112,20.83,0.82,24.9,1
1113,20.84,10.96,32.45,1
1114,20.85,11.6,29.93,1
1115,20.87,0.78,32.97,1
1116,20.88,-9.62,41.54,1
1117,20.89,-11.39,46.28,1
1118,20.9,-1.22,47.82,1
1119,20.92,11.7,49.33,1
1120,20.93,13.35,44.2,1
1121,20.94,8.28,31.97,1
1122,20.96,6.04,29.59,1
1123,20.97,2.4,40.97,1
1124,20.98,-5.58,48.94,1
1125,21.0,-12.16,48.99,1
1126,21.01,-14.59,48.16,1
1127,21.02,-15.04,47.22,1
1128,21.04,-11.5,47.22,1
1129,21.05,-4.26,47.36,1
1130,21.06,-2.09,44.5,1
1131,21.08,-4.3,37.44,1
1132,21.09,-1.47,30.37,1
1133,21.1,1.46,34.09,1
1134,21.12,-4.84,43.79,1
1135,21.13,-11.84,40.21,1
1136,21.14,-8.0,29.05,1
1137,21.16,-1.41,32.61,1
1138,21.17,-8.34,48.45,1
1139,21.18,-23.15,54.84,1
1140,21.2,-24.08,49.47,1
1141,21.21,-10.0,43.43,1
1142,21.23,-0.59,38.88,1
1143,21.24,-4.96,34.82,1
1144,21.25,-11.54,30.59,1
1145,21.27,-7.01,25.19,1
1146,21.28,0.69,26.43,1
1147,21.29,-0.65,37.47,1
1148,21.31,-2.73,40.47,1
1149,21.32,0.14,25.13,1
1150,21.33,-0.31,10.56,1
1151,21.35,-2.8,11.79,1
1152,21.36,-3.24,17.68,1
1153,21.37,-3.29,16.99,1
1154,21.39,0.52,14.5,1
1155,21.4,6.83,16.16,1
1156,21.41,7.34,18.24,1
1157,21.43,2.07,18.98,1
1158,21.44,-5.04,20.62,1
1159,21.45,-9.36,19.59,1
1160,21.47,-6.9,13.49,1
1161,21.48,-0.45,6.97,1
1162,21.49,6.43,4.32,1
1163,21.51,12.34,5.24,1
1164,21.52,6.27,5.78,1
1165,21.53,-13.88,6.63,1
1166,21.54,-22.42,7.39,1
1167,21.56,-9.22,-0.95,1
1168,21.57,1.21,-12.25,1
1169,21.58,0.89,-6.84,1
1170,21.6,3.29,4.04,1
1171,21.61,1.99,-4.05,1
1172,21.62,-8.37,-17.79,1
1173,21.64,-8.27,-14.29,1
1174,21.65,6.66,-4.37,1
1175,21.67,15.8,-6.63,1
1176,21.68,8.6,-15.75,1
1177,21.69,-5.14,-16.21,1
1178,21.7,-9.27,-10.07,1
1179,21.72,-4.59,-12.16,1
1180,21.73,-5.05,-22.19,1
1181,21.75,-5.93,-22.6,1
1182,21.76,3.14,-8.62,1
1183,21.77,7.55,1.52,1
1184,21.78,-2.22,-5.25,1
1185,21.8,-2.63,-17.34,1
1186,21.81,14.21,-16.93,1
1187,21.82,15.47,-8.01,1
1188,21.84,-4.47,-9.9,1
1189,21.85,-7.22,-22.07,1
1190,21.87,8.07,-27.42,1
1191,21.88,2.9,-25.68,1
1192,21.89,-15.99,-24.76,1
1193,21.91,-14.02,-19.73,1
1194,21.92,-0.8,-12.54,1
1195,21.93,-1.84,-13.65,1
1196,21.95,-5.71,-20.26,1
1197,21.96,7.23,-22.0,1
1198,21.97,21.05,-16.68,1
1199,21.99,12.28,-15.35,1
1200,22.0,-4.12,-26.59,1
1201,22.01,1.3,-34.71,1
1202,22.03,13.74,-19.97,1
1203,22.04,-8.44,2.42,1
1204,22.05,-40.86,1.93,1
1205,22.07,-25.34,-14.61,1
1206,22.08,12.8,-17.06,1
1207,22.09,18.88,-8.27,1
1208,22.11,14.12,-15.56,1
1209,22.12,28.35,-31.21,1
1210,22.13,35.41,-28.62,1
1211,22.15,19.35,-12.99,1
1212,22.16,0.84,4.12,2
1213,22.17,-6.48,34.63,2
1214,22.18,3.9,82.94,2
1215,22.2,35.09,107.8,2
1216,22.21,62.6,83.08,2
1217,22.22,60.41,58.11,2
1218,22.24,37.4,70.76,2
1219,22.25,4.06,116.47,2
1220,22.26,-28.45,182.79,2
1221,22.28,-20.8,192.61,2
1222,22.29,19.29,84.94,2
1223,22.3,25.71,-25.26,2
1224,22.32,-0.15,-11.32,2
1225,22.33,-9.27,20.61,2
1226,22.34,-9.82,-50.5,2
1227,22.36,-25.77,-84.77,2
1228,22.37,-43.41,0.05,2
1229,22.38,-39.43,22.09,2
1230,22.4,-19.22,-76.83,2
1231,22.41,-12.16,-155.99,2
1232,22.42,-13.86,-168.49,2
1233,22.44,2.05,-155.81,2
1234,22.45,14.03,-134.77,2
1235,22.46,-4.82,-113.84,2
1236,22.48,-26.36,-83.4,2
1237,22.49,-21.35,-47.01,2
1238,22.5,-2.71,-66.59,2
1239,22.52,7.74,-94.82,2
1240,22.53,4.04,-25.62,2
1241,22.55,-9.99,24.72,1
1242,22.56,-18.95,-55.8,1
1243,22.57,-3.5,-139.82,1
1244,22.59,16.51,-156.37,1
1245,22.6,4.44,-169.01,1
1246,22.61,-14.84,-144.9,1
1247,22.63,-6.08,-38.94,1
1248,22.64,-0.09,28.94,1
1249,22.65,-17.9,-24.66,1
1250,22.67,-21.2,-59.98,1
1251,22.68,4.14,8.64,1
1252,22.69,13.13,42.24,1
1253,22.71,-8.65,-2.37,1
1254,22.72,-12.68,0.46,1
1255,22.73,16.53,24.55,1
1256,22.75,33.57,-21.58,1
1257,22.76,14.43,-53.14,1
1258,22.77,-4.65,-14.32,1
1259,22.79,6.71,16.49,1
1260,22.8,16.21,-9.71,1
1261,22.81,0.14,-67.3,1
1262,22.82,-10.07,-75.39,1
1263,22.84,-1.19,-5.1,1
1264,22.85,0.42,54.08,1
1265,22.86,-10.9,51.6,1
1266,22.88,-10.23,30.01,1
1267,22.89,3.6,-6.12,1
1268,22.9,13.06,-76.98,1
1269,22.92,19.14,-98.04,1
1270,22.93,15.91,5.88,1
1271,22.94,-7.15,109.17,1
1272,22.96,-34.56,92.29,1
1273,22.97,-41.19,48.04,1
1274,22.98,-22.83,46.25,1
1275,23.0,-4.87,16.0,1
1276,23.01,-3.76,-27.13,1
1277,23.02,1.7,15.14,1
1278,23.04,17.67,96.84,1
1279,23.05,11.5,105.58,1
1280,23.06,-18.32,68.43,1
1281,23.08,-25.56,39.24,1
1282,23.09,0.71,1.06,1
1283,23.1,20.43,-10.38,1
1284,23.12,15.85,23.95,1
1285,23.13,8.54,24.84,1
1286,23.14,11.31,-16.72,1
1287,23.16,7.85,-12.06,1
1288,23.17,-3.92,53.75,1
1289,23.19,5.08,81.3,1
1290,23.2,24.93,19.52,1
1291,23.21,15.87,-20.22,1
1292,23.23,-3.25,38.61,1
1293,23.24,5.34,86.16,1
1294,23.25,21.17,49.04,1
1295,23.27,17.34,5.01,1
1296,23.28,19.17,17.66,1
1297,23.29,37.46,51.8,1
1298,23.31,23.57,55.39,1
1299,23.32,-27.12,50.03,1
1300,23.33,-44.02,82.28,1
1301,23.35,-7.99,129.61,1
1302,23.36,20.05,111.55,1
1303,23.37,8.22,17.53,1
1304,23.39,-9.76,-26.76,1
1305,23.4,-11.51,41.67,1
1306,23.41,-11.66,95.45,1
1307,23.43,-11.12,35.77,1
1308,23.44,-3.53,-34.21,1
1309,23.45,-0.28,2.86,1
1310,23.46,0.21,55.07,1
1311,23.48,8.44,20.67,1
1312,23.49,12.55,-6.04,1
1313,23.5,4.52,41.25,1
1314,23.52,-2.52,64.43,1
1315,23.53,-1.54,-2.74,1
1316,23.54,3.83,-61.72,1
1317,23.56,5.43,-14.6,1
1318,23.57,-1.37,51.69,1
1319,23.58,-2.52,43.65,1
1320,23.6,9.74,21.33,1
1321,23.61,10.74,13.07,1
1322,23.62,-8.75,-25.96,1
1323,23.64,-9.57,-64.87,1
1324,23.65,18.22,-68.35,1
1325,23.67,23.09,-55.86,1
1326,23.68,-9.79,-11.02,1
1327,23.69,-33.7,46.21,1
1328,23.7,-23.67,32.19,1
1329,23.72,-2.34,-21.48,1
1330,23.73,3.65,-7.96,1
1331,23.75,0.13,34.52,1
1332,23.76,3.57,9.36,1
1333,23.77,7.18,-25.6,1
1334,23.78,7.79,4.83,1
1335,23.8,5.87,19.98,1
1336,23.81,-9.57,-21.37,1
1337,23.83,-23.67,-24.42,1
1338,23.84,-9.8,17.77,1
1339,23.85,16.86,11.88,1
1340,23.87,19.22,-36.11,1
1341,23.88,-7.08,-46.65,1
1342,23.89,-27.28,-11.66,1
1343,23.91,-18.06,7.12,1
1344,23.92,-4.16,-26.03,1
1345,23.93,-10.62,-69.37,1
1346,23.95,-11.98,-61.91,1
1347,23.96,10.78,-2.52,1
1348,23.97,21.64,40.75,1
1349,23.99,1.56,17.68,1
1350,24.0,-14.93,-22.43,1
1351,24.01,-13.61,-28.02,1
1352,24.03,-18.9,-17.49,1
1353,24.04,-35.37,-9.56,1
1354,24.05,-35.21,0.46,1
1355,24.07,-10.84,31.17,1
1356,24.08,3.52,68.6,1
1357,24.09,-1.88,46.29,1
1358,24.1,6.52,-29.35,1
1359,24.12,25.93,-52.93,1
1360,24.13,20.95,-6.95,1
1361,24.14,-0.79,20.64,1
1362,24.16,-6.71,28.94,0
1363,24.17,-2.46,50.43,0
1364,24.18,-6.66,42.58,0
1365,24.2,-2.15,13.65,0
1366,24.21,20.88,1.93,0
1367,24.22,38.42,-20.13,0
1368,24.24,46.61,-49.44,0
1369,24.25,48.99,-39.74,0
1370,24.26,28.03,-8.52,0
1371,24.28,-1.4,-5.23,0
1372,24.29,-10.87,-15.95,0
1373,24.3,-11.62,-18.59,0
1374,24.32,-11.76,-33.55,0
1375,24.33,-5.1,-56.88,0
1376,24.34,-10.07,-87.35,0
1377,24.36,-26.8,-150.49,0
1378,24.37,-23.33,-216.74,0
1379,24.38,-8.01,-242.02,0
1380,24.4,-3.83,-238.79,0
1381,24.41,6.6,-211.24,0
1382,24.42,23.54,-144.98,0
1383,24.44,17.42,-65.25,0
1384,24.45,-3.48,-1.32,0
1385,24.46,-6.45,50.96,0
1386,24.48,2.65,90.68,0
1387,24.49,-3.34,108.96,0
1388,24.51,-18.46,113.99,0
1389,24.52,-17.8,118.17,0
1390,24.53,-3.07,122.23,0
1391,24.55,3.22,120.32,1
1392,24.56,-1.32,111.92,1
1393,24.57,-4.22,103.12,1
1394,24.59,-3.61,92.95,1
1395,24.6,7.48,73.98,1
1396,24.61,36.1,55.74,1
1397,24.63,53.08,57.84,1
1398,24.64,26.77,66.46,1
1399,24.65,-13.22,53.98,1
1400,24.67,-19.46,35.22,1
1401,24.68,-4.92,34.51,1
1402,24.69,-5.12,41.61,1
1403,24.71,-13.5,41.6,1
1404,24.72,-12.15,34.1,1
1405,24.73,-9.08,29.32,1
1406,24.75,-11.15,38.95,1
1407,24.76,-12.7,45.57,1
1408,24.77,-14.52,26.53,1
1409,24.78,-17.45,2.5,1
1410,24.8,-18.88,0.77,1
1411,24.81,-19.83,8.12,1
1412,24.82,-14.5,4.37,1
1413,24.84,-2.06,-0.04,1
1414,24.85,-0.24,7.08,1
1415,24.86,-7.26,15.89,1
1416,24.88,-1.52,15.96,1
1417,24.89,11.85,3.6,1
1418,24.9,12.77,-18.39,1
1419,24.92,7.39,-31.07,1
1420,24.93,9.18,-20.44,1
1421,24.94,7.16,-2.04,1
1422,24.96,-5.22,3.08,1
1423,24.97,-14.02,-3.94,1
1424,24.98,-8.9,-10.93,1
1425,25.0,3.6,-9.74,1
1426,25.01,10.28,-4.84,1
1427,25.02,9.49,-7.7,1
1428,25.04,10.33,-16.41,1
1429,25.05,13.97,-22.35,1
1430,25.06,12.72,-21.69,1
1431,25.08,6.43,-17.61,1
1432,25.09,3.38,-20.22,1
1433,25.1,3.73,-24.78,1
1434,25.12,1.12,-20.36,1
1435,25.13,-1.15,-15.13,1
1436,25.15,-0.07,-17.01,1
1437,25.16,-0.06,-20.74,1
1438,25.17,-0.36,-20.11,1
1439,25.19,-3.46,-13.81,1
1440,25.2,-13.0,-12.47,1
1441,25.21,-14.43,-24.11,1
1442,25.23,-0.24,-32.91,1
1443,25.24,9.55,-23.4,1
1444,25.25,4.78,-8.5,1
1445,25.27,1.89,-9.61,1
1446,25.28,7.68,-22.65,1
1447,25.29,4.19,-28.43,1
1448,25.31,-10.45,-22.98,1
1449,25.32,-12.63,-12.96,1
1450,25.33,-2.24,-7.85,1
1451,25.35,3.13,-12.36,1
1452,25.36,5.41,-15.97,1
1453,25.37,7.35,-17.57,1
1454,25.38,2.94,-21.21,1
1455,25.4,-5.44,-13.48,1
1456,25.41,-10.58,1.93,1
1457,25.42,-3.91,2.41,1
1458,25.44,10.21,-12.37,1
1459,25.45,9.75,-23.79,1
1460,25.46,-3.99,-19.73,1
1461,25.48,-5.67,-9.58,1
1462,25.49,2.73,-8.0,1
1463,25.5,1.66,-8.98,1
1464,25.52,0.3,-9.14,1
1465,25.53,10.76,-16.9,1
1466,25.54,14.83,-21.31,1
1467,25.56,2.05,-9.79,1
1468,25.57,-9.58,0.25,1
1469,25.58,-7.72,-9.05,1
1470,25.6,0.81,-22.12,1
1471,25.61,5.65,-14.18,1
1472,25.62,6.83,2.74,1
1473,25.64,11.05,-1.62,1
1474,25.65,12.47,-17.94,1
1475,25.67,-0.43,-20.46,1
1476,25.68,-16.65,-11.83,1
1477,25.69,-13.15,-0.6,1
1478,25.7,7.98,12.68,1
1479,25.72,17.73,21.5,1
1480,25.73,7.18,20.0,1
1481,25.75,-1.53,10.61,1
1482,25.76,0.03,1.78,1
1483,25.77,-2.05,-0.31,1
1484,25.79,-3.69,2.11,1
1485,25.8,5.7,8.43,1
1486,25.81,9.01,13.16,1
1487,25.83,-4.39,4.44,1
1488,25.84,-10.59,-9.64,1
1489,25.85,0.41,-9.59,1
1490,25.87,4.49,3.87,1
1491,25.88,-2.98,13.73,1
1492,25.89,0.92,10.61,1
1493,25.91,12.44,4.32,1
1494,25.92,11.65,5.74,1
1495,25.93,3.58,6.52,1
1496,25.95,0.45,0.13,1
1497,25.96,-1.6,-2.15,1
1498,25.97,-9.57,7.38,1
1499,25.99,-13.01,16.8,1
1500,26.0,-1.41,11.55,1
1501,26.01,4.62,-4.15,1
1502,26.02,-8.83,-12.27,1
1503,26.04,-15.53,-1.95,1
1504,26.05,-11.04,15.72,1
1505,26.06,-18.25,20.37,1
1506,26.08,-20.81,8.0,1
1507,26.09,0.37,-4.63,1
1508,26.1,19.44,0.28,1
1509,26.12,15.04,15.03,1
1510,26.13,-6.38,14.13,1
1511,26.14,-18.19,-3.41,1
1512,26.16,2.15,-19.5,0
1513,26.17,29.32,-43.84,0
1514,26.18,32.05,-93.1,0
1515,26.2,31.83,-142.29,0
1516,26.21,47.4,-152.68,0
1517,26.22,57.81,-130.48,0
1518,26.24,58.69,-117.67,0
1519,26.25,66.12,-124.98,0
1520,26.26,63.39,-125.13,0
1521,26.28,30.86,-113.94,0
1522,26.29,-3.11,-101.77,0
1523,26.3,-12.21,-77.67,0
1524,26.32,-12.49,-45.56,0
1525,26.33,-22.79,-26.2,0
1526,26.34,-34.84,-7.53,0
1527,26.36,-30.76,29.66,0
1528,26.37,-19.33,66.49,0
1529,26.38,-28.83,84.72,0
1530,26.4,-51.52,101.11,0
1531,26.41,-49.49,130.8,0
1532,26.43,-24.84,161.08,0
1533,26.44,-19.46,176.48,0
1534,26.45,-36.78,177.75,0
1535,26.47,-45.07,173.42,0
1536,26.48,-40.02,172.07,0
1537,26.49,-32.09,172.44,0
1538,26.51,-17.97,168.04,0
1539,26.52,-3.44,162.28,0
1540,26.53,-6.42,159.14,0
1541,26.55,-20.57,151.29,1
1542,26.56,-16.94,133.17,1
1543,26.57,1.55,111.15,1
1544,26.59,1.19,94.77,1
1545,26.6,-10.17,85.98,1
1546,26.61,-3.1,78.28,1
1547,26.63,4.7,63.59,1
1548,26.64,-9.53,45.98,1
1549,26.65,-23.08,37.24,1
1550,26.67,-12.87,33.49,1
1551,26.68,3.8,23.49,1
1552,26.69,-0.27,11.45,1
1553,26.7,-11.8,4.55,1
1554,26.72,-5.71,2.32,1
1555,26.73,-0.11,3.7,1
1556,26.75,-8.62,3.41,1
1557,26.76,-7.01,-4.94,1
1558,26.77,6.84,-18.31,1
1559,26.78,9.45,-28.7,1
1560,26.8,3.93,-30.96,1
1561,26.81,2.63,-27.19,1
1562,26.82,1.9,-24.02,1
1563,26.84,-1.31,-24.28,1
1564,26.85,0.8,-29.65,1
1565,26.86,12.31,-39.44,1
1566,26.88,16.82,-46.09,1
1567,26.89,1.1,-48.01,1
1568,26.9,-7.95,-51.27,1
1569,26.92,14.63,-54.07,1
1570,26.93,36.28,-52.26,1
1571,26.94,18.92,-50.72,1
1572,26.96,-11.66,-51.14,1
1573,26.97,-10.44,-51.26,1
1574,26.98,11.04,-54.19,1
1575,27.0,12.44,-58.59,1
1576,27.01,0.15,-57.92,1
1577,27.02,5.08,-50.93,1
1578,27.04,17.82,-43.0,1
1579,27.05,14.2,-41.22,1
1580,27.07,3.76,-47.64,1
1581,27.08,5.41,-56.96,1
1582,27.09,12.35,-59.55,1
1583,27.11,12.18,-51.61,1
1584,27.12,11.08,-44.21,1
1585,27.13,13.44,-43.76,1
1586,27.15,11.39,-40.4,1
1587,27.16,7.66,-35.69,1
1588,27.17,12.44,-41.19,1
1589,27.19,18.49,-48.93,1
1590,27.2,8.92,-44.96,1
1591,27.21,-10.44,-37.19,1
1592,27.23,-10.75,-39.64,1
1593,27.24,9.38,-46.75,1
1594,27.25,14.27,-41.23,1
1595,27.27,1.97,-25.04,1
1596,27.28,5.78,-20.7,1
1597,27.29,14.0,-32.8,1
1598,27.3,-0.56,-40.44,1
1599,27.32,-12.35,-35.8,1
1600,27.33,1.02,-31.9,1
1601,27.34,15.22,-32.66,1
1602,27.36,11.87,-29.49,1
1603,27.37,5.07,-27.07,1
1604,27.38,5.13,-33.46,1
1605,27.4,2.39,-38.55,1
1606,27.41,-6.61,-32.67,1
1607,27.42,-8.41,-21.47,1
1608,27.44,3.48,-12.78,1
1609,27.45,15.09,-11.11,1
1610,27.46,12.88,-15.28,1
1611,27.48,7.22,-16.93,1
1612,27.49,8.1,-13.61,1
1613,27.5,2.74,-9.33,1
1614,27.52,-12.74,-2.05,1
1615,27.53,-18.31,10.59,1
1616,27.54,-11.18,16.47,1
1617,27.56,-11.0,2.76,1
1618,27.57,-13.65,-12.52,1
1619,27.58,-1.72,-3.3,1
1620,27.6,11.15,15.35,1
1621,27.61,3.67,16.36,1
1622,27.62,-10.9,7.86,1
1623,27.64,-6.34,8.68,1
1624,27.65,9.4,15.09,1
1625,27.67,10.17,13.67,1
1626,27.68,1.27,5.37,1
1627,27.69,-0.2,2.13,1
1628,27.7,-1.56,8.3,1
1629,27.72,-11.94,18.05,1
1630,27.73,-18.48,24.33,1
1631,27.75,-8.85,26.52,1
1632,27.76,2.38,27.14,1
1633,27.77,1.54,21.67,1
1634,27.79,4.47,13.74,1
1635,27.8,14.74,15.01,1
1636,27.81,10.08,18.14,1
1637,27.83,-4.3,15.41,1
1638,27.84,-4.42,18.86,1
1639,27.85,0.66,27.83,1
1640,27.87,-8.52,26.13,1
1641,27.88,-17.42,15.62,1
1642,27.89,-8.53,6.03,1
1643,27.91,-0.89,-4.77,1
1644,27.92,-10.86,-15.64,1
1645,27.93,-16.41,-12.34,1
1646,27.94,-1.82,10.58,1
1647,27.96,8.32,36.86,1
1648,27.97,-2.18,45.12,1
1649,27.98,-5.16,30.73,1
1650,28.0,13.99,16.04,1
1651,28.01,21.27,19.84,1
1652,28.02,2.92,25.92,1
1653,28.04,-13.27,22.46,1
1654,28.05,-24.48,23.51,1
1655,28.06,-39.96,26.23,1
1656,28.08,-34.93,16.63,1
1657,28.09,-2.02,7.93,1
1658,28.1,20.04,15.6,1
1659,28.12,13.58,25.76,1
1660,28.13,3.51,28.41,1
1661,28.14,-0.98,31.3,1
1662,28.16,-10.17,32.64,2
1663,28.17,-10.15,26.95,2
1664,28.18,9.07,21.38,2
1665,28.2,23.62,28.39,2
1666,28.21,14.06,62.47,2
1667,28.22,-9.48,138.06,2
1668,28.24,-21.85,244.49,2
1669,28.25,-11.45,327.86,2
1670,28.26,0.24,331.16,2
1671,28.28,-9.37,264.56,2
1672,28.29,-29.1,190.79,2
1673,28.3,-35.21,136.21,2
1674,28.32,-24.1,84.18,2
1675,28.33,-10.76,30.73,2
1676,28.34,-1.43,-21.27,2
1677,28.36,4.77,-77.57,2
1678,28.37,3.68,-134.91,2
1679,28.39,2.77,-181.7,2
1680,28.4,10.66,-206.42,2
1681,28.41,16.33,-204.83,2
1682,28.43,15.6,-193.75,2
1683,28.44,18.06,-189.36,2
1684,28.45,19.61,-182.34,2
1685,28.47,15.13,-165.68,2
1686,28.48,15.51,-152.21,2
1687,28.49,22.31,-144.73,2
1688,28.51,23.5,-132.39,2
1689,28.52,19.34,-114.28,2
1690,28.53,18.41,-98.54,2
1691,28.55,20.94,-89.75,1
1692,28.56,19.93,-88.24,1
1693,28.57,13.26,-91.34,1
1694,28.58,9.88,-88.87,1
1695,28.6,10.52,-72.6,1
1696,28.61,2.8,-50.05,1
1697,28.62,-7.11,-33.61,1
1698,28.64,-4.42,-29.76,1
1699,28.65,0.91,-37.8,1
1700,28.67,-1.48,-44.74,1
1701,28.68,-2.01,-36.13,1
1702,28.69,2.54,-18.45,1
1703,28.7,3.86,-12.13,1
1704,28.72,2.68,-17.44,1
1705,28.73,2.72,-10.28,1
1706,28.75,0.09,7.62,1
1707,28.76,-1.98,11.86,1
1708,28.77,2.84,7.98,1
1709,28.78,8.49,8.49,1
1710,28.8,7.24,10.59,1
1711,28.81,-1.91,22.17,1
1712,28.82,-12.47,38.14,1
1713,28.84,-14.68,32.99,1
1714,28.85,-6.53,17.32,1
1715,28.86,8.34,21.09,1
1716,28.88,20.5,36.15,1
1717,28.89,15.69,43.88,1
1718,28.9,-4.98,46.69,1
1719,28.92,-20.2,43.16,1
1720,28.93,-15.27,35.27,1
1721,28.94,-2.55,38.73,1
1722,28.96,-2.42,47.92,1
1723,28.97,-10.44,41.89,1
1724,28.98,-8.32,28.17,1
1725,29.0,-1.96,29.57,1
1726,29.01,-7.44,37.72,1
1727,29.03,-14.61,29.84,1
1728,29.04,-6.65,18.42,1
1729,29.05,6.78,29.11,1
1730,29.07,4.64,48.82,1
1731,29.08,-12.22,51.75,1
1732,29.09,-17.85,44.43,1
1733,29.11,-2.28,40.92,1
1734,29.12,7.14,35.07,1
1735,29.13,-4.99,28.03,1
1736,29.15,-14.3,28.65,1
1737,29.16,-5.08,30.14,1
1738,29.17,0.68,32.22,1
1739,29.19,-12.11,39.87,1
1740,29.2,-22.15,40.43,1
1741,29.21,-14.12,28.34,1
1742,29.22,-4.44,18.7,1
1743,29.24,-4.64,21.76,1
1744,29.25,-6.8,27.78,1
1745,29.26,-7.44,22.16,1
1746,29.28,-5.26,11.02,1
1747,29.29,6.32,14.01,1
1748,29.3,15.45,27.7,1
1749,29.32,1.98,31.21,1
1750,29.33,-20.35,27.61,1
1751,29.34,-22.18,29.7,1
1752,29.36,-11.02,27.8,1
1753,29.37,-12.76,17.06,1
1754,29.38,-17.06,16.97,1
1755,29.4,-1.89,27.7,1
1756,29.41,14.64,24.27,1
1757,29.42,7.82,7.8,1
1758,29.44,-7.74,3.89,1
1759,29.45,-8.28,16.38,1
1760,29.46,4.46,23.57,1
1761,29.48,13.25,14.51,1
1762,29.49,7.8,3.45,1
1763,29.5,-6.4,4.22,1
1764,29.52,-13.47,5.56,1
1765,29.53,-6.05,-4.97,1
1766,29.54,4.53,-14.76,1
1767,29.56,6.06,-11.67,1
1768,29.57,-2.03,-0.58,1
1769,29.58,-10.3,9.17,1
1770,29.6,-10.74,9.07,1
1771,29.61,-8.19,3.27,1
1772,29.62,-8.13,-2.42,1
1773,29.64,-4.53,-13.06,1
1774,29.65,3.91,-20.1,1
1775,29.67,8.8,-15.04,1
1776,29.68,8.02,-12.18,1
1777,29.69,5.73,-14.91,1
1778,29.71,2.36,-11.59,1
1779,29.72,1.41,-6.11,1
1780,29.73,7.99,-6.03,1
1781,29.75,16.79,-4.6,1
1782,29.76,18.6,0.54,1
1783,29.77,9.48,-1.07,1
1784,29.79,-2.81,-11.66,1
1785,29.8,-4.66,-19.47,1
1786,29.81,0.49,-17.63,1
1787,29.83,0.23,-14.06,1
1788,29.84,-4.39,-16.05,1
1789,29.85,-7.37,-20.38,1
1790,29.86,-3.68,-20.49,1
1791,29.88,7.22,-15.93,1
1792,29.89,15.02,-14.33,1
1793,29.9,16.24,-18.53,1
1794,29.92,14.71,-19.2,1
1795,29.93,6.96,-15.28,1
1796,29.94,-0.02,-18.2,1
1797,29.96,6.13,-23.1,1
1798,29.97,16.21,-15.93,1
1799,29.98,14.07,-4.49,1
1800,30.0,4.1,-5.45,1
1801,30.01,0.27,-13.06,1
1802,30.02,1.59,-12.53,1
1803,30.04,-3.32,-10.1,1
1804,30.05,-18.26,-15.28,1
1805,30.06,-29.87,-17.82,1
1806,30.08,-19.73,-10.83,1
1807,30.09,6.26,-5.95,1
1808,30.1,25.76,-10.05,1
1809,30.12,30.77,-16.1,1
1810,30.13,22.63,-20.94,1
1811,30.14,5.49,-38.71,1
1812,30.16,-5.74,-79.56,2
1813,30.17,-3.67,-99.96,2
1814,30.18,1.66,-36.44,2
1815,30.2,6.16,80.64,2
1816,30.21,9.42,146.65,2
1817,30.22,11.0,141.22,2
1818,30.24,17.08,107.43,2
1819,30.25,26.1,33.92,2
1820,30.26,33.98,-39.61,2
1821,30.28,36.25,-13.82,2
1822,30.29,22.63,41.4,2
1823,30.3,0.43,6.41,2
1824,30.32,-10.54,-0.89,2
1825,30.33,-6.99,101.5,2
1826,30.35,0.15,143.23,2
1827,30.36,-3.06,54.43,2
1828,30.37,-14.88,-43.55,2
1829,30.39,-17.15,-54.64,2
1830,30.4,-12.86,1.52,2
1831,30.41,-17.05,13.02,2
1832,30.43,-23.86,-39.33,2
1833,30.44,-24.05,-61.88,2
1834,30.45,-17.41,-44.5,2
1835,30.47,-7.35,-38.05,2
1836,30.48,-0.09,-34.64,2
1837,30.49,7.27,-30.08,2
1838,30.5,12.45,-89.7,2
1839,30.52,-0.9,-196.5,2
1840,30.53,-26.58,-187.27,2
1841,30.54,-32.34,-63.21,2
1842,30.56,-7.17,-34.6,1
1843,30.57,18.92,-79.25,1
1844,30.58,19.43,-15.98,1
1845,30.6,6.17,55.29,1
1846,30.61,-6.57,-16.29,1
1847,30.62,-11.72,-90.02,1
1848,30.64,2.84,-34.28,1
1849,30.65,18.2,33.04,1
1850,30.67,7.06,7.46,1
1851,30.68,-8.5,-28.04,1
1852,30.69,-4.08,9.22,1
1853,30.7,0.47,46.45,1
1854,30.72,-3.62,-0.46,1
1855,30.73,4.89,-76.36,1
1856,30.75,17.35,-103.26,1
1857,30.76,6.46,-75.45,1
1858,30.77,-19.33,-26.35,1
1859,30.78,-29.54,-11.09,1
1860,30.8,-13.17,-23.4,1
1861,30.81,4.88,-2.95,1
1862,30.82,-2.1,28.34,1
1863,30.84,-19.71,10.1,1
1864,30.85,-24.65,-9.92,1
1865,30.86,-18.43,21.73,1
1866,30.88,-3.89,41.21,1
1867,30.89,12.32,18.71,1
1868,30.9,7.93,-1.07,1
1869,30.92,-17.03,-9.96,1
1870,30.93,-25.16,-7.81,1
1871,30.94,-2.75,-5.71,1
1872,30.96,6.07,-27.04,1
1873,30.97,-18.2,-38.23,1
1874,30.99,-21.33,-9.17,1
1875,31.0,10.25,21.45,1
1876,31.01,18.93,17.44,1
1877,31.03,5.56,6.15,1
1878,31.04,13.72,23.91,1
1879,31.05,22.32,39.56,1
1880,31.07,5.34,18.69,1
1881,31.08,-7.1,6.14,1
1882,31.09,4.64,23.69,1
1883,31.11,19.26,24.96,1
1884,31.12,16.95,18.57,1
1885,31.13,6.73,36.68,1
1886,31.14,9.52,28.51,1
1887,31.16,20.42,-29.98,1
1888,31.17,9.9,-39.35,1
1889,31.18,-16.29,31.92,1
1890,31.2,-14.74,58.82,1
1891,31.21,6.98,16.32,1
1892,31.22,11.58,13.14,1
1893,31.24,10.58,43.84,1
1894,31.25,11.97,41.17,1
1895,31.26,4.67,33.33,1
1896,31.28,1.83,49.83,1
1897,31.29,-0.45,55.61,1
1898,31.3,-13.94,25.96,1
1899,31.32,-10.12,-10.2,1
1900,31.33,18.01,-9.61,1
1901,31.34,27.71,27.41,1
1902,31.36,9.75,48.76,1
1903,31.37,-3.55,30.67,1
1904,31.38,-8.9,46.09,1
1905,31.4,-17.73,117.64,1
1906,31.41,-16.44,138.98,1
1907,31.42,-1.17,81.8,1
1908,31.44,6.39,26.79,1
1909,31.45,0.14,-1.46,1
1910,31.46,-1.94,-8.96,1
1911,31.48,1.88,17.79,1
1912,31.49,-1.01,43.96,1
1913,31.5,-3.75,32.51,1
1914,31.52,-5.3,3.82,1
1915,31.53,-13.64,-45.69,1
1916,31.54,-6.86,-82.41,1
1917,31.56,14.17,-13.55,1
1918,31.57,9.8,94.82,1
1919,31.58,-6.22,89.57,1
1920,31.6,1.0,1.71,1
1921,31.61,10.22,-33.59,1
1922,31.63,2.98,9.62,1
1923,31.64,0.81,44.75,1
1924,31.65,9.63,36.25,1
1925,31.67,10.95,27.32,1
1926,31.68,2.09,0.03,1
1927,31.69,-4.82,-47.31,1
1928,31.71,-1.88,-30.51,1
1929,31.72,10.22,27.26,1
1930,31.73,23.14,27.74,1
1931,31.75,22.86,-21.59,1
1932,31.76,0.69,-43.25,1
1933,31.77,-25.89,15.59,1
1934,31.78,-27.26,79.53,1
1935,31.8,-9.08,39.56,1
1936,31.81,-0.65,-27.07,1
1937,31.82,-5.68,-25.67,1
1938,31.84,-8.88,-13.71,1
1939,31.85,-3.87,-28.83,1
1940,31.86,0.74,-39.07,1
1941,31.88,-2.64,-26.43,1
1942,31.89,-8.03,0.4,1
1943,31.9,-10.15,6.88,1
1944,31.92,-10.57,-17.66,1
1945,31.93,-13.82,-34.18,1
1946,31.94,-16.55,-20.12,1
1947,31.96,-6.73,1.6,1
1948,31.97,5.56,7.15,1
1949,31.98,7.83,-0.95,1
1950,32.0,17.24,-18.7,1
1951,32.01,25.05,-34.41,1
1952,32.03,6.2,-11.02,1
1953,32.04,-17.34,38.59,1
1954,32.05,-31.15,38.98,1
1955,32.06,-42.33,-23.65,1
1956,32.08,-31.21,-85.32,1
1957,32.09,2.83,-104.63,1
1958,32.11,17.42,-82.23,1
1959,32.12,-2.74,-19.88,1
1960,32.13,-15.29,37.91,1
1961,32.15,1.45,12.68,1
1962,32.16,5.96,-55.75,0
1963,32.17,-9.59,-76.85,0
1964,32.19,-2.71,-69.1,0
1965,32.2,18.63,-59.16,0
1966,32.21,23.27,-50.99,0
1967,32.22,21.39,-87.91,0
1968,32.24,18.91,-163.99,0
1969,32.25,10.28,-200.79,0
1970,32.27,3.18,-160.8,0
1971,32.28,-0.37,-78.32,0
1972,32.29,-4.24,-5.6,0
1973,32.31,-11.99,17.61,0
1974,32.32,-19.57,-7.66,0
1975,32.33,-7.95,-31.78,0
1976,32.35,19.79,-17.88,0
1977,32.36,28.25,15.03,0
1978,32.37,12.84,31.84,0
1979,32.39,6.25,32.3,0
1980,32.4,14.57,41.91,0
1981,32.41,16.26,61.99,0
1982,32.43,5.94,72.23,0
1983,32.44,-6.98,70.99,0
1984,32.45,-14.65,70.92,0
1985,32.47,-10.25,72.66,0
1986,32.48,3.54,71.54,0
1987,32.49,10.17,64.29,0
1988,32.51,-2.38,50.91,0
1989,32.52,-16.67,48.28,0
1990,32.53,-9.58,64.76,0
1991,32.54,5.99,73.49,0
1992,32.56,6.95,61.64,1
1993,32.57,-0.94,51.54,1
1994,32.59,0.31,48.87,1
1995,32.6,9.37,41.3,1
1996,32.61,9.2,33.99,1
1997,32.63,-3.42,34.75,1
1998,32.64,-13.52,36.84,1
1999,32.65,-11.79,38.23,1
2000,32.67,-4.03,42.32,1
2001,32.68,0.47,38.94,1
2002,32.69,0.71,23.76,1
2003,32.71,-0.5,13.8,1
2004,32.72,-0.61,13.02,1
2005,32.73,4.88,8.02,1
2006,32.75,11.81,3.59,1
2007,32.76,10.96,11.59,1
2008,32.77,6.2,22.37,1
2009,32.79,3.82,24.43,1
2010,32.8,3.02,19.08,1
2011,32.81,3.01,7.58,1
2012,32.83,2.15,-1.4,1
2013,32.84,-3.8,-1.94,1
2014,32.85,-17.26,-3.0,1
2015,32.87,-27.08,0.0,1
2016,32.88,-15.25,11.46,1
2017,32.89,12.44,14.22,1
2018,32.9,25.82,4.43,1
2019,32.92,12.86,-5.54,1
2020,32.93,-5.15,-13.59,1
2021,32.95,-10.98,-19.88,1
2022,32.96,-9.48,-17.25,1
2023,32.97,-7.05,-5.32,1
2024,32.99,-4.4,2.93,1
2025,33.0,-2.26,0.6,1
2026,33.01,0.01,-1.81,1
2027,33.03,1.55,-2.72,1
2028,33.04,0.08,-15.86,1
2029,33.05,-0.29,-34.47,1
2030,33.06,4.54,-35.83,1
2031,33.08,8.4,-21.31,1
2032,33.09,5.63,-9.02,1
2033,33.11,-0.82,-4.28,1
2034,33.12,-2.94,-8.44,1
2035,33.13,3.63,-19.73,1
2036,33.15,4.81,-24.03,1
2037,33.16,-12.12,-14.55,1
2038,33.17,-25.95,-6.14,1
2039,33.19,-14.52,-13.79,1
2040,33.2,3.64,-26.58,1
2041,33.21,5.52,-23.62,1
2042,33.22,0.95,-12.06,1
2043,33.24,2.59,-13.81,1
2044,33.25,4.24,-21.43,1
2045,33.27,2.04,-12.77,1
2046,33.28,-2.96,1.22,1
2047,33.29,-7.87,-6.12,1
2048,33.31,-3.27,-27.2,1
2049,33.32,6.91,-32.91,1
2050,33.33,8.71,-21.36,1
2051,33.35,5.5,-11.61,1
2052,33.36,2.78,-8.14,1
2053,33.37,-2.95,-9.23,1
2054,33.38,-6.0,-16.69,1
2055,33.4,-0.67,-19.78,1
2056,33.41,7.72,-10.55,1
2057,33.43,10.34,-2.81,1
2058,33.44,3.96,-8.21,1
2059,33.45,-0.77,-20.65,1
2060,33.47,3.37,-26.43,1
2061,33.48,5.09,-15.15,1
2062,33.49,3.97,-0.96,1
2063,33.51,11.76,-4.6,1
2064,33.52,19.84,-15.45,1
2065,33.53,12.46,-17.98,1
2066,33.54,-2.22,-18.6,1
2067,33.56,-6.91,-22.63,1
2068,33.57,-4.14,-22.16,1
2069,33.59,-6.79,-10.71,1
2070,33.6,-10.03,3.29,1
2071,33.61,-0.15,4.94,1
2072,33.63,12.98,-6.28,1
2073,33.64,8.13,-16.82,1
2074,33.65,-6.59,-16.97,1
2075,33.67,-11.9,-9.77,1
2076,33.68,-12.41,-3.95,1
2077,33.69,-12.51,-1.93,1
2078,33.71,-5.77,2.3,1
2079,33.72,2.03,7.31,1
2080,33.73,-1.2,3.3,1
2081,33.75,-11.36,-5.61,1
2082,33.76,-11.94,-10.84,1
2083,33.77,-0.61,-17.42,1
2084,33.79,5.45,-20.74,1
2085,33.8,1.96,-7.57,1
2086,33.81,0.14,9.37,1
2087,33.83,-3.57,9.18,1
2088,33.84,-12.74,1.42,1
2089,33.85,-13.18,3.31,1
2090,33.87,-2.86,6.25,1
2091,33.88,1.27,-2.6,1
2092,33.89,-1.35,-9.25,1
2093,33.9,3.24,2.86,1
2094,33.92,8.83,16.34,1
2095,33.93,1.18,12.79,1
2096,33.95,-9.05,5.69,1
2097,33.96,-5.4,3.64,1
2098,33.97,7.16,-2.27,1
2099,33.99,12.79,-3.13,1
2100,34.0,3.6,9.38,1
2101,34.01,-8.57,13.91,1
2102,34.03,-6.47,3.77,1
2103,34.04,-1.59,0.32,1
2104,34.05,-15.91,8.31,1
2105,34.06,-29.98,13.98,1
2106,34.08,-17.64,11.33,1
2107,34.09,-0.14,9.42,1
2108,34.11,1.39,14.63,1
2109,34.12,6.43,15.5,1
2110,34.13,20.42,3.98,1
2111,34.15,14.96,-9.43,1
2112,34.16,-2.68,-7.45,0
2113,34.17,1.76,8.93,0
2114,34.19,19.75,10.76,0
2115,34.2,29.3,-22.05,0
2116,34.21,23.7,-74.18,0
2117,34.23,8.64,-111.61,0
2118,34.24,14.99,-114.1,0
2119,34.25,45.78,-98.1,0
2120,34.27,55.2,-91.85,0
2121,34.28,28.39,-99.97,0
2122,34.29,1.32,-112.41,0
2123,34.31,0.02,-120.18,0
2124,34.32,13.17,-112.93,0
2125,34.33,20.01,-90.01,0
2126,34.35,19.83,-66.33,0
2127,34.36,16.36,-47.66,0
2128,34.37,11.67,-23.21,0
2129,34.38,15.84,11.53,0
2130,34.4,16.99,45.62,0
2131,34.41,2.44,67.02,0
2132,34.43,-4.1,73.95,0
2133,34.44,0.01,78.09,0
2134,34.45,-9.48,97.43,0
2135,34.47,-21.29,130.59,0
2136,34.48,-16.91,154.95,0
2137,34.49,-20.14,157.53,0
2138,34.51,-44.71,151.06,0
2139,34.52,-55.38,155.04,0
2140,34.53,-39.85,166.56,0
2141,34.54,-34.53,167.04,0
2142,34.56,-46.26,156.57,1
2143,34.57,-43.61,148.12,1
2144,34.59,-24.43,142.78,1
2145,34.6,-14.95,135.15,1
2146,34.61,-19.33,121.61,1
2147,34.63,-20.14,102.77,1
2148,34.64,-17.73,88.78,1
2149,34.65,-21.71,81.73,1
2150,34.67,-22.81,68.55,1
2151,34.68,-12.99,52.71,1
2152,34.69,-4.98,47.5,1
2153,34.71,-4.52,46.49,1
2154,34.72,0.4,38.05,1
2155,34.73,7.04,22.54,1
2156,34.75,-1.37,8.46,1
2157,34.76,-15.15,0.07,1
2158,34.77,-8.29,-10.75,1
2159,34.79,14.31,-20.79,1
2160,34.8,16.22,-13.31,1
2161,34.81,-14.21,-0.59,1
2162,34.83,-28.83,-10.88,1
2163,34.84,-0.33,-31.5,1
2164,34.85,19.99,-29.73,1
2165,34.87,2.83,-16.4,1
2166,34.88,-7.02,-25.11,1
2167,34.89,13.31,-44.15,1
2168,34.91,22.66,-43.97,1
2169,34.92,-7.14,-35.94,1
2170,34.93,-30.63,-37.37,1
2171,34.95,-3.13,-40.55,1
2172,34.96,32.35,-42.56,1
2173,34.97,28.65,-46.35,1
2174,34.99,11.26,-51.39,1
2175,35.0,9.79,-60.66,1
2176,35.01,11.82,-70.09,1
2177,35.03,5.3,-65.7,1
2178,35.04,2.03,-48.98,1
2179,35.05,8.8,-42.84,1
2180,35.06,16.81,-53.55,1
2181,35.08,15.58,-59.14,1
2182,35.09,5.6,-53.04,1
2183,35.11,-4.79,-52.37,1
2184,35.12,-6.23,-60.53,1
2185,35.13,11.78,-65.65,1
2186,35.15,36.07,-60.95,1
2187,35.16,29.09,-48.28,1
2188,35.17,-1.55,-38.7,1
2189,35.19,-6.81,-41.24,1
2190,35.2,9.24,-46.75,1
2191,35.21,1.99,-45.5,1
2192,35.22,-16.67,-47.13,1
2193,35.24,-5.84,-53.72,1
2194,35.25,20.0,-49.76,1
2195,35.27,22.99,-37.44,1
2196,35.28,7.84,-34.54,1
2197,35.29,0.83,-39.78,1
2198,35.31,6.16,-34.96,1
2199,35.32,8.32,-21.48,1
2200,35.33,-1.95,-26.2,1
2201,35.35,-16.27,-45.71,1
2202,35.36,-14.54,-42.32,1
2203,35.37,3.8,-21.56,1
2204,35.38,12.59,-22.06,1
2205,35.4,11.41,-35.07,1
2206,35.41,18.4,-29.67,1
2207,35.43,21.02,-15.98,1
2208,35.44,12.71,-15.84,1
2209,35.45,8.94,-22.67,1
2210,35.47,5.43,-18.98,1
2211,35.48,-1.42,-4.42,1
2212,35.49,0.38,2.94,1
2213,35.51,7.28,-5.03,1
2214,35.52,7.8,-14.46,1
2215,35.53,6.67,-15.31,1
2216,35.55,12.99,-5.41,1
2217,35.56,19.92,7.09,1
2218,35.57,12.34,2.26,1
2219,35.59,-1.43,-12.24,1
2220,35.6,-2.59,-9.9,1
2221,35.61,1.7,3.73,1
2222,35.63,-0.27,10.26,1
2223,35.64,-3.24,11.48,1
2224,35.65,-3.49,14.64,1
2225,35.67,-0.92,15.43,1
2226,35.68,3.7,7.61,1
2227,35.69,5.74,1.61,1
2228,35.71,4.46,11.01,1
2229,35.72,-1.55,21.39,1
2230,35.73,-13.36,7.08,1
2231,35.75,-21.95,-15.95,1
2232,35.76,-19.24,-9.9,1
2233,35.77,-9.2,15.66,1
2234,35.79,-1.64,25.57,1
2235,35.8,-0.27,22.01,1
2236,35.81,1.83,24.96,1
2237,35.83,8.8,30.78,1
2238,35.84,15.29,27.8,1
2239,35.85,14.5,23.74,1
2240,35.87,2.17,27.2,1
2241,35.88,-17.28,23.69,1
2242,35.89,-26.36,8.63,1
2243,35.9,-15.17,3.88,1
2244,35.92,1.76,14.15,1
2245,35.93,8.98,19.15,1
2246,35.95,7.59,16.89,1
2247,35.96,1.38,22.17,1
2248,35.97,-4.57,32.32,1
2249,35.99,-6.52,32.69,1
2250,36.0,-10.56,22.99,1
2251,36.01,-14.26,17.3,1
2252,36.03,-5.05,22.04,1
2253,36.04,6.45,27.25,1
2254,36.05,-7.75,24.84,1
2255,36.06,-35.32,20.41,1
2256,36.08,-29.14,17.66,1
2257,36.09,4.24,14.35,1
2258,36.11,14.35,17.05,1
2259,36.12,0.25,27.23,1
2260,36.13,-3.93,30.24,1
2261,36.15,8.57,21.25,1
2262,36.16,13.82,13.76,2
2263,36.17,-1.61,23.32,2
2264,36.19,-5.79,59.73,2
2265,36.2,12.2,126.98,2
2266,36.21,11.03,215.23,2
2267,36.23,-7.94,287.0,2
2268,36.24,-5.34,296.87,2
2269,36.25,13.02,247.11,2
2270,36.27,15.37,193.1,2
2271,36.28,-0.85,165.87,2
2272,36.29,-14.51,129.44,2
2273,36.31,-19.42,57.91,2
2274,36.32,-24.01,-7.79,2
2275,36.33,-26.52,-40.98,2
2276,36.35,-23.21,-76.22,2
2277,36.36,-17.28,-133.86,2
2278,36.37,-10.69,-190.47,2
2279,36.38,-6.31,-220.39,2
2280,36.4,-5.09,-216.88,2
2281,36.41,0.42,-195.29,2
2282,36.43,10.88,-175.74,2
2283,36.44,17.94,-158.91,2
2284,36.45,20.72,-148.67,2
2285,36.47,18.26,-152.92,2
2286,36.48,9.15,-154.53,2
2287,36.49,3.02,-137.66,2
2288,36.51,4.36,-115.03,2
2289,36.52,7.9,-101.8,2
2290,36.53,12.15,-97.34,2
2291,36.54,16.45,-94.58,2
2292,36.56,14.68,-85.41,1
2293,36.57,5.5,-67.46,1
2294,36.59,-3.69,-53.92,1
2295,36.6,-11.09,-52.91,1
2296,36.61,-18.44,-50.34,1
2297,36.63,-19.15,-37.23,1
2298,36.64,-9.86,-24.61,1
2299,36.65,1.03,-19.28,1
2300,36.67,7.8,-15.6,1
2301,36.68,10.7,-11.33,1
2302,36.69,8.3,-8.69,1
2303,36.71,2.46,-4.69,1
2304,36.72,-2.99,-0.52,1
2305,36.73,-5.67,-1.72,1
2306,36.75,0.8,-1.67,1
2307,36.76,11.83,7.29,1
2308,36.77,12.09,19.84,1
2309,36.79,3.97,31.62,1
2310,36.8,-1.34,40.87,1
2311,36.81,-2.86,43.16,1
2312,36.83,-2.42,40.69,1
2313,36.84,-4.3,35.25,1
2314,36.85,-8.37,24.2,1
2315,36.87,-7.3,21.5,1
2316,36.88,-0.56,39.38,1
2317,36.89,6.63,56.34,1
2318,36.9,6.84,52.05,1
2319,36.92,-2.79,42.17,1
2320,36.93,-9.36,37.06,1
2321,36.95,-5.62,25.88,1
2322,36.96,0.32,19.22,1
2323,36.97,2.78,29.94,1
2324,36.99,-2.35,39.2,1
2325,37.0,-11.54,40.5,1
2326,37.01,-11.43,44.79,1
2327,37.03,-4.67,41.12,1
2328,37.04,-5.74,31.59,1
2329,37.05,-8.73,39.01,1
2330,37.06,-4.27,50.98,1
2331,37.08,-6.2,44.36,1
2332,37.09,-20.55,34.06,1
2333,37.11,-26.39,36.55,1
2334,37.12,-11.23,40.62,1
2335,37.13,6.3,37.42,1
2336,37.15,6.72,39.67,1
2337,37.16,2.86,51.31,1
2338,37.17,7.93,51.07,1
2339,37.19,6.86,35.99,1
2340,37.2,-6.07,30.16,1
2341,37.21,-11.21,37.17,1
2342,37.22,-0.42,37.12,1
2343,37.24,10.44,26.95,1
2344,37.25,9.83,23.32,1
2345,37.27,4.15,28.33,1
2346,37.28,1.46,28.78,1
2347,37.29,-1.1,24.68,1
2348,37.31,-4.82,19.59,1
2349,37.32,-4.61,13.31,1
2350,37.33,-2.18,13.39,1
2351,37.35,0.78,19.64,1
2352,37.36,4.71,16.77,1
2353,37.37,2.78,3.98,1
2354,37.38,-2.8,-1.32,1
2355,37.4,1.73,5.93,1
2356,37.41,14.92,10.95,1
2357,37.43,17.88,7.61,1
2358,37.44,4.71,10.29,1
2359,37.45,-7.68,17.75,1
2360,37.47,-8.72,12.26,1
2361,37.48,-10.36,-0.21,1
2362,37.49,-15.25,0.43,1
2363,37.51,-8.87,9.6,1
2364,37.52,0.62,8.82,1
2365,37.53,0.12,-1.63,1
2366,37.54,-1.17,-12.49,1
2367,37.56,-5.08,-19.42,1
2368,37.57,-14.08,-16.39,1
2369,37.59,-7.4,-7.3,1
2370,37.6,15.15,-5.44,1
2371,37.61,26.04,-9.01,1
2372,37.63,17.53,-8.45,1
2373,37.64,6.74,-5.36,1
2374,37.65,3.43,-8.83,1
2375,37.67,1.99,-16.58,1
2376,37.68,1.03,-16.79,1
2377,37.69,7.42,-13.45,1
2378,37.71,16.44,-13.76,1
2379,37.72,14.99,-7.32,1
2380,37.73,6.97,5.57,1
2381,37.75,5.47,3.83,1
2382,37.76,5.6,-16.87,1
2383,37.77,-1.07,-31.96,1
2384,37.79,-10.19,-27.41,1
2385,37.8,-11.23,-16.57,1
2386,37.81,2.75,-12.1,1
2387,37.83,17.8,-14.88,1
2388,37.84,15.35,-20.38,1
2389,37.85,4.2,-20.15,1
2390,37.87,-0.92,-13.64,1
2391,37.88,-3.55,-12.18,1
2392,37.89,-7.24,-17.53,1
2393,37.9,-4.24,-20.02,1
2394,37.92,3.64,-15.66,1
2395,37.93,1.21,-9.08,1
2396,37.95,-8.68,-9.01,1
2397,37.96,-2.25,-15.17,1
2398,37.97,16.67,-17.68,1
2399,37.99,16.83,-16.64,1
2400,38.0,2.64,-15.58,1
2401,38.01,2.82,-11.46,1
2402,38.03,8.27,-8.73,1
2403,38.04,-2.71,-12.75,1
2404,38.05,-21.04,-16.0,1
2405,38.06,-31.61,-15.5,1
2406,38.08,-28.56,-21.71,1
2407,38.09,-4.73,-33.68,1
2408,38.11,24.43,-36.05,1
2409,38.12,27.26,-30.28,1
2410,38.13,9.23,-26.5,1
2411,38.15,-2.3,-16.24,1
2412,38.16,-2.37,1.61,2
2413,38.17,2.69,3.73,2
2414,38.19,7.74,-7.1,2
2415,38.2,12.16,17.29,2
2416,38.21,24.17,79.96,2
2417,38.22,34.77,79.51,2
2418,38.24,18.35,-34.07,2
2419,38.25,-8.68,-74.16,2
2420,38.27,1.66,127.1,2
2421,38.28,26.43,356.85,2
2422,38.29,-1.91,331.99,2
2423,38.31,-51.86,165.81,2
2424,38.32,-42.11,92.25,2
2425,38.33,2.93,52.97,2
2426,38.35,7.28,-31.51,2
2427,38.36,-19.08,-27.78,2
2428,38.37,-21.66,64.29,2
2429,38.38,-13.0,48.61,2
2430,38.4,-20.17,-78.67,2
2431,38.41,-7.03,-141.91,2
2432,38.43,34.38,-123.25,2
2433,38.44,43.49,-126.12,2
2434,38.45,7.84,-164.73,2
2435,38.47,-18.05,-185.11,2
2436,38.48,-15.2,-150.07,2
2437,38.49,-9.17,-89.07,2
2438,38.51,-8.71,-87.75,2
2439,38.52,-9.68,-153.38,2
2440,38.53,-13.3,-182.41,2
2441,38.54,-13.12,-140.68,2
2442,38.56,-4.5,-103.26,1
2443,38.57,1.0,-96.31,1
2444,38.59,-7.58,-96.06,1
2445,38.6,-15.1,-99.9,1
2446,38.61,5.1,-88.76,1
2447,38.63,38.02,-41.89,1
2448,38.64,35.65,-7.58,1
2449,38.65,-0.78,-36.97,1
2450,38.67,-9.25,-69.92,1
2451,38.68,25.44,-53.8,1
2452,38.69,31.49,-29.4,1
2453,38.71,-10.27,-4.53,1
2454,38.72,-27.45,15.39,1
2455,38.73,-5.64,0.3,1
2456,38.75,-1.09,-6.05,1
2457,38.76,-12.65,12.22,1
2458,38.77,5.96,-12.66,1
2459,38.79,31.73,-45.91,1
2460,38.8,9.15,3.91,1
2461,38.81,-30.49,55.32,1
2462,38.83,-21.37,-2.14,1
2463,38.84,15.01,-69.85,1
2464,38.85,13.99,-17.47,1
2465,38.87,-15.7,87.22,1
2466,38.88,-26.05,96.98,1
2467,38.89,-21.38,14.46,1
2468,38.9,-21.44,-13.62,1
2469,38.92,-13.81,63.47,1
2470,38.93,3.34,134.71,1
2471,38.95,10.67,136.56,1
2472,38.96,6.32,93.4,1
2473,38.97,4.96,27.4,1
2474,38.99,8.77,-10.82,1
2475,39.0,2.81,13.41,1
2476,39.01,-12.65,48.0,1
2477,39.03,-9.52,45.03,1
2478,39.04,14.62,24.36,1
2479,39.05,19.87,27.25,1
2480,39.06,2.8,49.56,1
2481,39.08,-4.18,34.89,1
2482,39.09,-8.64,-15.4,1
2483,39.11,-28.78,-9.43,1
2484,39.12,-39.26,53.62,1
2485,39.13,-16.82,65.37,1
2486,39.15,12.15,38.98,1
2487,39.16,14.81,51.31,1
2488,39.17,1.82,54.17,1
2489,39.19,2.86,27.59,1
2490,39.2,19.3,34.22,1
2491,39.21,21.07,50.3,1
2492,39.22,3.51,30.96,1
2493,39.24,-2.34,9.04,1
2494,39.25,3.12,6.64,1
2495,39.27,1.23,16.94,1
2496,39.28,5.91,41.29,1
2497,39.29,17.7,65.48,1
2498,39.31,10.9,63.63,1
2499,39.32,-4.76,44.63,1
2500,39.33,-4.5,45.54,1
2501,39.35,4.38,58.28,1
2502,39.36,2.7,45.65,1
2503,39.37,-4.37,17.02,1
2504,39.38,4.29,-15.08,1
2505,39.4,18.86,-44.79,1
2506,39.41,13.29,-28.32,1
2507,39.43,-4.5,30.97,1
2508,39.44,-17.49,44.11,1
2509,39.45,-21.21,-15.89,1
2510,39.47,-11.68,-38.9,1
2511,39.48,-0.86,36.37,1
2512,39.49,-3.25,82.89,1
2513,39.51,-8.09,9.91,1
2514,39.52,0.98,-53.08,1
2515,39.53,24.21,-5.76,1
2516,39.54,38.06,50.93,1
2517,39.56,21.24,35.98,1
2518,39.57,-1.46,-5.95,1
2519,39.59,3.27,-27.64,1
2520,39.6,18.03,-14.93,1
2521,39.61,3.56,7.82,1
2522,39.63,-27.35,3.14,1
2523,39.64,-21.27,14.16,1
2524,39.65,11.36,42.88,1
2525,39.67,5.71,-22.33,1
2526,39.68,-23.96,-114.24,1
2527,39.69,-9.8,-53.3,1
2528,39.71,20.84,70.31,1
2529,39.72,4.39,76.88,1
2530,39.73,-17.32,20.11,1
2531,39.75,-1.62,8.77,1
2532,39.76,5.76,7.14,1
2533,39.77,-4.28,0.1,1
2534,39.79,3.25,37.0,1
2535,39.8,8.72,59.52,1
2536,39.81,-8.98,16.74,1
2537,39.83,-21.76,-19.44,1
2538,39.84,-8.82,-24.36,1
2539,39.85,14.36,-19.58,1
2540,39.87,16.87,19.49,1
2541,39.88,-10.73,47.65,1
2542,39.89,-31.43,-6.8,1
2543,39.9,-12.17,-53.76,1
2544,39.92,6.63,-10.52,1
2545,39.93,-10.79,13.59,1
2546,39.95,-18.1,-30.12,1
2547,39.96,1.76,-23.13,1
2548,39.97,9.16,37.19,1
2549,39.99,11.29,32.6,1
2550,40.0,22.42,-17.85,1
2551,40.01,20.74,-20.91,1
2552,40.03,11.7,-12.27,1
2553,40.04,12.88,-57.75,1
2554,40.05,9.6,-97.81,1
2555,40.06,-9.91,-80.39,1
2556,40.08,-27.05,-58.5,1
2557,40.09,-17.47,-49.46,1
2558,40.11,6.17,-24.29,1
2559,40.12,6.25,-11.61,1
2560,40.13,-17.3,-30.7,1
2561,40.15,-30.82,-45.37,1
2562,40.16,-23.43,-36.98,0
2563,40.17,-16.04,-6.09,0
2564,40.19,-16.39,23.89,0
2565,40.2,-10.69,14.66,0
2566,40.21,1.67,-16.85,0
2567,40.22,11.83,-44.73,0
2568,40.24,11.31,-66.06,0
2569,40.25,3.73,-54.74,0
2570,40.27,15.12,-15.18,0
2571,40.28,35.77,-4.39,0
2572,40.29,29.56,-24.99,0
2573,40.31,13.36,-32.91,0
2574,40.32,11.08,-32.79,0
2575,40.33,8.13,-38.39,0
2576,40.35,1.78,-31.09,0
2577,40.36,-0.87,-7.63,0
2578,40.37,-7.13,4.45,0
2579,40.38,-18.84,-32.7,0
2580,40.4,-23.97,-121.37,0
2581,40.41,-13.21,-206.42,0
2582,40.43,2.11,-228.38,0
2583,40.44,2.21,-183.08,0
2584,40.45,-7.63,-118.28,0
2585,40.47,-12.35,-72.36,0
2586,40.48,-11.36,-34.94,0
2587,40.49,-6.7,12.61,0
2588,40.51,-2.55,54.96,0
2589,40.52,-0.68,76.67,0
2590,40.53,7.2,89.96,0
2591,40.54,13.45,95.99,0
2592,40.56,6.67,87.45,1
2593,40.57,0.63,85.39,1
2594,40.59,4.45,97.24,1
2595,40.6,3.15,90.23,1
2596,40.61,-7.25,66.23,1
2597,40.63,-10.56,63.01,1
2598,40.64,-1.72,65.71,1
2599,40.65,8.66,49.45,1
2600,40.67,11.06,45.94,1
2601,40.68,3.2,63.42,1
2602,40.69,-6.26,70.39,1
2603,40.71,-3.36,64.59,1
2604,40.72,11.99,57.95,1
2605,40.73,20.5,56.12,1
2606,40.75,13.25,65.31,1
2607,40.76,3.82,74.18,1
2608,40.77,1.49,72.7,1
2609,40.79,3.19,68.21,1
2610,40.8,3.93,55.13,1
2611,40.81,1.45,32.53,1
2612,40.83,-0.35,23.79,1
2613,40.84,0.8,31.91,1
2614,40.85,0.95,40.6,1
2615,40.87,1.27,45.98,1
2616,40.88,5.03,43.73,1
2617,40.89,4.59,29.68,1
2618,40.9,-0.18,12.91,1
2619,40.92,3.39,6.19,1
2620,40.93,11.12,11.92,1
2621,40.95,7.46,13.11,1
2622,40.96,-3.5,2.57,1
2623,40.97,-3.36,-0.5,1
2624,40.99,7.11,3.53,1
2625,41.0,9.01,-2.62,1
2626,41.01,-0.8,-6.42,1
2627,41.03,-10.39,3.19,1
2628,41.04,-15.61,7.53,1
2629,41.05,-13.3,1.71,1
2630,41.06,-0.1,-4.14,1
2631,41.08,10.29,-8.88,1
2632,41.09,1.99,-10.31,1
2633,41.11,-11.58,-11.88,1
2634,41.12,-8.4,-20.97,1
2635,41.13,4.01,-25.69,1
2636,41.15,7.34,-13.42,1
2637,41.16,4.02,-0.06,1
2638,41.17,-0.2,-8.25,1
2639,41.19,-8.22,-27.49,1
2640,41.2,-10.74,-28.46,1
2641,41.21,0.5,-13.45,1
2642,41.22,9.63,-9.34,1
2643,41.24,4.98,-18.11,1
2644,41.25,-4.42,-24.29,1
2645,41.27,-12.34,-27.55,1
2646,41.28,-13.86,-30.81,1
2647,41.29,-2.07,-26.09,1
2648,41.31,9.75,-18.05,1
2649,41.32,5.37,-25.97,1
2650,41.33,-2.07,-40.4,1
2651,41.35,3.34,-28.5,1
2652,41.36,9.71,-0.05,1
2653,41.37,6.24,-0.21,1
2654,41.38,0.9,-27.83,1
2655,41.4,-1.41,-39.44,1
2656,41.41,-1.33,-30.44,1
2657,41.43,3.06,-30.56,1
2658,41.44,8.29,-37.95,1
2659,41.45,2.68,-29.28,1
2660,41.47,-7.77,-7.6,1
2661,41.48,-0.84,4.13,1
2662,41.49,11.99,-5.83,1
2663,41.51,2.76,-26.76,1
2664,41.52,-15.32,-34.58,1
2665,41.53,-16.35,-22.19,1
2666,41.54,-6.1,-7.41,1
2667,41.56,-3.03,-3.46,1
2668,41.57,-7.33,-13.06,1
2669,41.59,-9.11,-27.97,1
2670,41.6,-8.26,-27.3,1
2671,41.61,-5.42,-16.99,1
2672,41.63,2.03,-19.18,1
2673,41.64,8.84,-25.32,1
2674,41.65,8.87,-24.82,1
2675,41.67,4.54,-25.33,1
2676,41.68,1.51,-22.27,1
2677,41.69,1.55,-5.23,1
2678,41.71,1.71,6.9,1
2679,41.72,-0.24,-5.73,1
2680,41.73,-2.15,-17.06,1
2681,41.75,-1.75,-4.42,1
2682,41.76,0.1,6.39,1
2683,41.77,0.53,0.56,1
2684,41.79,-4.37,-2.13,1
2685,41.8,-11.49,-0.86,1
2686,41.81,-12.25,-7.01,1
2687,41.83,-9.02,-12.02,1
2688,41.84,-7.63,-7.73,1
2689,41.85,-3.23,-0.45,1
2690,41.87,0.72,0.4,1
2691,41.88,-2.19,-1.29,1
2692,41.89,-5.08,8.28,1
2693,41.9,-6.97,18.99,1
2694,41.92,-13.31,9.08,1
2695,41.93,-14.88,-8.64,1
2696,41.95,-0.68,-7.16,1
2697,41.96,17.3,5.41,1
2698,41.97,19.04,4.11,1
2699,41.99,5.48,-5.26,1
2700,42.0,-6.39,-2.73,1
2701,42.01,-8.3,5.05,1
2702,42.03,-5.73,7.44,1
2703,42.04,-1.78,10.13,1
2704,42.05,1.57,11.57,1
2705,42.06,-5.49,7.74,1
2706,42.08,-19.17,7.9,1
2707,42.09,-18.68,15.86,1
2708,42.11,-0.67,20.8,1
2709,42.12,16.26,17.98,1
2710,42.13,21.35,17.72,1
2711,42.15,16.7,21.79,1
2712,42.16,4.96,14.03,0
2713,42.17,-1.38,-6.72,0
2714,42.19,5.62,-13.36,0
2715,42.2,10.18,3.79,0
2716,42.21,8.96,18.23,0
2717,42.22,13.94,8.87,0
2718,42.24,20.75,-39.13,0
2719,42.25,30.29,-115.26,0
2720,42.27,46.88,-152.73,0
2721,42.28,52.7,-126.61,0
2722,42.29,40.87,-100.76,0
2723,42.31,34.24,-110.99,0
2724,42.32,49.0,-124.77,0
2725,42.33,72.98,-121.21,0
2726,42.35,87.12,-114.51,0
2727,42.36,82.33,-108.44,0
2728,42.37,56.27,-90.06,0
2729,42.38,24.28,-56.21,0
2730,42.4,-0.9,-19.37,0
2731,42.41,-31.52,8.75,0
2732,42.43,-59.08,33.65,0
2733,42.44,-65.14,63.78,0
2734,42.45,-72.02,89.26,0
2735,42.47,-89.72,103.71,0
2736,42.48,-89.71,122.42,0
2737,42.49,-73.06,147.88,0
2738,42.51,-70.91,156.98,0
2739,42.52,-85.7,145.58,0
2740,42.53,-92.89,145.9,0
2741,42.54,-77.7,170.22,0
2742,42.56,-51.37,187.06,1
2743,42.57,-35.75,177.51,1
2744,42.59,-30.27,159.47,1
2745,42.6,-18.85,150.65,1
2746,42.61,-3.36,143.61,1
2747,42.63,3.72,127.91,1
2748,42.64,0.91,113.06,1
2749,42.65,-2.59,105.74,1
2750,42.66,-0.22,95.46,1
2751,42.68,2.0,79.0,1
2752,42.69,1.47,64.9,1
2753,42.71,6.49,54.38,1
2754,42.72,10.68,42.96,1
2755,42.73,3.35,31.41,1
2756,42.75,-3.2,24.85,1
2757,42.76,1.49,24.93,1
2758,42.77,9.5,20.79,1
2759,42.79,13.12,7.38,1
2760,42.8,15.55,1.35,1
2761,42.81,23.13,6.43,1
2762,42.83,28.81,2.65,1
2763,42.84,23.51,-14.19,1
2764,42.85,15.77,-26.56,1
2765,42.87,13.78,-27.37,1
2766,42.88,15.88,-27.67,1
2767,42.89,16.52,-35.08,1
2768,42.9,8.04,-40.1,1
2769,42.92,-4.5,-34.26,1
2770,42.93,-9.37,-29.95,1
2771,42.95,-2.76,-38.46,1
2772,42.96,12.5,-49.7,1
2773,42.97,23.58,-53.12,1
2774,42.99,20.81,-50.31,1
2775,43.0,13.65,-46.0,1
2776,43.01,10.68,-47.78,1
2777,43.03,9.45,-56.24,1
2778,43.04,10.74,-61.64,1
2779,43.05,15.28,-62.18,1
2780,43.06,17.56,-60.13,1
2781,43.08,16.46,-54.46,1
2782,43.09,13.86,-51.18,1
2783,43.11,7.94,-52.55,1
2784,43.12,2.92,-53.64,1
2785,43.13,5.41,-58.01,1
2786,43.15,9.32,-63.2,1
2787,43.16,6.47,-55.97,1
2788,43.17,2.97,-41.22,1
2789,43.19,5.17,-37.55,1
2790,43.2,4.86,-44.05,1
2791,43.21,-1.36,-42.09,1
2792,43.22,-2.63,-31.87,1
2793,43.24,-0.83,-33.92,1
2794,43.25,-4.06,-42.48,1
2795,43.27,-0.14,-33.45,1
2796,43.28,16.65,-21.65,1
2797,43.29,23.31,-35.76,1
2798,43.3,11.6,-54.33,1
2799,43.32,4.1,-45.88,1
2800,43.33,6.95,-32.03,1
2801,43.35,6.98,-36.71,1
2802,43.36,5.68,-38.36,1
2803,43.37,12.13,-26.76,1
2804,43.38,16.93,-24.26,1
2805,43.4,4.71,-31.35,1
2806,43.41,-6.93,-27.9,1
2807,43.43,7.58,-19.66,1
2808,43.44,22.63,-23.73,1
2809,43.45,8.16,-27.87,1
2810,43.47,-9.64,-18.08,1
2811,43.48,-5.82,-14.18,1
2812,43.49,0.09,-26.07,1
2813,43.51,-3.81,-30.89,1
2814,43.52,-2.61,-18.62,1
2815,43.53,2.55,-1.81,1
2816,43.54,0.64,10.19,1
2817,43.56,0.29,10.75,1
2818,43.57,4.99,-2.23,1
2819,43.59,0.65,-16.06,1
2820,43.6,-11.27,-15.74,1
2821,43.61,-14.62,-3.96,1
2822,43.63,-5.4,2.78,1
2823,43.64,10.04,-1.23,1
2824,43.65,20.21,-4.11,1
2825,43.67,13.98,1.71,1
2826,43.68,-4.28,9.23,1
2827,43.69,-15.98,10.83,1
2828,43.71,-11.19,6.2,1
2829,43.72,-3.84,1.44,1
2830,43.73,-7.96,2.76,1
2831,43.75,-10.56,7.96,1
2832,43.76,-0.88,11.59,1
2833,43.77,1.44,13.39,1
2834,43.79,-9.68,16.21,1
2835,43.8,-10.26,22.87,1
2836,43.81,0.16,31.56,1
2837,43.83,-0.42,30.9,1
2838,43.84,-10.17,19.89,1
2839,43.85,-14.61,15.98,1
2840,43.87,-10.48,19.99,1
2841,43.88,-2.42,18.06,1
2842,43.89,4.95,15.8,1
2843,43.9,10.91,22.82,1
2844,43.92,10.66,31.28,1
2845,43.93,-1.51,28.38,1
2846,43.94,-19.17,18.81,1
2847,43.96,-29.64,18.82,1
2848,43.97,-26.79,19.53,1
2849,43.99,-13.64,6.22,1
2850,44.0,-1.31,-3.88,1
2851,44.01,1.49,5.05,1
2852,44.03,-5.58,19.95,1
2853,44.04,-18.61,23.3,1
2854,44.05,-31.46,16.63,1
2855,44.06,-38.08,13.79,1
2856,44.08,-31.74,18.63,1
2857,44.09,-7.92,22.68,1
2858,44.11,18.81,22.9,1
2859,44.12,22.19,19.64,1
2860,44.13,-0.79,12.97,1
2861,44.15,-22.06,15.3,1
2862,44.16,-12.8,29.0,2
2863,44.17,15.51,31.13,2
2864,44.19,24.42,20.68,2
2865,44.2,7.8,31.26,2
2866,44.21,-9.48,82.59,2
2867,44.22,-12.27,163.45,2
2868,44.24,-4.18,248.67,2
2869,44.25,3.86,309.9,2
2870,44.27,9.61,327.5,2
2871,44.28,7.3,306.86,2
2872,44.29,-15.49,268.5,2
2873,44.31,-42.61,211.92,2
2874,44.32,-47.05,119.94,2
2875,44.33,-29.53,3.24,2
2876,44.35,-8.67,-97.26,2
2877,44.36,5.74,-153.52,2
2878,44.37,22.86,-179.12,2
2879,44.38,46.53,-206.22,2
2880,44.4,59.72,-236.95,2
2881,44.41,52.58,-252.53,2
2882,44.43,35.62,-247.23,2
2883,44.44,18.52,-226.09,2
2884,44.45,2.15,-198.4,2
2885,44.47,-9.82,-167.96,2
2886,44.48,-8.2,-136.97,2
2887,44.49,7.11,-121.07,2
2888,44.51,25.35,-122.0,2
2889,44.52,35.25,-121.73,2
2890,44.53,29.64,-114.28,2
2891,44.54,12.91,-104.52,2
2892,44.56,-2.24,-99.62,1
2893,44.57,-8.58,-105.27,1
2894,44.58,-1.82,-107.62,1
2895,44.6,19.23,-90.14,1
2896,44.61,34.15,-60.14,1
2897,44.63,22.38,-35.64,1
2898,44.64,3.91,-30.8,1
2899,44.65,2.65,-36.68,1
2900,44.67,6.67,-26.5,1
2901,44.68,4.9,-1.71,1
2902,44.69,1.71,10.13,1
2903,44.71,-5.51,4.28,1
2904,44.72,-17.14,1.79,1
2905,44.73,-21.79,11.68,1
2906,44.75,-16.06,19.25,1
2907,44.76,-7.09,17.15,1
2908,44.77,-0.17,17.21,1
2909,44.79,2.44,23.11,1
2910,44.8,-1.41,29.48,1
2911,44.81,-12.96,37.13,1
2912,44.83,-21.35,43.76,1
2913,44.84,-12.34,46.56,1
2914,44.85,2.01,50.21,1
2915,44.87,3.09,53.32,1
2916,44.88,-0.57,49.78,1
2917,44.89,-2.36,45.66,1
2918,44.9,-13.47,44.31,1
2919,44.92,-26.57,37.73,1
2920,44.93,-19.46,30.33,1
2921,44.95,2.55,34.44,1
2922,44.96,10.72,48.17,1
2923,44.97,0.06,60.75,1
2924,44.99,-6.21,64.46,1
2925,45.0,-3.34,56.69,1
2926,45.01,-6.58,44.24,1
2927,45.03,-14.22,42.26,1
2928,45.04,-13.4,53.93,1
2929,45.05,-6.03,60.85,1
2930,45.06,-4.0,53.43,1
2931,45.08,-9.89,45.33,1
2932,45.09,-11.65,45.94,1
2933,45.11,-3.03,46.47,1
2934,45.12,2.03,44.28,1
2935,45.13,-4.36,48.83,1
2936,45.15,-9.57,55.16,1
2937,45.16,-7.3,50.22,1
2938,45.17,-4.64,36.95,1
2939,45.19,-1.62,23.46,1
2940,45.2,4.69,14.08,1
2941,45.21,5.92,14.44,1
2942,45.22,-1.37,25.7,1
2943,45.24,-3.9,36.6,1
2944,45.25,3.12,34.79,1
2945,45.26,9.36,25.67,1
2946,45.28,8.98,19.74,1
2947,45.29,4.79,15.56,1
2948,45.31,-0.84,10.42,1
2949,45.32,-8.93,10.13,1
2950,45.33,-14.06,15.52,1
2951,45.35,-7.76,18.13,1
2952,45.36,2.61,17.44,1
2953,45.37,3.15,21.39,1
2954,45.38,-3.57,24.88,1
2955,45.4,-5.77,18.4,1
2956,45.41,-1.21,7.77,1
2957,45.43,2.9,1.74,1
2958,45.44,0.89,3.36,1
2959,45.45,-4.94,11.71,1
2960,45.47,-6.15,13.46,1
2961,45.48,-2.81,-0.39,1
2962,45.49,0.99,-14.73,1
2963,45.51,6.37,-14.81,1
2964,45.52,3.47,-6.37,1
2965,45.53,-13.09,-0.3,1
2966,45.54,-17.93,-1.36,1
2967,45.56,1.65,-10.72,1
2968,45.57,18.42,-23.34,1
2969,45.59,11.63,-27.16,1
2970,45.6,-0.96,-21.87,1
2971,45.61,2.21,-16.49,1
2972,45.63,7.43,-10.5,1
2973,45.64,-5.21,-5.51,1
2974,45.65,-17.89,-7.67,1
2975,45.67,-4.02,-13.91,1
2976,45.68,19.71,-20.71,1
2977,45.69,18.55,-22.64,1
2978,45.71,2.02,-14.29,1
2979,45.72,1.34,-3.69,1
2980,45.73,6.99,-1.83,1
2981,45.75,-3.8,-8.86,1
2982,45.76,-17.37,-18.56,1
2983,45.77,-14.03,-27.16,1
2984,45.79,-1.67,-29.56,1
2985,45.8,9.18,-20.35,1
2986,45.81,16.85,-9.31,1
2987,45.83,17.34,-11.1,1
2988,45.84,13.47,-20.79,1
2989,45.85,9.92,-29.26,1
2990,45.86,4.65,-38.71,1
2991,45.88,1.19,-44.2,1
2992,45.89,1.17,-33.55,1
2993,45.9,0.53,-12.85,1
2994,45.92,3.66,-0.32,1
2995,45.93,12.53,3.6,1
2996,45.95,16.73,6.5,1
2997,45.96,12.68,3.1,1
2998,45.97,9.1,-7.32,1
2999,45.99,5.84,-15.04,1
3000,46.0,-5.58,-19.9,1
3001,46.01,-14.77,-25.1,1
3002,46.03,-3.87,-20.98,1
3003,46.04,13.89,-2.7,1
3004,46.05,9.27,9.47,1
3005,46.06,-17.41,0.59,1
3006,46.08,-34.43,-12.15,1
3007,46.09,-22.06,-13.91,1
3008,46.11,0.16,-15.28,1
3009,46.12,8.45,-24.4,1
3010,46.13,7.16,-29.37,1
3011,46.15,7.21,-17.71,1
3012,46.16,9.05,-0.38,2
3013,46.17,12.26,12.96,2
3014,46.19,9.38,52.05,2
3015,46.2,-5.74,120.23,2
3016,46.21,-9.63,163.89,2
3017,46.22,12.86,150.61,2
3018,46.24,29.3,94.47,2
3019,46.25,19.71,38.3,2
3020,46.27,9.13,-4.63,2
3021,46.28,14.04,-68.1,2
3022,46.29,19.16,-170.07,2
3023,46.31,10.52,-213.46,2
3024,46.32,2.95,-42.03,2
3025,46.33,6.66,207.26,2
3026,46.35,0.93,239.1,2
3027,46.36,-7.02,115.55,2
3028,46.37,12.87,44.8,2
3029,46.38,29.38,28.83,2
3030,46.4,2.7,31.8,2
3031,46.41,-30.69,43.85,2
3032,46.43,-23.09,-11.78,2
3033,46.44,5.81,-144.73,2
3034,46.45,6.06,-201.21,2
3035,46.47,-20.17,-133.25,2
3036,46.48,-31.94,-91.59,2
3037,46.49,-26.89,-107.6,2
3038,46.5,-28.16,-118.43,2
3039,46.52,-27.25,-140.76,2
3040,46.53,-11.76,-135.34,2
3041,46.54,0.87,-85.77,2
3042,46.56,0.21,-78.37,1
3043,46.57,-3.65,-103.06,1
3044,46.59,-2.27,-103.94,1
3045,46.6,5.27,-93.52,1
3046,46.61,9.94,-60.38,1
3047,46.63,1.29,-16.56,1
3048,46.64,-15.25,-15.52,1
3049,46.65,-26.91,-44.05,1
3050,46.67,-25.01,-79.19,1
3051,46.68,-8.31,-104.51,1
3052,46.69,1.7,-61.67,1
3053,46.71,-9.19,21.32,1
3054,46.72,-14.58,33.76,1
3055,46.73,-0.18,-18.53,1
3056,46.75,14.81,-38.37,1
3057,46.76,15.87,-1.84,1
3058,46.77,3.72,37.44,1
3059,46.79,-5.12,44.86,1
3060,46.8,-2.25,34.07,1
3061,46.81,-1.4,26.67,1
3062,46.83,-2.86,46.11,1
3063,46.84,0.11,92.87,1
3064,46.85,-1.26,103.39,1
3065,46.87,-6.09,42.33,1
3066,46.88,-1.17,-19.52,1
3067,46.89,14.23,-9.88,1
3068,46.9,32.51,49.15,1
3069,46.92,44.67,70.37,1
3070,46.93,32.85,28.59,1
3071,46.95,-4.32,10.58,1
3072,46.96,-28.88,51.54,1
3073,46.97,-19.44,62.91,1
3074,46.99,-1.58,6.57,1
3075,47.0,9.03,-21.75,1
3076,47.01,15.35,30.37,1
3077,47.03,9.2,73.37,1
3078,47.04,-2.93,62.02,1
3079,47.05,-3.05,47.76,1
3080,47.06,-8.77,29.53,1
3081,47.08,-28.6,3.28,1
3082,47.09,-20.78,5.58,1
3083,47.11,15.25,14.11,1
3084,47.12,18.18,19.39,1
3085,47.13,-9.65,61.63,1
3086,47.14,-8.06,84.71,1
3087,47.16,14.95,31.22,1
3088,47.17,10.27,-34.71,1
3089,47.18,-3.54,-70.97,1
3090,47.2,17.42,-64.93,1
3091,47.21,39.68,-2.18,1
3092,47.22,11.44,47.36,1
3093,47.24,-29.08,15.46,1
3094,47.25,-26.66,-41.73,1
3095,47.27,-7.85,-17.54,1
3096,47.28,-5.67,68.22,1
3097,47.29,0.86,95.61,1
3098,47.31,12.5,54.93,1
3099,47.32,-0.83,27.02,1
3100,47.33,-22.88,38.96,1
3101,47.35,-13.36,72.36,1
3102,47.36,6.91,88.18,1
3103,47.37,3.9,49.77,1
3104,47.38,-4.47,-18.08,1
3105,47.4,-5.19,-57.02,1
3106,47.41,-1.61,-33.4,1
3107,47.43,11.62,31.92,1
3108,47.44,19.68,65.31,1
3109,47.45,11.32,34.88,1
3110,47.47,3.52,-1.19,1
3111,47.48,5.29,11.64,1
3112,47.49,11.34,35.61,1
3113,47.51,16.57,18.29,1
3114,47.52,10.35,-1.69,1
3115,47.53,-3.79,9.13,1
3116,47.54,-5.64,15.11,1
3117,47.56,3.57,14.44,1
3118,47.57,9.65,26.04,1
3119,47.59,4.47,25.4,1
3120,47.6,-12.13,7.48,1
3121,47.61,-16.6,0.04,1
3122,47.63,-1.69,6.27,1
3123,47.64,3.89,4.98,1
3124,47.65,1.48,-10.56,1
3125,47.67,7.74,-5.17,1
3126,47.68,7.29,13.19,1
3127,47.69,-3.0,-21.35,1
3128,47.71,-7.47,-46.41,1
3129,47.72,-2.98,17.84,1
3130,47.73,6.63,64.28,1
3131,47.75,5.78,24.24,1
3132,47.76,-9.06,-19.01,1
3133,47.77,-10.89,-20.76,1
3134,47.78,0.16,-8.53,1
3135,47.8,-3.06,-11.17,1
3136,47.81,-17.09,-35.33,1
3137,47.82,-23.93,-38.37,1
3138,47.84,-21.15,10.49,1
3139,47.85,-9.33,57.72,1
3140,47.86,4.96,45.17,1
3141,47.88,4.81,-16.16,1
3142,47.89,-9.73,-70.4,1
3143,47.9,-14.05,-72.16,1
3144,47.92,1.69,-30.27,1
3145,47.93,14.57,1.19,1
3146,47.95,4.91,-2.68,1
3147,47.96,-15.28,-23.87,1
3148,47.97,-17.45,-62.24,1
3149,47.99,7.01,-89.17,1
3150,48.0,29.15,-56.93,1
3151,48.01,16.18,10.2,1
3152,48.03,-10.3,41.0,1
3153,48.04,1.03,-13.24,1
3154,48.05,29.28,-84.92,1
3155,48.06,11.87,-63.17,1
3156,48.08,-28.15,24.25,1
3157,48.09,-32.21,66.73,1
3158,48.11,-16.62,18.29,1
3159,48.12,-8.95,-49.38,1
3160,48.13,2.38,-52.87,1
3161,48.15,13.48,-23.46,1
3162,48.16,16.4,-2.85,0
3163,48.17,22.33,32.72,0
3164,48.19,22.08,57.96,0
3165,48.2,3.79,-1.93,0
3166,48.21,-9.67,-130.57,0
3167,48.22,4.53,-229.64,0
3168,48.24,33.94,-257.76,0
3169,48.25,53.07,-231.82,0
3170,48.27,58.52,-157.99,0
3171,48.28,52.49,-55.71,0
3172,48.29,28.61,16.09,0
3173,48.31,-3.08,16.35,0
3174,48.32,-30.27,-20.49,0
3175,48.33,-49.85,-24.13,0
3176,48.35,-53.62,17.57,0
3177,48.36,-49.06,59.08,0
3178,48.37,-47.7,79.57,0
3179,48.38,-35.71,95.81,0
3180,48.4,-11.4,112.95,0
3181,48.41,1.37,114.38,0
3182,48.42,-8.66,93.19,0
3183,48.44,-24.49,74.23,0
3184,48.45,-18.92,80.93,0
3185,48.46,6.17,100.01,0
3186,48.48,21.99,110.49,0
3187,48.49,20.3,105.5,0
3188,48.5,11.2,86.93,0
3189,48.52,-0.3,68.51,0
3190,48.53,-6.13,61.23,0
3191,48.54,-1.65,56.39,0
3192,48.56,2.91,43.46,1
3193,48.57,2.02,29.32,1
3194,48.59,2.9,20.66,1
3195,48.6,5.34,15.18,1
3196,48.61,-1.08,14.31,1
3197,48.63,-12.49,16.35,1
3198,48.64,-11.22,17.42,1
3199,48.65,2.85,22.75,1
3200,48.67,11.95,28.84,1
3201,48.68,9.18,23.39,1
3202,48.69,2.61,11.01,1
3203,48.71,-0.35,0.63,1
3204,48.72,-2.7,-6.6,1
3205,48.73,-5.84,-5.4,1
3206,48.75,-2.03,2.29,1
3207,48.76,5.41,4.74,1
3208,48.77,3.28,1.47,1
3209,48.79,-3.43,0.42,1
3210,48.8,-2.45,2.35,1
3211,48.81,4.72,1.69,1
3212,48.83,10.82,-8.3,1
3213,48.84,4.78,-23.85,1
3214,48.85,-12.0,-28.13,1
3215,48.87,-18.05,-16.81,1
3216,48.88,-5.0,-7.34,1
3217,48.89,7.52,-6.8,1
3218,48.9,3.05,-5.49,1
3219,48.92,-9.03,-0.91,1
3220,48.93,-9.91,-1.6,1
3221,48.95,0.65,-14.25,1
3222,48.96,8.52,-24.2,1
3223,48.97,9.63,-14.23,1
3224,48.99,8.5,-0.56,1
3225,49.0,3.67,-4.98,1
3226,49.01,-5.02,-19.03,1
3227,49.03,-7.8,-24.85,1
3228,49.04,2.48,-21.82,1
3229,49.05,15.72,-17.62,1
3230,49.06,15.09,-15.55,1
3231,49.08,3.93,-21.19,1
3232,49.09,-0.22,-31.42,1
3233,49.1,3.49,-29.1,1
3234,49.12,-2.49,-14.62,1
3235,49.13,-19.0,-7.22,1
3236,49.14,-22.26,-15.37,1
3237,49.16,-10.49,-25.1,1
3238,49.17,-6.57,-16.34,1
3239,49.19,-5.08,0.7,1
3240,49.2,12.32,-7.74,1
3241,49.21,30.6,-34.51,1
3242,49.22,29.89,-38.46,1
3243,49.24,18.16,-23.67,1
3244,49.25,8.46,-23.49,1
3245,49.27,4.06,-30.41,1
3246,49.28,3.65,-28.39,1
3247,49.29,-0.0,-22.98,1
3248,49.31,-9.69,-14.04,1
3249,49.32,-10.64,-10.0,1
3250,49.33,4.84,-18.59,1
3251,49.35,14.4,-16.81,1
3252,49.36,4.17,-2.85,1
3253,49.37,-8.12,-6.37,1
3254,49.38,-13.18,-17.92,1
3255,49.4,-17.63,-7.61,1
3256,49.41,-12.28,10.02,1
3257,49.43,6.98,8.67,1
3258,49.44,13.52,-1.11,1
3259,49.45,-3.51,0.59,1
3260,49.47,-18.51,3.5,1
3261,49.48,-17.02,-8.11,1
3262,49.49,-6.89,-16.91,1
3263,49.51,4.32,-10.16,1
3264,49.52,8.83,-5.78,1
3265,49.53,1.82,-9.78,1
3266,49.54,-5.67,-12.16,1
3267,49.56,0.36,-9.81,1
3268,49.57,13.14,0.92,1
3269,49.59,12.19,14.02,1
3270,49.6,-1.0,9.83,1
3271,49.61,-3.28,-12.09,1
3272,49.63,4.92,-25.58,1
3273,49.64,2.3,-12.68,1
3274,49.65,-8.62,9.17,1
3275,49.67,-10.63,12.22,1
3276,49.68,-5.03,2.46,1
3277,49.69,1.66,3.88,1
3278,49.7,9.52,12.5,1
3279,49.72,11.62,5.63,1
3280,49.73,4.51,-9.64,1
3281,49.74,1.76,-6.19,1
3282,49.76,8.66,5.48,1
3283,49.77,6.33,-3.27,1
3284,49.78,-7.75,-16.67,1
3285,49.8,-8.97,-8.0,1
3286,49.81,5.85,5.92,1
3287,49.83,13.21,2.01,1
3288,49.84,5.64,-6.92,1
3289,49.85,-0.44,0.9,1
3290,49.87,4.74,17.03,1
3291,49.88,8.69,15.16,1
3292,49.89,3.13,-0.13,1
3293,49.9,-1.09,-2.76,1
3294,49.92,1.46,2.5,1
3295,49.93,2.11,-0.77,1
3296,49.95,-0.51,0.54,1
3297,49.96,-0.96,12.58,1
3298,49.97,-2.26,13.6,1
3299,49.99,-6.21,-0.96,1
3300,50.0,-1.59,-7.48,1
3301,50.01,12.89,1.96,1
3302,50.03,16.78,7.04,1
3303,50.04,2.18,3.06,1
3304,50.05,-8.77,8.64,1
3305,50.06,-10.92,17.96,1
3306,50.08,-26.39,6.95,1
3307,50.09,-44.44,-8.08,1
3308,50.11,-29.45,4.49,1
3309,50.12,7.7,24.01,1
3310,50.13,24.54,20.55,1
3311,50.15,13.44,12.46,1
3312,50.16,-4.47,17.66,0
3313,50.17,-17.22,19.94,0
3314,50.19,-19.06,1.56,0
3315,50.2,-7.33,-40.39,0
3316,50.21,9.8,-90.36,0
3317,50.22,21.85,-117.74,0
3318,50.24,24.21,-113.87,0
3319,50.25,23.25,-104.25,0
3320,50.27,32.52,-111.61,0
3321,50.28,50.45,-132.81,0
3322,50.29,58.55,-151.79,0
3323,50.31,48.65,-156.51,0
3324,50.32,35.77,-141.57,0
3325,50.33,32.42,-109.3,0
3326,50.34,30.21,-66.02,0
3327,50.36,23.29,-15.87,0
3328,50.37,18.27,32.8,0
3329,50.38,12.77,67.8,0
3330,50.4,-1.39,87.13,0
3331,50.41,-20.06,99.69,0
3332,50.42,-34.02,116.94,0
3333,50.44,-46.46,138.26,0
3334,50.45,-61.01,147.98,0
3335,50.46,-64.75,146.21,0
3336,50.48,-51.89,151.17,0
3337,50.49,-43.8,160.43,0
3338,50.51,-52.41,158.65,0
3339,50.52,-55.23,154.72,0
3340,50.53,-33.62,163.77,0
3341,50.54,-11.77,172.7,0
3342,50.56,-15.25,162.67,1
3343,50.57,-20.61,141.17,1
3344,50.59,-8.51,125.37,1
3345,50.6,-5.26,113.31,1
3346,50.61,-17.61,95.2,1
3347,50.63,-13.52,77.7,1
3348,50.64,3.6,67.99,1
3349,50.65,-2.29,60.79,1
3350,50.67,-20.21,56.12,1
3351,50.68,-11.88,51.75,1
3352,50.69,8.95,39.44,1
3353,50.71,4.61,23.49,1
3354,50.72,-11.74,13.57,1
3355,50.73,-7.69,11.77,1
3356,50.75,1.43,12.84,1
3357,50.76,-4.1,7.14,1
3358,50.77,-2.39,-4.34,1
3359,50.79,10.43,-11.1,1
3360,50.8,7.21,-13.42,1
3361,50.81,-5.55,-20.08,1
3362,50.83,1.4,-31.52,1
3363,50.84,18.23,-40.06,1
3364,50.85,12.96,-39.62,1
3365,50.87,-4.18,-35.49,1
3366,50.88,-1.35,-39.53,1
3367,50.89,8.55,-51.53,1
3368,50.9,0.14,-58.06,1
3369,50.92,-8.83,-56.25,1
3370,50.93,5.61,-56.27,1
3371,50.95,27.45,-57.02,1
3372,50.96,28.01,-51.75,1
3373,50.97,13.37,-47.7,1
3374,50.98,9.54,-50.74,1
3375,51.0,13.87,-56.5,1
3376,51.01,11.07,-62.4,1
3377,51.02,11.47,-66.31,1
3378,51.04,17.7,-65.93,1
3379,51.05,9.09,-59.8,1
3380,51.06,-7.52,-48.69,1
3381,51.08,-3.36,-38.98,1
3382,51.09,12.43,-39.72,1
3383,51.1,6.56,-52.36,1
3384,51.12,-9.92,-62.46,1
3385,51.13,0.43,-60.35,1
3386,51.15,19.02,-54.98,1
3387,51.16,6.82,-49.41,1
3388,51.17,-9.04,-39.68,1
3389,51.19,7.03,-34.38,1
3390,51.2,25.23,-41.04,1
3391,51.21,15.1,-50.93,1
3392,51.22,0.79,-50.64,1
3393,51.24,4.48,-44.46,1
3394,51.25,7.92,-45.55,1
3395,51.27,-1.54,-46.04,1
3396,51.28,-5.95,-35.65,1
3397,51.29,3.28,-27.91,1
3398,51.31,6.53,-31.92,1
3399,51.32,0.46,-34.81,1
3400,51.33,6.94,-29.84,1
3401,51.35,19.47,-26.67,1
3402,51.36,11.04,-30.88,1
3403,51.37,-6.08,-32.96,1
3404,51.38,-1.67,-23.79,1
3405,51.4,11.92,-11.2,1
3406,51.41,1.92,-4.18,1
3407,51.43,-18.97,-2.19,1
3408,51.44,-8.37,-8.87,1
3409,51.45,22.67,-20.96,1
3410,51.47,21.22,-23.12,1
3411,51.48,-4.35,-14.43,1
3412,51.49,-4.63,-8.62,1
3413,51.51,11.71,-9.8,1
3414,51.52,7.3,-8.46,1
3415,51.53,-7.92,-1.19,1
3416,51.54,-6.73,3.96,1
3417,51.56,1.35,5.18,1
3418,51.57,-0.48,6.41,1
3419,51.59,-1.88,7.17,1
3420,51.6,0.96,5.9,1
3421,51.61,-2.73,1.36,1
3422,51.62,-6.74,-0.54,1
3423,51.64,-1.02,8.13,1
3424,51.65,6.78,11.68,1
3425,51.66,2.85,-4.34,1
3426,51.68,-8.77,-15.9,1
3427,51.69,-4.18,-2.81,1
3428,51.7,13.0,16.46,1
3429,51.72,11.7,20.78,1
3430,51.73,-1.78,15.84,1
3431,51.74,-0.65,19.76,1
3432,51.76,3.72,33.59,1
3433,51.77,-6.63,38.46,1
3434,51.79,-16.1,29.45,1
3435,51.8,-8.44,22.82,1
3436,51.81,4.41,22.6,1
3437,51.83,5.67,20.22,1
3438,51.84,-1.33,19.68,1
3439,51.85,-5.31,21.89,1
3440,51.87,-4.15,17.77,1
3441,51.88,-1.59,8.54,1
3442,51.89,0.9,1.91,1
3443,51.9,1.43,2.22,1
3444,51.92,-2.61,8.23,1
3445,51.93,-1.91,12.72,1
3446,51.95,15.63,16.81,1
3447,51.96,30.31,25.0,1
3448,51.97,15.65,27.32,1
3449,51.99,-11.68,19.19,1
3450,52.0,-16.96,14.89,1
3451,52.01,1.35,22.33,1
3452,52.03,9.1,32.84,1
3453,52.04,-7.82,34.06,1
3454,52.05,-18.2,22.91,1
3455,52.06,-16.69,12.31,1
3456,52.08,-30.46,15.36,1
3457,52.09,-36.94,26.04,1
3458,52.11,-8.62,26.47,1
3459,52.12,13.63,13.4,1
3460,52.13,3.67,5.71,1
3461,52.15,-8.46,12.02,1
3462,52.16,-7.83,19.81,2
3463,52.17,-5.77,22.02,2
3464,52.19,-13.17,19.86,2
3465,52.2,-21.66,13.27,2
3466,52.21,-9.82,7.89,2
3467,52.22,6.43,16.73,2
3468,52.24,3.44,60.01,2
3469,52.25,2.01,152.67,2
3470,52.26,13.25,258.07,2
3471,52.28,17.17,304.23,2
3472,52.29,7.7,286.88,2
3473,52.3,-3.21,259.93,2
3474,52.32,-10.72,227.01,2
3475,52.33,-22.73,166.42,2
3476,52.34,-34.33,95.15,2
3477,52.36,-27.33,29.8,2
3478,52.37,-13.59,-30.9,2
3479,52.38,-18.88,-82.04,2
3480,52.4,-27.46,-123.96,2
3481,52.41,-15.71,-166.22,2
3482,52.425,-5.29,-200.31,2
3483,52.44,-14.64,-209.18,2
3484,52.45,-18.5,-200.89,2
3485,52.47,-0.55,-194.13,2
3486,52.48,20.5,-193.23,2
3487,52.49,30.28,-189.75,2
3488,52.51,30.59,-172.26,2
3489,52.52,22.33,-146.59,2
3490,52.53,8.0,-129.93,2
3491,52.54,2.26,-115.83,2
3492,52.56,16.93,-93.78,1
3493,52.57,35.13,-84.67,1
3494,52.59,26.21,-99.32,1
3495,52.6,-3.83,-107.04,1
3496,52.61,-15.19,-87.77,1
3497,52.63,3.01,-60.53,1
3498,52.64,20.37,-47.46,1
3499,52.65,18.04,-50.64,1
3500,52.67,11.12,-54.74,1
3501,52.68,14.27,-44.14,1
3502,52.69,18.17,-25.54,1
3503,52.71,12.07,-15.68,1
3504,52.72,4.82,-16.76,1
3505,52.73,8.45,-20.68,1
3506,52.75,14.48,-20.63,1
3507,52.76,10.59,-11.32,1
3508,52.77,6.7,4.21,1
3509,52.79,8.69,13.23,1
3510,52.8,8.77,11.24,1
3511,52.81,8.21,7.06,1
3512,52.83,2.87,4.94,1
3513,52.84,-8.17,8.47,1
3514,52.85,-5.37,22.22,1
3515,52.87,9.66,33.39,1
3516,52.88,12.61,30.97,1
3517,52.89,0.97,28.63,1
3518,52.9,-10.56,36.74,1
3519,52.92,-12.73,42.77,1
3520,52.93,-8.47,36.41,1
3521,52.94,-8.83,28.52,1
3522,52.96,-12.97,28.92,1
3523,52.97,-5.03,28.36,1
3524,52.98,10.46,26.47,1
3525,53.0,8.52,38.07,1
3526,53.01,-6.09,57.78,1
3527,53.02,-7.81,65.85,1
3528,53.04,-0.27,57.71,1
3529,53.05,-3.06,45.65,1
3530,53.06,-11.45,38.67,1
3531,53.08,-9.65,35.39,1
3532,53.09,-1.01,40.88,1
3533,53.11,0.27,55.31,1
3534,53.12,-9.21,58.45,1
3535,53.13,-21.04,46.55,1
3536,53.15,-24.32,40.87,1
3537,53.16,-14.04,49.33,1
3538,53.17,-0.9,58.94,1
3539,53.19,0.96,54.74,1
3540,53.2,-3.48,38.36,1
3541,53.21,-1.13,25.07,1
3542,53.22,6.72,19.43,1
3543,53.24,9.5,19.8,1
3544,53.25,4.71,25.66,1
3545,53.27,-2.38,30.47,1
3546,53.28,-9.46,32.75,1
3547,53.29,-15.19,33.46,1
3548,53.31,-12.4,28.06,1
3549,53.32,-0.05,19.74,1
3550,53.33,9.27,16.52,1
3551,53.35,6.72,15.34,1
3552,53.36,-3.02,13.1,1
3553,53.37,-10.17,13.7,1
3554,53.38,-6.17,15.09,1
3555,53.4,6.53,14.04,1
3556,53.41,10.01,14.5,1
3557,53.43,-5.32,15.54,1
3558,53.44,-19.58,9.87,1
3559,53.45,-15.74,0.04,1
3560,53.47,-6.86,4.57,1
3561,53.48,-4.65,29.09,1
3562,53.49,-3.0,39.61,1
3563,53.51,0.38,15.05,1
3564,53.52,-0.37,-7.09,1
3565,53.53,-2.91,0.52,1
3566,53.54,3.26,8.15,1
3567,53.56,16.14,-2.28,1
3568,53.57,20.5,-6.61,1
3569,53.58,11.1,4.36,1
3570,53.6,1.34,6.96,1
3571,53.61,1.26,-6.91,1
3572,53.62,-0.73,-15.43,1
3573,53.64,-11.88,-6.76,1
3574,53.65,-16.66,4.21,1
3575,53.66,-7.21,4.03,1
3576,53.68,1.4,-2.24,1
3577,53.69,2.88,-4.1,1
3578,53.7,11.49,0.98,1
3579,53.72,23.03,1.9,1
3580,53.73,16.09,-14.55,1
3581,53.75,-0.73,-34.63,1
3582,53.76,-6.85,-31.19,1
3583,53.77,-7.05,-10.55,1
3584,53.79,-6.17,-1.99,1
3585,53.8,0.54,-10.01,1
3586,53.81,8.45,-14.92,1
3587,53.83,10.73,-9.58,1
3588,53.84,5.92,-4.34,1
3589,53.85,-4.35,-3.9,1
3590,53.87,-11.42,-4.66,1
3591,53.88,-9.32,-8.73,1
3592,53.89,-3.57,-21.12,1
3593,53.9,-0.44,-30.51,1
3594,53.92,-2.71,-20.4,1
3595,53.93,-9.47,-4.66,1
3596,53.95,-10.32,-7.58,1
3597,53.96,-0.65,-18.96,1
3598,53.97,6.56,-17.4,1
3599,53.99,3.16,-8.03,1
3600,54.0,-1.01,-8.32,1
3601,54.01,-1.14,-20.93,1
3602,54.03,-4.93,-28.52,1
3603,54.04,-10.72,-18.9,1
3604,54.05,-4.74,-8.5,1
3605,54.06,6.77,-13.65,1
3606,54.08,-0.11,-23.44,1
3607,54.09,-19.21,-25.61,1
3608,54.11,-19.83,-20.0,1
3609,54.12,-1.35,-9.66,1
3610,54.13,8.68,-7.59,1
3611,54.15,4.08,-24.26,1
3612,54.16,3.11,-40.62,2
3613,54.17,8.23,-23.5,2
3614,54.18,7.3,35.57,2
3615,54.2,6.14,111.11,2
3616,54.21,15.16,156.07,2
3617,54.22,27.0,111.45,2
3618,54.24,27.87,-22.97,2
3619,54.25,27.89,-74.59,2
3620,54.26,51.57,79.93,2
3621,54.28,61.75,161.88,2
3622,54.29,13.13,-62.18,2
3623,54.3,-24.18,-209.13,2
3624,54.32,-7.2,5.72,2
3625,54.33,-14.95,162.73,2
3626,54.34,-52.75,8.26,2
3627,54.36,-45.3,-109.08,2
3628,54.37,-9.22,28.75,2
3629,54.38,-2.45,178.36,2
3630,54.4,-10.0,99.51,2
3631,54.41,-0.25,-48.51,2
3632,54.43,13.28,-59.4,2
3633,54.44,6.42,-43.1,2
3634,54.45,-8.8,-105.94,2
3635,54.47,-6.53,-175.49,2
3636,54.48,-9.77,-147.82,2
3637,54.49,-34.29,-17.17,2
3638,54.51,-35.09,38.72,2
3639,54.52,-4.84,-50.86,2
3640,54.53,11.74,-94.88,2
3641,54.54,3.86,-48.27,2
3642,54.56,-3.45,-86.78,1
3643,54.57,7.97,-190.34,1
3644,54.59,22.72,-155.54,1
3645,54.6,22.82,-11.85,1
3646,54.61,20.72,24.15,1
3647,54.63,22.21,-60.13,1
3648,54.64,20.65,-104.35,1
3649,54.65,29.97,-68.84,1
3650,54.67,49.58,-22.2,1
3651,54.68,39.63,1.01,1
3652,54.69,3.07,-1.86,1
3653,54.71,-19.75,-18.05,1
3654,54.72,-33.05,-41.78,1
3655,54.73,-34.48,-61.23,1
3656,54.75,-7.0,-34.64,1
3657,54.76,9.41,-2.3,1
3658,54.77,-9.58,-37.14,1
3659,54.79,-20.0,-54.97,1
3660,54.8,-5.82,25.68,1
3661,54.81,1.94,87.39,1
3662,54.82,0.39,39.64,1
3663,54.84,3.98,-25.91,1
3664,54.85,-0.01,-31.86,1
3665,54.86,-15.75,-8.02,1
3666,54.88,-23.11,8.08,1
3667,54.89,-17.95,18.98,1
3668,54.9,-12.46,34.73,1
3669,54.92,-5.82,42.63,1
3670,54.93,7.18,37.27,1
3671,54.94,10.62,34.29,1
3672,54.96,-5.26,47.63,1
3673,54.97,-10.23,71.53,1
3674,54.98,19.9,62.52,1
3675,55.0,52.4,12.98,1
3676,55.01,42.57,5.07,1
3677,55.025000000000006,8.8,54.3,1
3678,55.04,-7.64,67.01,1
3679,55.05,-8.81,25.44,1
3680,55.06,-1.5,1.44,1
3681,55.08,8.25,27.52,1
3682,55.09,-0.88,61.44,1
3683,55.11,-17.86,48.55,1
3684,55.12,-17.53,-1.96,1
3685,55.13,-6.94,-41.73,1
3686,55.15,2.1,-43.24,1
3687,55.16,4.35,-17.19,1
3688,55.17,-0.47,18.68,1
3689,55.19,0.23,63.98,1
3690,55.2,4.85,84.88,1
3691,55.21,1.66,58.86,1
3692,55.22,-3.88,22.79,1
3693,55.24,-9.3,-1.5,1
3694,55.25,-10.84,10.9,1
3695,55.27,0.49,61.02,1
3696,55.28,5.0,71.56,1
3697,55.29,-15.64,26.69,1
3698,55.31,-32.86,4.55,1
3699,55.32,-19.06,24.8,1
3700,55.33,-1.84,30.82,1
3701,55.35,-7.52,4.57,1
3702,55.36,-10.32,-13.06,1
3703,55.37,4.64,-5.73,1
3704,55.38,12.28,7.2,1
3705,55.4,0.99,15.5,1
3706,55.41,-10.69,21.93,1
3707,55.43,-2.14,29.31,1
3708,55.44,19.87,22.79,1
3709,55.45,25.24,-21.73,1
3710,55.46,3.86,-51.91,1
3711,55.48,-19.65,1.8,1
3712,55.49,-24.06,63.27,1
3713,55.5,-19.23,39.15,1
3714,55.52,-20.05,-17.74,1
3715,55.53,-14.81,-28.16,1
3716,55.54,0.43,6.41,1
3717,55.56,0.5,28.41,1
3718,55.57,-11.27,-3.16,1
3719,55.58,-2.93,-37.66,1
3720,55.6,17.15,-3.57,1
3721,55.61,12.3,55.79,1
3722,55.62,-12.92,46.96,1
3723,55.64,-21.72,-4.53,1
3724,55.65,-11.56,-15.66,1
3725,55.66,-0.34,2.0,1
3726,55.68,15.91,13.57,1
3727,55.69,31.13,34.96,1
3728,55.71,28.24,62.72,1
3729,55.72,23.04,66.21,1
3730,55.73,27.47,30.98,1
3731,55.75,19.83,-29.82,1
3732,55.76,3.02,-61.65,1
3733,55.77,-0.12,-20.76,1
3734,55.79,-3.55,27.38,1
3735,55.8,-22.36,1.06,1
3736,55.81,-26.31,-44.03,1
3737,55.83,-3.09,-20.08,1
3738,55.84,7.62,23.53,1
3739,55.85,-2.84,-14.54,1
3740,55.87,-3.71,-83.42,1
3741,55.88,-0.18,-47.23,1
3742,55.89,-10.32,39.71,1
3743,55.9,-17.38,22.45,1
3744,55.92,-4.88,-33.42,1
3745,55.93,15.74,3.3,1
3746,55.95,20.58,48.39,1
3747,55.96,7.39,14.35,1
3748,55.97,0.47,-14.44,1
3749,55.99,4.95,12.92,1
3750,56.0,1.59,44.26,1
3751,56.01,-13.07,53.22,1
3752,56.03,-12.89,36.0,1
3753,56.04,15.13,-11.88,1
3754,56.05,34.1,-40.3,1
3755,56.06,14.93,-13.32,1
3756,56.08,-23.11,3.56,1
3757,56.09,-46.51,-29.53,1
3758,56.1,-26.33,-44.24,1
3759,56.12,15.77,-7.9,1
3760,56.13,23.47,19.48,1
3761,56.14,-0.33,1.41,1
3762,56.16,-18.53,-25.22,0
3763,56.17,-13.79,-21.28,0
3764,56.18,6.48,-2.54,0
3765,56.2,8.91,-4.47,0
3766,56.21,-2.79,-14.93,0
3767,56.22,8.89,-1.35,0
3768,56.24,29.24,16.81,0
3769,56.25,25.2,12.86,0
3770,56.26,17.16,7.28,0
3771,56.28,31.93,13.74,0
3772,56.29,34.68,6.33,0
3773,56.3,-8.6,-35.28,0
3774,56.32,-49.39,-91.12,0
3775,56.33,-45.84,-143.08,0
3776,56.35,-33.84,-198.73,0
3777,56.36,-30.88,-238.36,0
3778,56.37,-10.66,-231.01,0
3779,56.38,16.57,-192.17,0
3780,56.4,20.28,-145.5,0
3781,56.41,14.88,-88.2,0
3782,56.43,24.62,-25.31,0
3783,56.44,34.11,21.76,0
3784,56.45,26.09,47.32,0
3785,56.47,10.83,66.32,0
3786,56.48,1.47,84.53,0
3787,56.49,0.25,91.09,0
3788,56.51,5.43,83.98,0
3789,56.52,12.07,79.59,0
3790,56.53,11.34,86.25,0
3791,56.54,5.99,91.12,0
3792,56.56,6.51,86.9,1
3793,56.57,7.72,79.85,1
3794,56.59,-2.78,73.01,1
3795,56.6,-18.43,64.27,1
3796,56.61,-19.94,56.35,1
3797,56.63,-7.33,56.96,1
3798,56.64,-1.08,60.51,1
3799,56.65,-5.76,54.43,1
3800,56.67,-5.29,47.2,1
3801,56.68,4.5,55.14,1
3802,56.69,13.67,70.31,1
3803,56.71,14.42,72.45,1
3804,56.72,1.88,60.9,1
3805,56.73,-13.53,48.85,1
3806,56.74,-9.13,41.33,1
3807,56.76,4.94,38.0,1
3808,56.77,-2.0,34.77,1
3809,56.78,-20.63,26.26,1
3810,56.8,-22.16,18.76,1
3811,56.81,-11.25,19.29,1
3812,56.82,-5.35,19.35,1
3813,56.84,-2.71,9.56,1
3814,56.85,1.66,0.42,1
3815,56.86,3.93,4.69,1
3816,56.88,1.74,7.84,1
3817,56.89,-2.88,-4.19,1
3818,56.9,-8.01,-15.42,1
3819,56.92,-12.31,-13.02,1
3820,56.93,-11.05,-3.92,1
3821,56.94,-3.66,5.62,1
3822,56.96,2.48,7.26,1
3823,56.97,6.5,-11.21,1
3824,56.99,10.22,-36.49,1
3825,57.0,5.71,-40.82,1
3826,57.01,-8.91,-26.19,1
3827,57.03,-17.29,-15.61,1
3828,57.04,-7.89,-16.38,1
3829,57.05,6.43,-19.81,1
3830,57.06,6.37,-23.51,1
3831,57.08,-4.05,-28.63,1
3832,57.09,-4.52,-28.27,1
3833,57.11,3.78,-22.81,1
3834,57.12,2.07,-22.0,1
3835,57.13,-4.87,-26.07,1
3836,57.15,0.22,-27.44,1
3837,57.16,7.35,-19.42,1
3838,57.17,1.3,-6.52,1
3839,57.19,-7.65,-7.08,1
3840,57.2,-8.32,-23.54,1
3841,57.21,-5.92,-30.95,1
3842,57.22,-6.99,-21.45,1
3843,57.24,-7.77,-12.96,1
3844,57.25,-1.91,-9.45,1
3845,57.27,6.17,-6.81,1
3846,57.28,4.91,-10.12,1
3847,57.29,-2.52,-18.78,1
3848,57.31,-2.99,-23.53,1
3849,57.32,0.68,-19.6,1
3850,57.33,1.71,-15.14,1
3851,57.35,3.7,-18.23,1
3852,57.36,4.31,-19.29,1
3853,57.37,-3.23,-11.44,1
3854,57.38,-10.31,-8.35,1
3855,57.4,-6.54,-15.79,1
3856,57.41,0.63,-22.93,1
3857,57.42,4.02,-24.38,1
3858,57.44,8.71,-21.01,1
3859,57.45,12.73,-20.21,1
3860,57.46,8.96,-24.11,1
3861,57.48,1.47,-18.02,1
3862,57.49,-0.45,-6.09,1
3863,57.5,3.5,-10.94,1
3864,57.52,6.64,-23.32,1
3865,57.53,4.05,-17.72,1
3866,57.54,-6.04,-5.33,1
3867,57.56,-13.99,-11.57,1
3868,57.57,-6.55,-27.04,1
3869,57.58,5.08,-25.46,1
3870,57.6,4.1,-10.25,1
3871,57.61,-0.14,-4.79,1
3872,57.63,0.99,-9.12,1
3873,57.64,-0.06,-3.84,1
3874,57.65,2.1,10.37,1
3875,57.67,14.73,13.79,1
3876,57.68,18.54,5.61,1
3877,57.69,1.26,0.04,1
3878,57.71,-11.81,-1.13,1
3879,57.72,-2.58,0.16,1
3880,57.73,5.44,0.43,1
3881,57.75,-7.08,-10.73,1
3882,57.76,-13.46,-23.88,1
3883,57.77,7.45,-17.6,1
3884,57.79,19.51,0.44,1
3885,57.8,-3.89,10.2,1
3886,57.81,-22.81,10.76,1
3887,57.83,-9.12,4.66,1
3888,57.84,2.29,-8.29,1
3889,57.85,-6.93,-16.08,1
3890,57.87,-5.67,-5.67,1
3891,57.88,7.0,12.42,1
3892,57.89,0.02,13.67,1
3893,57.9,-12.87,2.78,1
3894,57.92,1.16,1.37,1
3895,57.93,22.72,3.55,1
3896,57.95,12.93,-2.23,1
3897,57.96,-13.25,-8.05,1
3898,57.97,-11.97,0.09,1
3899,57.99,8.73,20.79,1
3900,58.0,10.59,30.0,1
3901,58.01,1.84,18.4,1
3902,58.02,7.14,5.4,1
3903,58.04,10.2,5.28,1
3904,58.05,-3.51,16.38,1
3905,58.06,-16.85,28.18,1
3906,58.08,-25.22,25.27,1
3907,58.09,-32.51,6.8,1
3908,58.1,-24.33,-7.2,1
3909,58.12,-1.99,-3.69,1
3910,58.13,12.24,8.43,1
3911,58.14,11.63,19.53,1
3912,58.16,8.64,28.0,0
3913,58.17,12.86,18.96,0
3914,58.18,17.36,-38.37,0
3915,58.2,12.89,-120.84,0
3916,58.21,3.33,-137.03,0
3917,58.22,-3.74,-77.92,0
3918,58.24,-9.28,-45.67,0
3919,58.25,-18.98,-70.06,0
3920,58.26,-19.25,-88.43,0
3921,58.28,11.48,-86.26,0
3922,58.29,45.51,-91.72,0
3923,58.31,35.29,-95.52,0
3924,58.32,4.22,-81.58,0
3925,58.33,6.41,-62.71,0
3926,58.35,30.31,-50.34,0
3927,58.36,34.82,-41.9,0
3928,58.37,24.77,-27.61,0
3929,58.38,25.32,1.61,0
3930,58.4,31.84,32.36,0
3931,58.41,25.54,43.35,0
3932,58.43,19.27,45.57,0
3933,58.44,33.78,66.29,0
3934,58.45,42.53,101.52,0
3935,58.47,18.63,128.76,0
3936,58.48,-4.53,143.39,0
3937,58.49,0.08,149.13,0
3938,58.51,0.89,145.31,0
3939,58.52,-19.82,138.44,0
3940,58.53,-33.89,140.17,0
3941,58.54,-28.85,149.31,0
3942,58.56,-22.66,151.46,1
3943,58.57,-23.49,143.54,1
3944,58.59,-21.8,136.72,1
3945,58.6,-18.58,130.68,1
3946,58.61,-26.52,120.9,1
3947,58.63,-39.86,114.75,1
3948,58.64,-38.76,107.66,1
3949,58.65,-27.53,85.64,1
3950,58.66,-26.21,61.95,1
3951,58.68,-30.55,57.54,1
3952,58.69,-25.05,58.63,1
3953,58.7,-18.57,44.42,1
3954,58.72,-21.14,25.41,1
3955,58.73,-18.88,17.57,1
3956,58.74,-7.18,15.97,1
3957,58.76,-7.23,12.09,1
3958,58.77,-22.4,6.59,1
3959,58.78,-22.84,0.37,1
3960,58.8,-2.07,-9.28,1
3961,58.81,6.5,-20.07,1
3962,58.82,-6.45,-25.9,1
3963,58.84,-10.34,-25.0,1
3964,58.85,0.57,-17.98,1
3965,58.86,-2.24,-16.27,1
3966,58.88,-15.33,-30.59,1
3967,58.89,-8.8,-42.41,1
3968,58.9,6.64,-34.39,1
3969,58.92,2.05,-24.79,1
3970,58.93,-8.51,-30.23,1
3971,58.95,-1.18,-42.97,1
3972,58.96,10.08,-54.75,1
3973,58.97,4.77,-60.93,1
3974,58.99,-6.39,-56.22,1
3975,59.0,-7.2,-45.42,1
3976,59.01,-1.25,-43.29,1
3977,59.03,6.08,-55.55,1
3978,59.04,15.3,-67.23,1
3979,59.05,19.65,-61.16,1
3980,59.06,14.14,-45.71,1
3981,59.08,6.06,-40.55,1
3982,59.09,4.12,-44.64,1
3983,59.11,8.92,-48.88,1
3984,59.12,12.34,-55.65,1
3985,59.13,12.48,-62.88,1
3986,59.15,20.56,-60.87,1
3987,59.16,29.04,-53.02,1
3988,59.17,14.53,-54.45,1
3989,59.19,-8.91,-65.41,1
3990,59.2,-7.43,-70.28,1
3991,59.21,9.59,-65.08,1
3992,59.22,4.06,-59.15,1
3993,59.24,-21.93,-52.62,1
3994,59.25,-26.58,-41.75,1
3995,59.27,-1.79,-33.51,1
3996,59.28,15.33,-30.04,1
3997,59.29,9.5,-22.92,1
3998,59.3,3.67,-13.67,1
3999,59.32,7.32,-14.74,1
4000,59.33,8.32,-28.23,1
4001,59.34,9.22,-38.98,1
4002,59.36,17.85,-33.64,1
4003,59.37,22.12,-21.76,1
4004,59.38,14.78,-19.41,1
4005,59.4,10.49,-20.11,1
4006,59.41,16.41,-11.93,1
4007,59.42,17.58,-3.62,1
4008,59.44,9.75,-8.62,1
4009,59.45,11.86,-20.23,1
4010,59.46,22.48,-19.37,1
4011,59.48,17.29,-6.21,1
4012,59.49,4.96,-0.88,1
4013,59.5,9.71,-5.49,1
4014,59.52,18.55,-5.7,1
4015,59.53,13.37,-2.83,1
4016,59.54,6.89,-7.14,1
4017,59.56,8.31,-15.0,1
4018,59.57,4.61,-18.44,1
4019,59.59,-8.17,-18.43,1
4020,59.6,-14.52,-11.33,1
4021,59.61,-5.98,4.12,1
4022,59.63,2.02,10.07,1
4023,59.64,-5.17,-0.88,1
4024,59.65,-13.19,-9.1,1
4025,59.67,-8.97,-3.96,1
4026,59.68,-4.18,2.4,1
4027,59.69,-3.5,3.92,1
4028,59.71,1.3,8.71,1
4029,59.72,5.13,14.98,1
4030,59.73,1.62,14.84,1
4031,59.75,2.05,14.53,1
4032,59.76,9.47,18.02,1
4033,59.77,7.89,20.76,1
4034,59.79,-4.21,24.09,1
4035,59.8,-7.75,23.27,1
4036,59.81,0.34,12.87,1
4037,59.83,1.55,5.68,1
4038,59.84,-4.72,11.61,1
4039,59.85,0.22,20.65,1
4040,59.87,9.94,21.79,1
4041,59.88,3.72,14.56,1
4042,59.89,-8.48,7.25,1
4043,59.9,-7.28,11.11,1
4044,59.92,-0.61,21.15,1
4045,59.93,-5.89,20.79,1
4046,59.94,-19.22,12.21,1
4047,59.96,-17.54,13.09,1
4048,59.97,1.05,22.14,1
4049,59.98,6.76,24.0,1
4050,60.0,-6.15,22.04,1
4051,60.01,-11.72,25.42,1
4052,60.02,-6.98,25.21,1
4053,60.04,-6.99,18.05,1
4054,60.05,-8.21,18.59,1
4055,60.06,-8.63,28.07,1
4056,60.08,-21.14,28.78,1
4057,60.09,-36.86,18.39,1
4058,60.1,-27.75,12.78,1
4059,60.12,0.81,13.76,1
4060,60.13,16.34,11.06,1
4061,60.14,12.75,8.42,1
4062,60.16,6.74,13.82,2
4063,60.17,10.65,23.4,2
4064,60.18,20.36,28.5,2
4065,60.2,12.86,24.76,2
4066,60.21,-6.71,14.87,2
4067,60.22,-5.6,4.2,2
4068,60.24,4.13,-3.09,2
4069,60.25,-2.13,-1.84,2
4070,60.27,-1.19,5.91,2
4071,60.28,25.13,11.57,2
4072,60.29,47.16,14.84,2
4073,60.31,38.18,29.56,2
4074,60.32,15.6,79.92,2
4075,60.33,0.65,168.57,2
4076,60.35,-9.09,252.02,2
4077,60.36,-15.39,287.72,2
4078,60.37,-17.0,277.7,2
4079,60.38,-17.73,244.25,2
4080,60.4,-20.05,200.53,2
4081,60.41,-24.27,149.48,2
4082,60.43,-27.44,90.55,2
4083,60.44,-29.97,26.21,2
4084,60.45,-32.49,-31.52,2
4085,60.47,-25.31,-74.83,2
4086,60.48,-12.81,-116.06,2
4087,60.49,-18.61,-166.41,2
4088,60.51,-34.14,-209.55,2
4089,60.52,-28.25,-221.54,2
4090,60.53,-10.75,-206.77,2
4091,60.54,-3.98,-188.09,2
4092,60.56,0.74,-172.25,1
4093,60.57,6.54,-158.38,1
4094,60.58,6.95,-150.37,1
4095,60.6,11.82,-145.44,1
4096,60.61,20.51,-137.94,1
4097,60.62,15.37,-127.68,1
4098,60.64,0.39,-118.2,1
4099,60.65,-0.66,-107.3,1
4100,60.66,14.29,-85.3,1
4101,60.68,23.25,-60.45,1
4102,60.69,16.16,-57.57,1
4103,60.7,3.28,-75.74,1
4104,60.72,-6.43,-87.41,1
4105,60.73,-4.27,-77.22,1
4106,60.74,12.31,-55.81,1
4107,60.76,22.35,-42.95,1
4108,60.77,15.14,-41.69,1
4109,60.78,9.94,-35.75,1
4110,60.8,11.69,-19.64,1
4111,60.81,7.31,-5.43,1
4112,60.82,2.39,1.29,1
4113,60.84,4.43,5.78,1
4114,60.85,1.65,9.42,1
4115,60.865,-8.55,6.97,1
4116,60.88,-9.51,-0.44,1
4117,60.89,-1.24,0.99,1
4118,60.9,-3.47,17.97,1
4119,60.92,-14.31,36.28,1
4120,60.93,-14.58,41.62,1
4121,60.95,-5.29,38.16,1
4122,60.96,-0.61,32.58,1
4123,60.97,-2.64,27.11,1
4124,60.99,-1.16,27.27,1
4125,61.0,6.12,30.19,1
4126,61.01,7.91,31.3,1
4127,61.03,0.67,38.83,1
4128,61.04,-6.04,49.47,1
4129,61.05,-6.79,47.22,1
4130,61.06,-1.53,37.06,1
4131,61.08,3.42,40.92,1
4132,61.09,-3.02,58.5,1
4133,61.11,-11.81,63.25,1
4134,61.12,-3.15,47.56,1
4135,61.13,9.24,38.74,1
4136,61.15,4.99,47.33,1
4137,61.16,0.3,52.18,1
4138,61.17,8.78,48.09,1
4139,61.19,13.23,46.36,1
4140,61.2,4.69,44.32,1
4141,61.21,-5.54,40.46,1
4142,61.22,-8.29,39.67,1
4143,61.24,-3.7,37.18,1
4144,61.25,-0.36,30.02,1
4145,61.26,-4.25,27.55,1
4146,61.28,-3.54,32.74,1
4147,61.29,6.15,39.02,1
4148,61.3,9.22,43.2,1
4149,61.32,4.03,42.14,1
4150,61.33,5.92,33.14,1
4151,61.34,15.47,24.6,1
4152,61.36,20.76,25.54,1
4153,61.37,17.19,31.83,1
4154,61.38,10.08,33.76,1
4155,61.4,6.44,21.81,1
4156,61.41,3.29,0.76,1
4157,61.42,-3.65,-2.21,1
4158,61.44,-6.03,17.0,1
4159,61.45,0.21,25.23,1
4160,61.46,4.07,16.28,1
4161,61.48,-1.45,16.82,1
4162,61.49,-7.57,25.51,1
4163,61.5,-3.78,23.02,1
4164,61.52,3.21,15.71,1
4165,61.53,-0.95,12.29,1
4166,61.54,-13.54,9.08,1
4167,61.56,-19.57,8.45,1
4168,61.57,-11.25,12.36,1
4169,61.59,3.76,13.37,1
4170,61.6,9.91,10.21,1
4171,61.61,3.75,7.34,1
4172,61.63,-0.91,10.49,1
4173,61.64,-0.36,21.46,1
4174,61.65,-0.11,24.05,1
4175,61.67,6.75,6.15,1
4176,61.68,16.43,-12.65,1
4177,61.69,6.94,-15.01,1
4178,61.71,-12.4,-13.61,1
4179,61.72,-13.13,-17.11,1
4180,61.73,0.69,-15.53,1
4181,61.75,11.06,-9.7,1
4182,61.76,10.58,-10.74,1
4183,61.77,-1.08,-18.64,1
4184,61.79,-12.48,-24.76,1
4185,61.8,-11.13,-24.03,1
4186,61.81,-5.68,-19.34,1
4187,61.83,-6.92,-16.52,1
4188,61.84,-6.2,-11.68,1
4189,61.85,2.91,-6.51,1
4190,61.86,11.18,-11.79,1
4191,61.88,8.83,-16.49,1
4192,61.89,-2.68,-8.95,1
4193,61.9,-8.27,-7.41,1
4194,61.92,-1.24,-20.31,1
4195,61.93,1.51,-27.37,1
4196,61.94,-4.35,-19.23,1
4197,61.96,-1.03,-12.87,1
4198,61.97,8.88,-19.43,1
4199,61.98,0.91,-26.26,1
4200,62.0,-18.72,-21.58,1
4201,62.01,-14.25,-12.91,1
4202,62.02,9.23,-9.39,1
4203,62.04,9.89,-12.46,1
4204,62.05,-5.75,-20.61,1
4205,62.06,-0.61,-25.09,1
4206,62.08,10.15,-17.21,1
4207,62.09,-6.81,-6.35,1
4208,62.1,-28.99,-8.94,1
4209,62.12,-16.41,-21.4,1
4210,62.13,14.41,-25.5,1
4211,62.14,17.76,-18.59,1
4212,62.16,-1.84,-17.2,2
4213,62.17,-8.33,-25.86,2
4214,62.19,-3.11,-20.71,2
4215,62.2,0.67,9.89,2
4216,62.21,6.99,23.15,2
4217,62.22,8.8,-20.09,2
4218,62.24,2.1,-59.79,2
4219,62.25,1.06,-25.29,2
4220,62.27,17.65,30.79,2
4221,62.28,56.64,88.88,2
4222,62.29,94.15,189.69,2
4223,62.31,79.37,217.48,2
4224,62.32,18.41,123.85,2
4225,62.33,-21.75,81.07,2
4226,62.35,-28.38,97.11,2
4227,62.36,-34.77,53.3,2
4228,62.37,-35.02,20.33,2
4229,62.38,-21.36,34.03,2
4230,62.4,-19.33,-4.68,2
4231,62.41,-31.64,-52.15,2
4232,62.43,-25.58,-39.9,2
4233,62.44,11.65,-49.59,2
4234,62.45,50.4,-84.77,2
4235,62.47,50.57,-56.97,2
4236,62.48,15.48,-10.3,2
4237,62.49,-8.67,-29.27,2
4238,62.5,-10.23,-85.85,2
4239,62.52,-15.92,-133.7,2
4240,62.53,-21.05,-154.13,2
4241,62.54,-15.06,-135.7,2
4242,62.56,-13.06,-113.5,1
4243,62.57,-11.86,-123.63,1
4244,62.58,-4.48,-132.54,1
4245,62.6,-11.32,-105.89,1
4246,62.61,-32.43,-79.4,1
4247,62.62,-39.03,-72.21,1
4248,62.64,-29.63,-51.83,1
4249,62.65,-20.35,-20.21,1
4250,62.66,-3.75,-10.05,1
4251,62.68,16.22,-31.4,1
4252,62.69,4.79,-43.58,1
4253,62.7,-34.22,-2.64,1
4254,62.72,-46.3,43.44,1
4255,62.73,-16.04,29.01,1
4256,62.74,2.37,-18.29,1
4257,62.76,-13.31,-48.85,1
4258,62.77,-14.71,-54.63,1
4259,62.78,8.58,-18.34,1
4260,62.8,12.3,43.04,1
4261,62.81,1.36,32.7,1
4262,62.825,9.21,-50.4,1
4263,62.84,18.09,-70.62,1
4264,62.85,2.7,10.4,1
4265,62.87,-14.47,76.58,1
4266,62.88,-10.03,35.4,1
4267,62.89,1.07,-43.79,1
4268,62.9,7.11,-30.38,1
4269,62.92,16.27,22.42,1
4270,62.93,28.92,-7.28,1
4271,62.95,27.9,-44.19,1
4272,62.96,-2.65,-5.94,1
4273,62.97,-25.88,27.98,1
4274,62.99,2.15,18.66,1
4275,63.0,35.87,9.37,1
4276,63.01,19.81,-0.27,1
4277,63.03,-9.32,-11.06,1
4278,63.04,-2.54,-7.52,1
4279,63.05,18.79,-10.87,1
4280,63.06,16.61,-15.09,1
4281,63.08,0.57,0.6,1
4282,63.09,4.52,13.99,1
4283,63.11,24.65,25.19,1
4284,63.12,18.81,49.79,1
4285,63.13,-13.2,65.27,1
4286,63.14,-20.98,55.97,1
4287,63.16,-2.12,45.32,1
4288,63.17,6.58,51.83,1
4289,63.18,6.63,54.9,1
4290,63.2,8.28,33.08,1
4291,63.21,9.0,8.85,1
4292,63.22,13.4,13.34,1
4293,63.24,12.73,31.52,1
4294,63.25,-1.35,22.05,1
4295,63.26,-8.61,-6.41,1
4296,63.28,-2.7,-7.49,1
4297,63.29,0.69,11.25,1
4298,63.3,2.22,27.21,1
4299,63.32,5.2,47.52,1
4300,63.33,4.52,52.3,1
4301,63.34,3.79,39.94,1
4302,63.36,2.64,46.89,1
4303,63.37,-5.11,62.17,1
4304,63.38,-9.2,47.25,1
4305,63.4,3.66,19.23,1
4306,63.41,19.19,27.1,1
4307,63.42,17.45,59.71,1
4308,63.44,7.14,61.32,1
4309,63.45,1.98,34.95,1
4310,63.46,-4.4,18.49,1
4311,63.48,-15.33,9.44,1
4312,63.49,-11.89,9.87,1
4313,63.51,12.02,37.7,1
4314,63.52,19.9,55.87,1
4315,63.53,-8.41,30.35,1
4316,63.54,-30.08,4.4,1
4317,63.56,-13.94,9.9,1
4318,63.57,7.54,15.74,1
4319,63.59,2.44,-7.22,1
4320,63.6,-10.38,-38.08,1
4321,63.61,-3.01,-35.37,1
4322,63.63,6.48,-7.25,1
4323,63.64,-5.76,1.97,1
4324,63.65,-16.47,-2.48,1
4325,63.67,-15.41,16.27,1
4326,63.68,-19.73,40.96,1
4327,63.69,-15.44,35.25,1
4328,63.71,3.64,15.47,1
4329,63.72,1.26,16.17,1
4330,63.73,-20.27,30.7,1
4331,63.75,-12.29,23.58,1
4332,63.76,21.09,-3.34,1
4333,63.77,32.16,-12.08,1
4334,63.78,17.99,5.84,1
4335,63.8,12.04,19.98,1
4336,63.81,19.65,11.19,1
4337,63.82,15.31,-0.42,1
4338,63.84,-7.86,10.39,1
4339,63.85,-20.43,26.86,1
4340,63.86,-6.99,25.36,1
4341,63.88,2.27,20.43,1
4342,63.89,-10.98,11.37,1
4343,63.9,-11.74,-22.5,1
4344,63.92,12.27,-49.39,1
4345,63.93,11.67,-34.86,1
4346,63.94,-24.18,-6.88,1
4347,63.96,-37.57,6.88,1
4348,63.97,-11.52,5.65,1
4349,63.98,11.59,-0.46,1
4350,64.0,13.7,4.8,1
4351,64.01,6.97,12.15,1
4352,64.02,-2.98,14.99,1
4353,64.04,-8.02,25.92,1
4354,64.05,-3.61,24.08,1
4355,64.06,-1.96,-2.77,1
4356,64.08,-9.82,-10.26,1
4357,64.09,-23.86,16.75,1
4358,64.1,-29.8,28.87,1
4359,64.12,-11.14,8.12,1
4360,64.13,11.1,-14.59,1
4361,64.14,12.26,-28.33,1
4362,64.16,12.55,-32.2,0
4363,64.17,24.41,-17.92,0
4364,64.18,23.73,4.14,0
4365,64.2,-3.78,18.49,0
4366,64.21,-31.0,-3.33,0
4367,64.22,-22.3,-69.28,0
4368,64.24,7.86,-103.59,0
4369,64.25,19.23,-64.82,0
4370,64.26,18.85,-29.03,0
4371,64.28,33.6,-48.48,0
4372,64.29,47.13,-89.44,0
4373,64.3,32.93,-124.67,0
4374,64.32,3.46,-158.16,0
4375,64.33,-16.17,-176.01,0
4376,64.34,-18.02,-154.63,0
4377,64.36,-7.31,-102.44,0
4378,64.37,-0.95,-49.26,0
4379,64.38,-7.41,-13.06,0
4380,64.4,-8.69,10.25,0
4381,64.41,5.87,33.75,0
4382,64.42,17.13,52.57,0
4383,64.44,7.04,59.7,0
4384,64.45,-13.15,69.34,0
4385,64.46,-22.14,78.89,0
4386,64.48,-21.26,69.9,0
4387,64.49,-19.39,57.7,0
4388,64.5,-12.99,60.78,0
4389,64.52,-1.2,60.08,0
4390,64.53,3.17,48.28,0
4391,64.54,-3.56,47.22,0
4392,64.56,-4.62,56.6,1
4393,64.57,5.02,55.27,1
4394,64.58,7.54,45.35,1
4395,64.6,-0.71,43.75,1
4396,64.61,-2.87,44.42,1
4397,64.62,3.52,35.08,1
4398,64.64,4.86,29.51,1
4399,64.65,0.68,35.45,1
4400,64.66,2.37,37.29,1
4401,64.68,6.89,29.81,1
4402,64.69,2.72,20.63,1
4403,64.7,-3.41,15.31,1
4404,64.72,2.92,13.67,1
4405,64.73,14.13,10.17,1
4406,64.74,13.77,4.86,1
4407,64.76,3.09,0.34,1
4408,64.77,-1.92,-3.94,1
4409,64.79,3.63,-5.74,1
4410,64.8,3.75,-9.11,1
4411,64.81,-9.58,-19.22,1
4412,64.82,-20.07,-22.47,1
4413,64.84,-13.05,-7.44,1
4414,64.85,2.84,9.03,1
4415,64.86,10.96,6.08,1
4416,64.88,9.31,-9.5,1
4417,64.89,7.19,-13.85,1
4418,64.9,6.9,-7.12,1
4419,64.92,7.09,-12.74,1
4420,64.93,8.66,-28.53,1
4421,64.94,4.35,-33.13,1
4422,64.96,-10.49,-28.71,1
4423,64.97,-18.66,-25.07,1
4424,64.98,-7.65,-18.65,1
4425,65.0,5.29,-13.48,1
4426,65.01,3.63,-20.58,1
4427,65.02,-4.1,-33.22,1
4428,65.04,-7.0,-34.88,1
4429,65.05,-4.8,-25.54,1
4430,65.06,-0.97,-17.46,1
4431,65.08,0.94,-16.48,1
4432,65.09,2.91,-20.02,1
4433,65.1,6.28,-20.57,1
4434,65.12,6.5,-16.0,1
4435,65.13,3.59,-14.76,1
4436,65.14,1.6,-17.7,1
4437,65.16,0.57,-17.66,1
4438,65.17,-2.36,-14.63,1
4439,65.18,-5.89,-12.6,1
4440,65.2,-8.45,-17.58,1
4441,65.21,-13.86,-26.18,1
4442,65.22,-16.23,-22.87,1
4443,65.24,-6.76,-9.69,1
4444,65.25,3.38,-7.17,1
4445,65.26,4.95,-19.92,1
4446,65.28,4.09,-24.76,1
4447,65.29,2.99,-10.94,1
4448,65.3,-2.7,-2.97,1
4449,65.32,-9.99,-11.66,1
4450,65.33,-7.35,-15.91,1
4451,65.34,6.34,-6.22,1
4452,65.36,13.29,1.61,1
4453,65.37,4.97,-4.67,1
4454,65.38,-3.01,-15.99,1
4455,65.4,1.08,-19.88,1
4456,65.41,3.54,-14.73,1
4457,65.42500000000001,-6.84,-8.56,1
4458,65.44,-13.54,-9.41,1
4459,65.45,-4.13,-10.78,1
4460,65.46,8.93,-6.35,1
4461,65.48,11.44,-5.46,1
4462,65.49,3.93,-7.95,1
4463,65.5,-2.39,-0.95,1
4464,65.52,0.17,10.3,1
4465,65.53,7.09,9.91,1
4466,65.54,7.22,2.57,1
4467,65.56,0.75,0.51,1
4468,65.57,-2.03,3.69,1
4469,65.58,-4.63,10.41,1
4470,65.6,-12.83,16.28,1
4471,65.61,-13.19,12.9,1
4472,65.62,-1.51,3.51,1
4473,65.64,8.71,-1.36,1
4474,65.65,13.23,-0.23,1
4475,65.66,12.16,3.91,1
4476,65.68,4.15,13.83,1
4477,65.69,-1.36,25.55,1
4478,65.7,2.42,23.79,1
4479,65.72,3.83,11.4,1
4480,65.73,-1.47,7.49,1
4481,65.74,1.03,8.75,1
4482,65.76,10.5,2.52,1
4483,65.77,6.36,-2.16,1
4484,65.78,-9.88,2.29,1
4485,65.8,-14.15,6.46,1
4486,65.81,-3.63,5.52,1
4487,65.82,0.95,4.02,1
4488,65.84,-5.68,4.94,1
4489,65.85,-5.93,9.19,1
4490,65.86,4.89,11.25,1
4491,65.88,8.9,5.62,1
4492,65.89,3.28,-0.72,1
4493,65.9,3.35,0.83,1
4494,65.92,8.11,10.21,1
4495,65.93,4.42,16.68,1
4496,65.94,-5.26,7.51,1
4497,65.96,-6.35,-6.17,1
4498,65.97,1.32,-4.91,1
4499,65.98,1.2,7.52,1
4500,66.0,-7.02,16.39,1
4501,66.01,-6.66,10.73,1
4502,66.02,0.29,-2.91,1
4503,66.04,1.09,-3.54,1
4504,66.05,-2.13,5.67,1
4505,66.06,-2.13,7.81,1
4506,66.08,-3.19,6.27,1
4507,66.09,-17.83,4.72,1
4508,66.11,-36.05,-3.02,1
4509,66.12,-28.78,-9.34,1
4510,66.13,-2.15,-3.19,1
4511,66.14,12.16,9.97,1
4512,66.16,12.65,17.7,0
4513,66.17,16.59,16.7,0
4514,66.18,20.6,1.35,0
4515,66.2,10.9,-44.94,0
4516,66.21,-3.97,-104.31,0
4517,66.22,-6.44,-125.99,0
4518,66.24,3.56,-106.28,0
4519,66.25,14.74,-81.76,0
4520,66.26,21.62,-62.61,0
4521,66.28,38.68,-44.69,0
4522,66.29,74.41,-44.64,0
4523,66.3,93.41,-75.6,0
4524,66.32,69.6,-108.07,0
4525,66.33,38.21,-102.7,0
4526,66.34,31.59,-72.04,0
4527,66.36,31.75,-50.61,0
4528,66.37,15.66,-38.38,0
4529,66.38,-9.97,-18.55,0
4530,66.4,-25.86,11.69,0
4531,66.41,-30.8,40.39,0
4532,66.42,-40.42,57.21,0
4533,66.44,-55.23,69.66,0
4534,66.45,-58.31,90.54,0
4535,66.46,-47.94,117.09,0
4536,66.48,-43.27,133.54,0
4537,66.49,-52.79,136.63,0
4538,66.5,-57.75,142.72,0
4539,66.52,-43.6,154.1,0
4540,66.53,-28.22,153.99,0
4541,66.54,-28.58,147.1,0
4542,66.56,-29.93,151.01,1
4543,66.57,-22.82,157.23,1
4544,66.58,-23.01,146.32,1
4545,66.6,-29.5,122.49,1
4546,66.61,-18.33,106.8,1
4547,66.62,4.84,102.75,1
4548,66.64,8.85,93.78,1
4549,66.65,-3.62,79.54,1
4550,66.66,-5.39,76.03,1
4551,66.68,2.94,73.92,1
4552,66.69,3.32,51.89,1
4553,66.7,-5.19,23.68,1
4554,66.72,-7.97,16.32,1
4555,66.73,6.7,23.12,1
4556,66.75,23.53,19.36,1
4557,66.76,16.68,6.89,1
4558,66.77,0.23,4.5,1
4559,66.79,1.19,8.03,1
4560,66.8,6.59,2.15,1
4561,66.81,3.87,-9.69,1
4562,66.82,6.57,-19.52,1
4563,66.84,14.65,-29.63,1
4564,66.85,12.61,-37.6,1
4565,66.86,1.17,-37.86,1
4566,66.88,-3.26,-37.15,1
4567,66.89,5.76,-40.52,1
4568,66.9,14.37,-38.42,1
4569,66.92,12.26,-30.69,1
4570,66.93,7.37,-34.18,1
4571,66.94,0.87,-53.37,1
4572,66.96,-5.49,-76.12,1
4573,66.97,2.85,-90.45,1
4574,66.98,16.72,-88.63,1
4575,67.0,15.31,-71.57,1
4576,67.01,14.36,-51.96,1
4577,67.02,30.63,-43.5,1
4578,67.04,36.16,-46.08,1
4579,67.05,12.53,-45.69,1
4580,67.06,-11.38,-35.57,1
4581,67.08,-14.5,-27.07,1
4582,67.09,-2.84,-29.17,1
4583,67.1,13.4,-35.36,1
4584,67.12,17.56,-41.21,1
4585,67.13,6.81,-47.83,1
4586,67.14,0.6,-46.41,1
4587,67.16,1.85,-33.87,1
4588,67.17,1.63,-27.89,1
4589,67.18,6.45,-38.33,1
4590,67.2,15.98,-52.45,1
4591,67.21,16.72,-57.69,1
4592,67.22,9.19,-53.62,1
4593,67.24,3.37,-46.49,1
4594,67.25,1.79,-43.11,1
4595,67.26,0.79,-40.9,1
4596,67.28,-3.75,-32.86,1
4597,67.29,-10.86,-28.26,1
4598,67.3,-11.73,-35.84,1
4599,67.32,-0.81,-40.05,1
4600,67.33,10.78,-33.28,1
4601,67.34,11.91,-33.55,1
4602,67.36,9.47,-40.85,1
4603,67.37,6.57,-35.07,1
4604,67.38,-4.95,-25.77,1
4605,67.4,-14.82,-31.24,1
4606,67.41,-6.65,-34.73,1
4607,67.43,5.67,-21.56,1
4608,67.44,3.21,-8.22,1
4609,67.45,-2.48,-7.16,1
4610,67.46,3.53,-10.08,1
4611,67.48,8.05,-9.73,1
4612,67.49,0.47,-10.65,1
4613,67.5,-0.63,-14.35,1
4614,67.52,9.16,-16.25,1
4615,67.53,5.94,-15.4,1
4616,67.54,-9.63,-11.45,1
4617,67.56,-15.52,-9.07,1
4618,67.57,-13.08,-14.34,1
4619,67.58,-11.5,-15.58,1
4620,67.6,-6.54,-5.26,1
4621,67.61,0.81,-0.66,1
4622,67.62,3.4,-4.17,1
4623,67.64,4.15,3.74,1
4624,67.65,6.72,17.17,1
4625,67.66,3.67,14.97,1
4626,67.68,-3.67,4.53,1
4627,67.69,-5.66,4.65,1
4628,67.7,-6.01,12.58,1
4629,67.72,-4.21,18.13,1
4630,67.73,3.31,22.54,1
4631,67.74,3.48,25.59,1
4632,67.76,-5.61,21.23,1
4633,67.77,-8.67,13.3,1
4634,67.78,-3.93,9.98,1
4635,67.8,0.86,9.46,1
4636,67.81,3.63,8.45,1
4637,67.82,1.83,9.99,1
4638,67.84,-3.91,13.1,1
4639,67.85,-5.25,10.12,1
4640,67.86,-0.6,4.96,1
4641,67.88,2.28,10.36,1
4642,67.89,-2.02,24.59,1
4643,67.9,-12.6,32.34,1
4644,67.92,-19.2,22.98,1
4645,67.93,-10.79,6.15,1
4646,67.94,3.13,2.24,1
4647,67.96,1.94,12.19,1
4648,67.97,-9.66,22.78,1
4649,67.98,-9.58,28.48,1
4650,68.0,3.77,26.26,1
4651,68.01,10.48,18.13,1
4652,68.02,0.04,18.69,1
4653,68.04,-12.22,31.16,1
4654,68.05,-9.07,36.67,1
4655,68.06,4.46,24.79,1
4656,68.08,8.76,12.22,1
4657,68.09,-11.68,14.4,1
4658,68.11,-33.57,20.24,1
4659,68.12,-17.83,15.14,1
4660,68.13,11.5,8.11,1
4661,68.14,12.25,13.9,1
4662,68.16,6.24,29.19,2
4663,68.17,16.87,39.57,2
4664,68.18,25.92,34.76,2
4665,68.2,23.34,19.32,2
4666,68.21,12.64,17.65,2
4667,68.22,-2.19,57.39,2
4668,68.24,-8.78,142.8,2
4669,68.25,-2.71,239.79,2
4670,68.26,11.45,304.85,2
4671,68.28,30.85,331.76,2
4672,68.29,42.57,333.2,2
4673,68.3,28.2,305.42,2
4674,68.32,-3.03,242.71,2
4675,68.33,-17.14,147.43,2
4676,68.34,-9.95,28.48,2
4677,68.36,-10.05,-82.09,2
4678,68.37,-19.69,-151.45,2
4679,68.38,-15.13,-192.6,2
4680,68.4,-2.34,-229.37,2
4681,68.41,-5.93,-249.76,2
4682,68.42,-20.88,-246.73,2
4683,68.44,-30.3,-243.63,2
4684,68.45,-34.53,-249.55,2
4685,68.46,-37.76,-246.6,2
4686,68.48,-35.42,-223.09,2
4687,68.49,-21.02,-189.91,2
4688,68.5,-3.38,-161.36,2
4689,68.52,-0.77,-141.21,2
4690,68.53,-7.55,-126.47,2
4691,68.54,-0.3,-111.92,2
4692,68.56,16.2,-96.22,1
4693,68.57,17.63,-82.87,1
4694,68.58,9.34,-77.12,1
4695,68.6,12.22,-80.13,1
4696,68.61,18.52,-77.63,1
4697,68.62,13.34,-59.98,1
4698,68.64,5.08,-41.7,1
4699,68.65,-0.21,-29.19,1
4700,68.66,-13.35,-17.29,1
4701,68.68,-23.02,-16.29,1
4702,68.69,-2.38,-22.86,1
4703,68.7,24.61,-6.93,1
4704,68.72,16.86,24.86,1
4705,68.73,-0.05,30.07,1
4706,68.75,9.01,13.17,1
4707,68.76,23.14,13.07,1
4708,68.77,25.65,26.51,1
4709,68.79,27.01,28.53,1
4710,68.8,25.0,24.31,1
4711,68.81,14.6,30.27,1
4712,68.82,4.65,42.34,1
4713,68.84,-1.0,44.28,1
4714,68.85,-4.5,36.92,1
4715,68.86,0.16,35.32,1
4716,68.88,11.9,42.71,1
4717,68.89,14.84,53.23,1
4718,68.9,6.43,56.12,1
4719,68.92,0.69,43.88,1
4720,68.93,0.13,36.6,1
4721,68.94,-1.5,53.67,1
4722,68.96,-2.24,74.0,1
4723,68.97,1.0,74.91,1
4724,68.98,7.68,64.14,1
4725,69.0,15.04,53.3,1
4726,69.01,12.01,45.58,1
4727,69.02,-3.65,44.67,1
4728,69.04,-9.6,52.21,1
4729,69.05,5.59,58.96,1
4730,69.06,18.82,55.49,1
4731,69.08,9.13,48.06,1
4732,69.09,-11.02,48.56,1
4733,69.1,-17.26,52.02,1
4734,69.12,-4.18,44.75,1
4735,69.13,13.52,32.63,1
4736,69.14,18.09,33.67,1
4737,69.16,5.49,41.93,1
4738,69.17,-11.53,39.05,1
4739,69.18,-19.58,32.03,1
4740,69.2,-18.66,36.17,1
4741,69.21,-18.61,40.78,1
4742,69.22,-21.13,30.99,1
4743,69.24,-14.67,17.16,1
4744,69.25,-0.01,14.17,1
4745,69.26,1.95,19.21,1
4746,69.28,-10.91,26.87,1
4747,69.29,-14.64,32.13,1
4748,69.3,-5.44,26.67,1
4749,69.32,0.98,15.52,1
4750,69.33,2.63,5.43,1
4751,69.34,2.85,-3.89,1
4752,69.36,0.88,0.15,1
4753,69.37,0.61,18.75,1
4754,69.38,0.92,26.88,1
4755,69.4,-6.26,15.95,1
4756,69.41,-15.01,1.96,1
4757,69.43,-10.35,-1.67,1
4758,69.44,0.94,3.16,1
4759,69.45,1.1,3.9,1
4760,69.46,-2.31,-2.64,1
4761,69.48,2.89,-4.79,1
4762,69.49,3.18,-2.64,1
4763,69.5,-5.86,-6.31,1
4764,69.52,-5.09,-7.16,1
4765,69.53,3.36,-0.79,1
4766,69.54,-1.98,-4.43,1
4767,69.56,-12.66,-15.32,1
4768,69.57,-9.71,-11.16,1
4769,69.58,-7.52,1.45,1
4770,69.6,-17.41,-1.67,1
4771,69.61,-16.98,-13.1,1
4772,69.62,-1.49,-6.97,1
4773,69.64,-0.35,8.42,1
4774,69.65,-13.96,5.55,1
4775,69.66,-9.51,-11.53,1
4776,69.68,9.73,-21.81,1
4777,69.69,12.27,-21.21,1
4778,69.7,-1.57,-13.91,1
4779,69.72,-7.46,-3.92,1
4780,69.73,-4.46,0.45,1
4781,69.74,-10.08,-2.16,1
4782,69.76,-14.51,-7.18,1
4783,69.77,2.63,-17.17,1
4784,69.78,20.43,-27.44,1
4785,69.8,12.21,-28.35,1
4786,69.81,-1.85,-26.49,1
4787,69.82,1.03,-26.9,1
4788,69.84,6.07,-27.37,1
4789,69.85,1.32,-34.09,1
4790,69.86,-1.6,-39.35,1
4791,69.88,1.89,-29.58,1
4792,69.89,1.76,-20.42,1
4793,69.9,-6.05,-22.58,1
4794,69.92,-8.55,-19.75,1
4795,69.93,6.8,-9.89,1
4796,69.94,20.41,-10.93,1
4797,69.96,4.88,-21.89,1
4798,69.97,-18.03,-24.85,1
4799,69.98,-10.14,-20.74,1
4800,70.0,12.06,-20.29,1
4801,70.01,10.46,-18.34,1
4802,70.02,-6.2,-9.36,1
4803,70.04,-10.93,-2.94,1
4804,70.05,-8.03,-4.1,1
4805,70.06,-3.77,-5.27,1
4806,70.08,5.55,-5.87,1
4807,70.09,-2.32,-11.41,1
4808,70.11,-29.01,-15.82,1
4809,70.12,-28.62,-13.04,1
4810,70.13,3.09,-12.1,1
4811,70.14,20.86,-18.23,1
4812,70.16,14.36,-27.11,2
4813,70.17,12.31,-36.33,2
4814,70.18,21.65,-37.2,2
4815,70.2,15.82,-15.54,2
4816,70.21,-6.6,11.01,2
4817,70.22,-12.18,-12.37,2
4818,70.24,7.82,-64.63,2
4819,70.25,27.25,-34.99,2
4820,70.26,29.79,95.37,2
4821,70.28,32.95,236.59,2
4822,70.29,57.2,286.67,2
4823,70.3,73.01,218.52,2
4824,70.32,38.28,148.26,2
4825,70.33,-8.39,136.5,2
4826,70.34,-15.5,95.51,2
4827,70.36,-10.95,10.59,2
4828,70.37,-23.4,-45.57,2
4829,70.38,-33.67,-47.58,2
4830,70.4,-25.26,-0.0,2
4831,70.41,-14.12,47.2,2
4832,70.42,-21.68,4.91,2
4833,70.44,-29.68,-95.5,2
4834,70.45,-9.05,-110.6,2
4835,70.46,11.63,-52.57,2
4836,70.48,-8.73,-92.17,2
4837,70.49,-28.63,-197.62,2
4838,70.5,-4.97,-183.67,2
4839,70.52,11.83,-84.14,2
4840,70.53,-1.86,-57.67,2
4841,70.54,-1.68,-105.26,2
4842,70.56,1.93,-114.58,1
