,Timestamp,Data1,Data2,Label
0,6.0,-3.24,14.82,1
1,6.01,3.42,6.03,1
2,6.03,-9.61,-15.13,1
3,6.04,-30.66,-13.4,1
4,6.05,-24.82,6.99,1
5,6.07,-0.43,12.05,1
6,6.08,9.77,2.44,1
7,6.09,5.9,0.31,1
8,6.11,9.1,3.93,1
9,6.12,18.9,-0.07,1
10,6.13,16.03,-6.51,1
11,6.15,5.6,-5.74,2
12,6.16,3.94,-3.3,2
13,6.17,-0.58,-5.67,2
14,6.19,-10.02,-8.52,2
15,6.2,-3.81,-22.31,2
16,6.21,19.18,-51.57,2
17,6.23,36.97,-21.9,2
18,6.24,22.36,112.39,2
19,6.25,-20.05,220.37,2
20,6.265,-43.22,155.84,2
21,6.28,-24.02,-1.61,2
22,6.29,6.8,-36.22,2
23,6.31,18.28,69.54,2
24,6.32,18.32,110.46,2
25,6.33,15.83,11.63,2
26,6.35,-2.21,-63.57,2
27,6.36,-19.51,-15.67,2
28,6.37,-2.18,35.33,2
29,6.39,27.06,21.38,2
30,6.4,14.95,41.2,2
31,6.41,-20.81,68.41,2
32,6.43,-16.82,-12.9,2
33,6.44,14.96,-62.01,2
34,6.45,13.23,45.56,2
35,6.47,-13.93,78.21,2
36,6.48,-8.86,-54.26,2
37,6.49,26.6,-106.21,2
38,6.51,35.36,-6.82,2
39,6.52,6.73,69.63,2
40,6.53,-16.72,26.28,2
41,6.55,-21.04,-47.86,2
42,6.56,-20.83,-49.58,1
43,6.57,-10.8,-28.87,1
44,6.59,10.44,-58.72,1
45,6.6,19.61,-95.56,1
46,6.61,14.08,-73.84,1
47,6.63,17.1,-14.63,1
48,6.64,26.76,2.57,1
49,6.65,21.88,-57.08,1
50,6.67,6.17,-127.39,1
51,6.68,-5.15,-105.63,1
52,6.69,-9.69,-22.45,1
53,6.71,-8.38,-17.35,1
54,6.72,-6.84,-63.58,1
55,6.73,-10.53,-37.08,1
56,6.75,-5.65,12.5,1
57,6.76,15.65,4.93,1
58,6.77,29.62,-18.53,1
59,6.79,15.36,-16.87,1
60,6.8,-5.62,-2.88,1
61,6.81,-1.6,-12.76,1
62,6.82,5.86,-48.44,1
63,6.84,-17.48,-60.62,1
64,6.85,-44.33,-31.71,1
65,6.86,-37.3,-10.84,1
66,6.88,-11.93,-36.46,1
67,6.89,1.25,-74.99,1
68,6.91,-7.6,-65.36,1
69,6.92,-30.07,-7.1,1
70,6.93,-36.71,20.23,1
71,6.95,-18.33,-7.07,1
72,6.96,-5.98,-17.79,1
73,6.97,1.1,-15.06,1
74,6.99,20.98,-19.96,1
75,7.0,27.41,7.68,1
76,7.01,10.22,22.08,1
77,7.03,-4.59,-11.25,1
78,7.04,-12.0,-32.47,1
79,7.05,-18.38,-45.21,1
80,7.07,-25.47,-54.13,1
81,7.08,-26.08,-22.97,1
82,7.09,-6.34,11.53,1
83,7.11,10.96,9.14,1
84,7.12,-3.63,-14.76,1
85,7.13,-24.12,-27.62,1
86,7.15,-16.93,-0.47,1
87,7.16,5.19,37.22,1
88,7.17,15.59,40.28,1
89,7.19,14.33,38.06,1
90,7.2,17.03,62.05,1
91,7.21,20.05,69.24,1
92,7.23,11.38,23.08,1
93,7.24,0.39,-30.46,1
94,7.25,0.71,-30.27,1
95,7.27,9.61,12.54,1
96,7.28,14.16,52.32,1
97,7.29,11.85,70.72,1
98,7.31,12.19,54.94,1
99,7.32,12.0,25.8,1
100,7.33,7.3,33.25,1
101,7.35,10.16,42.8,1
102,7.36,20.29,-2.34,1
103,7.37,17.36,-42.03,1
104,7.39,2.36,-8.17,1
105,7.4,-0.18,60.31,1
106,7.41,12.04,104.59,1
107,7.43,14.05,105.62,1
108,7.44,-7.05,70.55,1
109,7.45,-27.12,34.84,1
110,7.47,-18.9,38.16,1
111,7.48,-4.43,60.54,1
112,7.49,-14.55,22.55,1
113,7.51,-31.27,-70.24,1
114,7.52,-24.37,-92.34,1
115,7.53,-2.29,-17.17,1
116,7.55,4.4,32.57,1
117,7.56,-2.75,10.88,1
118,7.57,-2.49,-23.38,1
119,7.59,-6.89,-50.14,1
120,7.6,-15.58,-54.27,1
121,7.61,1.78,1.91,1
122,7.63,22.72,75.27,1
123,7.64,9.39,85.0,1
124,7.65,-3.58,40.0,1
125,7.67,14.48,-1.41,1
126,7.68,25.21,-4.82,1
127,7.69,6.79,16.19,1
128,7.71,-8.46,16.93,1
129,7.72,-3.29,14.18,1
130,7.73,5.17,53.22,1
131,7.75,5.46,103.86,1
132,7.76,2.78,105.25,1
133,7.77,7.16,46.84,1
134,7.79,16.89,-12.7,1
135,7.8,9.13,-9.61,1
136,7.81,-15.47,28.21,1
137,7.83,-19.54,28.73,1
138,7.84,-5.6,6.5,1
139,7.85,-8.74,20.94,1
140,7.87,-16.83,37.3,1
141,7.88,-4.14,-2.46,1
142,7.89,13.33,-32.63,1
143,7.91,16.11,-1.04,1
144,7.92,12.33,10.44,1
145,7.93,8.5,-19.27,1
146,7.95,3.68,-10.41,1
147,7.96,6.37,26.98,1
148,7.97,9.06,22.92,1
149,7.99,-1.6,-19.33,1
150,8.0,-3.45,-39.63,1
151,8.01,9.81,-9.58,1
152,8.03,1.63,24.04,1
153,8.04,-25.5,4.73,1
154,8.05,-29.91,-34.49,1
155,8.07,-7.25,-22.63,1
156,8.08,12.38,8.75,1
157,8.09,7.07,-3.7,1
158,8.1,-9.37,-21.72,1
159,8.12,-1.38,-4.32,1
160,8.13,21.46,2.75,1
161,8.15,13.25,-26.4,0
162,8.16,-12.1,-38.11,0
163,8.17,-6.0,-7.36,0
164,8.19,16.86,18.89,0
165,8.2,25.27,-0.85,0
166,8.21,31.47,-67.71,0
167,8.23,45.68,-150.3,0
168,8.24,57.43,-210.37,0
169,8.25,47.66,-238.77,0
170,8.27,10.33,-238.79,0
171,8.28,-23.1,-210.36,0
172,8.29,-29.9,-157.21,0
173,8.31,-25.44,-83.05,0
174,8.32,-22.1,-7.76,0
175,8.33,-21.91,39.6,0
176,8.35,-25.67,60.76,0
177,8.36,-20.76,76.1,0
178,8.37,0.93,89.21,0
179,8.39,14.9,95.3,0
180,8.4,-3.02,95.62,0
181,8.41,-27.74,94.27,0
182,8.43,-25.77,94.72,0
183,8.44,-14.06,97.62,0
184,8.45,-12.1,99.77,0
185,8.47,-6.3,93.87,0
186,8.48,-0.7,78.34,0
187,8.49,-8.15,66.72,0
188,8.51,-16.04,68.41,0
189,8.52,-14.13,73.67,0
190,8.53,-7.84,71.54,0
191,8.55,-4.3,61.66,1
192,8.56,-3.74,49.27,1
193,8.57,-0.4,39.13,1
194,8.59,2.68,29.69,1
195,8.6,0.53,22.07,1
196,8.61,0.45,23.59,1
197,8.63,3.31,29.98,1
198,8.64,2.08,25.23,1
199,8.65,-1.62,9.71,1
200,8.67,-5.3,4.14,1
201,8.68,-4.7,16.04,1
202,8.69,4.73,22.15,1
203,8.71,9.12,3.74,1
204,8.72,-0.21,-11.84,1
205,8.73,-6.91,3.72,1
206,8.75,0.43,23.07,1
207,8.76,13.66,18.23,1
208,8.77,19.12,4.65,1
209,8.78,9.38,-3.93,1
210,8.8,-4.52,-8.03,1
211,8.81,-3.17,-9.14,1
212,8.82,7.21,-17.54,1
213,8.84,2.38,-31.56,1
214,8.85,-9.75,-32.84,1
215,8.864999999999998,-1.29,-22.1,1
216,8.88,15.06,-17.49,1
217,8.89,10.54,-20.26,1
218,8.91,-5.29,-17.86,1
219,8.92,-11.26,-12.39,1
220,8.93,-4.93,-15.35,1
221,8.95,3.12,-22.7,1
222,8.96,-0.21,-22.56,1
223,8.97,-10.81,-16.64,1
224,8.99,-13.75,-16.03,1
225,9.0,-7.51,-23.29,1
226,9.01,0.23,-26.87,1
227,9.03,4.67,-20.06,1
228,9.04,6.31,-14.64,1
229,9.05,3.43,-20.16,1
230,9.07,-4.91,-28.84,1
231,9.08,-4.79,-29.69,1
232,9.09,7.61,-22.46,1
233,9.11,10.4,-17.92,1
234,9.12,0.86,-22.69,1
235,9.13,2.21,-28.93,1
236,9.15,11.9,-28.68,1
237,9.16,4.88,-25.08,1
238,9.17,-14.23,-21.61,1
239,9.19,-17.27,-19.39,1
240,9.2,-2.06,-20.08,1
241,9.21,8.62,-20.74,1
242,9.23,8.15,-18.23,1
243,9.24,8.96,-16.76,1
244,9.25,9.95,-19.6,1
245,9.27,-0.98,-21.87,1
246,9.28,-12.7,-21.28,1
247,9.29,-8.45,-23.34,1
248,9.31,-2.78,-25.44,1
249,9.32,-7.24,-22.62,1
250,9.33,-6.19,-22.62,1
251,9.35,-0.93,-22.15,1
252,9.36,-9.18,-11.91,1
253,9.37,-17.91,-6.07,1
254,9.39,-6.28,-12.94,1
255,9.4,7.69,-15.91,1
256,9.41,1.69,-14.35,1
257,9.43,-6.25,-23.24,1
258,9.44,4.52,-31.58,1
259,9.45,15.71,-18.81,1
260,9.47,6.53,1.91,1
261,9.48,-8.78,5.37,1
262,9.49,-7.17,-5.99,1
263,9.51,6.11,-15.52,1
264,9.52,11.8,-13.39,1
265,9.53,8.91,3.4,1
266,9.55,7.0,20.9,1
267,9.56,6.42,14.91,1
268,9.57,4.66,-4.95,1
269,9.59,5.26,-8.74,1
270,9.6,9.23,-0.89,1
271,9.61,5.79,3.37,1
272,9.63,-10.62,9.06,1
273,9.64,-17.01,12.7,1
274,9.65,1.98,5.82,1
275,9.67,14.89,-2.48,1
276,9.68,1.59,-4.64,1
277,9.69,-5.48,-1.48,1
278,9.71,7.85,4.05,1
279,9.72,8.73,2.11,1
280,9.73,-8.33,-6.42,1
281,9.75,-10.17,-6.08,1
282,9.76,5.68,1.12,1
283,9.77,12.26,3.83,1
284,9.79,8.18,6.78,1
285,9.8,7.5,13.05,1
286,9.81,4.72,15.9,1
287,9.83,-5.66,15.5,1
288,9.84,-8.78,17.39,1
289,9.85,0.65,21.72,1
290,9.87,5.54,20.58,1
291,9.88,1.71,10.05,1
292,9.89,3.05,2.44,1
293,9.91,7.82,7.81,1
294,9.92,5.05,18.33,1
295,9.93,-3.64,23.95,1
296,9.95,-10.13,19.78,1
297,9.96,-7.39,7.4,1
298,9.97,0.33,-0.44,1
299,9.99,-1.18,0.34,1
300,10.0,-8.2,2.78,1
301,10.01,-9.53,9.87,1
302,10.02,-13.8,19.28,1
303,10.04,-20.85,14.91,1
304,10.05,-13.12,-0.38,1
305,10.06,6.62,-4.87,1
306,10.08,19.46,3.72,1
307,10.09,20.12,8.46,1
308,10.1,16.16,2.67,1
309,10.12,13.45,-3.47,1
310,10.13,10.37,0.82,1
311,10.15,7.23,10.12,0
312,10.16,8.37,9.64,0
313,10.17,4.61,5.02,0
314,10.19,-11.66,9.89,0
315,10.2,-16.79,12.21,0
316,10.21,1.73,7.31,0
317,10.23,22.19,11.49,0
318,10.24,30.73,13.74,0
319,10.25,24.39,1.07,0
320,10.27,3.39,-2.88,0
321,10.28,-11.85,8.18,0
322,10.29,-7.35,15.83,0
323,10.31,-2.79,19.01,0
324,10.32,-3.05,3.05,0
325,10.33,11.05,-47.32,0
326,10.35,18.45,-92.33,0
327,10.36,-3.29,-100.62,0
328,10.37,-11.23,-99.36,0
329,10.39,16.9,-112.47,0
330,10.4,33.93,-134.02,0
331,10.41,23.78,-153.69,0
332,10.43,15.96,-165.67,0
333,10.44,14.01,-164.57,0
334,10.45,10.12,-141.16,0
335,10.47,9.0,-96.25,0
336,10.48,5.92,-51.95,0
337,10.49,-3.2,-22.51,0
338,10.51,-8.37,5.39,0
339,10.52,-7.0,39.27,0
340,10.53,-8.03,64.46,0
341,10.55,-11.27,77.13,1
342,10.56,-13.79,91.54,1
343,10.57,-23.28,114.97,1
344,10.59,-35.9,141.34,1
345,10.6,-33.01,159.01,1
346,10.61,-17.9,168.82,1
347,10.63,-14.23,183.65,1
348,10.64,-25.48,192.73,1
349,10.65,-32.53,180.13,1
350,10.67,-27.09,163.63,1
351,10.68,-22.9,158.83,1
352,10.69,-26.17,151.87,1
353,10.71,-24.42,134.65,1
354,10.72,-16.21,117.59,1
355,10.73,-13.35,106.37,1
356,10.75,-17.39,95.17,1
357,10.76,-21.47,81.01,1
358,10.77,-19.23,66.63,1
359,10.78,-12.84,50.29,1
360,10.8,-15.63,33.84,1
361,10.81,-22.54,27.17,1
362,10.83,-11.49,26.51,1
363,10.84,6.61,21.11,1
364,10.85,6.9,16.63,1
365,10.87,-1.02,17.22,1
366,10.88,-0.28,8.24,1
367,10.89,2.36,-12.4,1
368,10.91,-0.07,-21.24,1
369,10.92,-2.37,-12.78,1
370,10.93,-0.66,-8.66,1
371,10.95,2.06,-17.88,1
372,10.96,3.82,-29.7,1
373,10.97,7.43,-35.09,1
374,10.99,12.76,-36.72,1
375,11.0,10.9,-41.96,1
376,11.01,1.08,-46.35,1
377,11.03,0.78,-42.78,1
378,11.04,11.76,-36.85,1
379,11.05,13.14,-34.65,1
380,11.07,6.14,-37.91,1
381,11.08,7.16,-46.93,1
382,11.09,10.23,-54.1,1
383,11.11,4.87,-53.92,1
384,11.12,0.05,-51.76,1
385,11.13,6.9,-49.85,1
386,11.15,17.12,-46.19,1
387,11.16,17.0,-42.03,1
388,11.17,8.3,-40.93,1
389,11.19,1.75,-46.57,1
390,11.2,3.9,-55.97,1
391,11.21,11.79,-59.39,1
392,11.23,16.23,-54.21,1
393,11.24,14.06,-49.25,1
394,11.25,11.72,-48.46,1
395,11.27,14.53,-46.94,1
396,11.28,18.38,-44.97,1
397,11.29,11.14,-43.7,1
398,11.31,-5.24,-41.42,1
399,11.32,-10.01,-41.52,1
400,11.33,3.1,-45.85,1
401,11.35,13.96,-48.25,1
402,11.36,12.05,-43.28,1
403,11.37,14.99,-37.55,1
404,11.39,24.26,-38.24,1
405,11.4,13.51,-40.84,1
406,11.41,-8.68,-40.7,1
407,11.43,-10.74,-35.7,1
408,11.44,-2.31,-28.51,1
409,11.45,-1.33,-27.87,1
410,11.47,2.26,-28.42,1
411,11.48,13.23,-21.42,1
412,11.49,16.87,-18.79,1
413,11.51,6.37,-26.65,1
414,11.52,-5.51,-28.49,1
415,11.53,-5.42,-19.99,1
416,11.55,2.12,-18.35,1
417,11.56,3.29,-25.95,1
418,11.57,-3.57,-25.24,1
419,11.59,-7.85,-17.98,1
420,11.6,-5.23,-20.17,1
421,11.61,-1.65,-21.56,1
422,11.63,-2.02,-6.07,1
423,11.64,-2.96,8.91,1
424,11.65,1.5,1.11,1
425,11.67,9.75,-16.02,1
426,11.68,13.09,-15.98,1
427,11.69,8.17,2.03,1
428,11.71,0.17,18.51,1
429,11.72,-5.96,17.63,1
430,11.73,-6.33,3.9,1
431,11.75,0.16,-2.75,1
432,11.76,4.34,2.69,1
433,11.77,-0.88,7.55,1
434,11.79,-7.68,9.41,1
435,11.8,-6.45,12.97,1
436,11.81,3.76,13.7,1
437,11.83,15.58,8.18,1
438,11.84,14.64,3.92,1
439,11.85,-0.86,5.83,1
440,11.87,-10.41,8.04,1
441,11.88,-3.97,7.63,1
442,11.89,3.69,6.14,1
443,11.91,1.52,4.91,1
444,11.92,-4.78,5.77,1
445,11.93,-7.94,2.98,1
446,11.94,-12.74,-3.51,1
447,11.96,-20.21,2.93,1
448,11.97,-12.42,19.74,1
449,11.98,9.9,25.39,1
450,12.0,14.77,21.98,1
451,12.01,-1.56,23.29,1
452,12.02,-9.24,30.41,1
453,12.04,-5.97,38.17,1
454,12.05,-9.39,37.73,1
455,12.06,-11.88,24.55,1
456,12.08,-2.58,10.31,1
457,12.09,5.19,13.04,1
458,12.1,5.28,27.49,1
459,12.12,7.35,27.59,1
460,12.13,11.81,11.67,1
461,12.15,14.53,3.7,2
462,12.16,15.07,3.95,2
463,12.17,10.25,0.97,2
464,12.19,-0.3,7.44,2
465,12.2,-9.85,23.6,2
466,12.21,-10.28,28.51,2
467,12.23,-1.89,26.74,2
468,12.24,4.18,26.87,2
469,12.25,4.84,21.34,2
470,12.27,7.16,39.2,2
471,12.28,1.86,123.19,2
472,12.29,-29.15,246.18,2
473,12.31,-70.79,338.08,2
474,12.32,-87.27,365.33,2
475,12.33,-73.32,335.23,2
476,12.35,-51.04,266.34,2
477,12.36,-34.17,182.17,2
478,12.37,-20.63,105.56,2
479,12.39,-4.37,40.06,2
480,12.4,16.83,-23.78,2
481,12.41,32.85,-83.43,2
482,12.43,30.01,-134.3,2
483,12.44,21.92,-183.28,2
484,12.45,29.64,-224.13,2
485,12.47,36.32,-233.55,2
486,12.48,22.42,-213.68,2
487,12.49,8.06,-191.33,2
488,12.51,11.25,-176.39,2
489,12.52,19.2,-164.38,2
490,12.53,22.41,-157.08,2
491,12.55,25.6,-150.1,1
492,12.56,26.58,-134.8,1
493,12.57,21.84,-120.07,1
494,12.59,19.26,-114.33,1
495,12.6,21.85,-102.82,1
496,12.61,22.3,-81.05,1
497,12.63,19.29,-69.24,1
498,12.64,14.58,-69.48,1
499,12.65,5.43,-67.94,1
500,12.67,-4.38,-64.2,1
501,12.68,-4.39,-55.46,1
502,12.69,4.58,-38.12,1
503,12.71,11.39,-26.27,1
504,12.72,12.69,-31.05,1
505,12.73,10.65,-37.38,1
506,12.75,7.28,-28.86,1
507,12.76,7.37,-14.86,1
508,12.77,7.36,-6.42,1
509,12.79,-1.64,-0.16,1
510,12.8,-11.73,2.65,1
511,12.81,-12.25,0.65,1
512,12.83,-8.47,5.34,1
513,12.84,-6.11,18.41,1
514,12.85,-5.19,27.36,1
515,12.87,-8.72,30.73,1
516,12.88,-18.13,34.04,1
517,12.89,-25.1,33.97,1
518,12.91,-21.87,32.23,1
519,12.92,-17.07,33.31,1
520,12.93,-16.4,29.78,1
521,12.95,-6.09,24.12,1
522,12.96,17.42,33.34,1
523,12.97,27.3,49.78,1
524,12.99,5.58,46.13,1
525,13.0,-21.3,30.47,1
526,13.01,-18.85,34.9,1
527,13.03,3.43,53.77,1
528,13.04,10.94,57.05,1
529,13.05,-3.81,49.41,1
530,13.07,-16.7,50.76,1
531,13.08,-14.0,48.71,1
532,13.09,-8.29,33.75,1
533,13.11,-11.66,30.6,1
534,13.12,-16.9,46.53,1
535,13.13,-15.2,55.17,1
536,13.15,-12.0,48.41,1
537,13.16,-7.4,41.53,1
538,13.17,7.04,39.22,1
539,13.19,18.77,37.26,1
540,13.2,12.05,38.42,1
541,13.21,0.54,41.92,1
542,13.23,-6.83,38.51,1
543,13.24,-20.12,27.36,1
544,13.25,-29.22,21.2,1
545,13.27,-16.02,28.18,1
546,13.28,8.64,34.93,1
547,13.29,20.2,29.48,1
548,13.31,9.73,28.58,1
549,13.32,-7.43,37.75,1
550,13.33,-10.7,33.8,1
551,13.35,-3.89,19.78,1
552,13.36,0.28,21.78,1
553,13.37,4.51,30.46,1
554,13.39,4.26,27.29,1
555,13.4,-6.99,24.11,1
556,13.41,-12.57,21.36,1
557,13.43,-3.89,8.6,1
558,13.44,4.81,4.15,1
559,13.45,5.26,17.01,1
560,13.47,-3.53,24.58,1
561,13.48,-18.95,17.18,1
562,13.49,-25.49,3.29,1
563,13.51,-14.03,-8.99,1
564,13.52,4.07,-12.03,1
565,13.53,16.98,-8.9,1
566,13.55,22.9,-8.97,1
567,13.56,24.11,-8.77,1
568,13.57,20.98,-2.48,1
569,13.59,9.88,3.95,1
570,13.6,-4.96,2.38,1
571,13.61,-8.36,-7.73,1
572,13.63,3.23,-11.64,1
573,13.64,11.2,-0.17,1
574,13.65,0.48,7.55,1
575,13.67,-14.42,2.21,1
576,13.68,-11.52,-0.51,1
577,13.69,2.43,1.61,1
578,13.71,5.71,0.07,1
579,13.72,-0.23,-3.87,1
580,13.73,2.77,-8.26,1
581,13.75,12.68,-12.77,1
582,13.76,11.97,-16.7,1
583,13.77,0.8,-22.01,1
584,13.79,-4.37,-25.06,1
585,13.8,0.18,-20.51,1
586,13.81,-0.31,-9.31,1
587,13.83,-12.66,1.82,1
588,13.84,-17.14,0.03,1
589,13.85,-2.27,-15.04,1
590,13.86,7.75,-24.9,1
591,13.88,0.19,-21.99,1
592,13.89,-1.41,-15.43,1
593,13.9,9.97,-11.86,1
594,13.92,9.58,-12.88,1
595,13.93,-1.94,-16.29,1
596,13.94,-1.07,-21.65,1
597,13.96,4.71,-29.6,1
598,13.97,0.43,-34.49,1
599,13.98,-1.34,-30.43,1
600,14.0,7.94,-22.6,1
601,14.01,14.21,-22.75,1
602,14.02,4.26,-24.32,1
603,14.04,-14.71,-10.08,1
604,14.05,-23.07,4.27,1
605,14.07,-20.66,-8.89,1
606,14.08,-19.6,-33.51,1
607,14.09,-7.39,-37.12,1
608,14.11,19.87,-22.81,1
609,14.12,27.26,-10.09,1
610,14.13,8.25,-3.93,1
611,14.15,1.06,-7.54,2
612,14.16,12.93,-17.75,2
613,14.17,10.88,-13.29,2
614,14.19,-9.34,8.23,2
615,14.2,-9.52,27.67,2
616,14.21,21.32,67.0,2
617,14.23,44.71,125.19,2
618,14.24,35.72,127.45,2
619,14.25,5.74,76.63,2
620,14.27,-17.63,25.48,2
621,14.28,-10.64,-21.73,2
622,14.29,11.88,-25.71,2
623,14.31,17.85,14.79,2
624,14.32,9.1,16.93,2
625,14.33,4.98,-34.0,2
626,14.35,3.25,-71.17,2
627,14.36,-8.64,-67.9,2
628,14.37,-22.91,-46.61,2
629,14.39,-21.13,-10.05,2
630,14.4,-3.69,11.16,2
631,14.41,7.23,-22.86,2
632,14.43,-4.76,-56.24,2
633,14.44,-19.41,-32.49,2
634,14.45,-14.92,-8.36,2
635,14.47,-12.13,-42.76,2
636,14.48,-19.73,-77.09,2
637,14.49,-12.27,-58.46,2
638,14.51,4.51,-51.11,2
639,14.52,6.55,-85.64,2
640,14.53,2.11,-94.84,2
641,14.55,0.12,-43.97,1
642,14.56,-9.82,18.17,1
643,14.57,-20.18,24.34,1
644,14.59,-11.03,-11.47,1
645,14.6,10.85,-19.26,1
646,14.61,22.99,-7.4,1
647,14.63,19.24,-29.86,1
648,14.64,10.51,-71.95,1
649,14.65,8.97,-82.94,1
650,14.67,11.7,-53.57,1
651,14.68,5.75,-17.08,1
652,14.69,-1.42,-14.61,1
653,14.71,6.49,-44.0,1
654,14.72,17.08,-48.97,1
655,14.73,11.87,-26.21,1
656,14.75,-2.25,-30.13,1
657,14.76,-8.41,-26.1,1
658,14.77,-0.62,31.42,1
659,14.79,12.19,65.62,1
660,14.8,13.83,40.68,1
661,14.81,4.34,34.04,1
662,14.83,2.03,62.25,1
663,14.84,8.55,62.25,1
664,14.85,7.41,33.38,1
665,14.87,-1.06,23.15,1
666,14.88,-6.04,22.51,1
667,14.89,-7.85,2.23,1
668,14.91,-8.92,-20.09,1
669,14.92,-10.65,-20.48,1
670,14.93,-12.74,-4.19,1
671,14.95,-8.94,2.6,1
672,14.96,-2.05,-16.16,1
673,14.97,4.19,-25.44,1
674,14.99,10.23,3.73,1
675,15.0,7.29,31.38,1
676,15.01,-1.26,27.62,1
677,15.03,-4.95,22.12,1
678,15.04,-10.58,27.84,1
679,15.05,-13.34,28.84,1
680,15.07,-3.36,35.97,1
681,15.08,0.41,46.89,1
682,15.09,-10.55,27.42,1
683,15.11,-15.01,-1.44,1
684,15.12,-11.06,9.12,1
685,15.13,-14.49,42.81,1
686,15.15,-17.78,67.05,1
687,15.16,-13.2,73.05,1
688,15.17,-9.89,39.83,1
689,15.19,-4.94,-12.15,1
690,15.2,0.73,-14.83,1
691,15.21,-2.39,22.03,1
692,15.23,-1.88,33.2,1
693,15.24,4.74,20.68,1
694,15.25,3.99,12.38,1
695,15.27,5.14,3.76,1
696,15.28,10.8,3.92,1
697,15.29,3.58,22.42,1
698,15.31,-9.14,22.53,1
699,15.32,-2.27,-14.13,1
700,15.33,13.83,-33.51,1
701,15.35,7.61,-3.29,1
702,15.36,-6.13,16.84,1
703,15.37,3.81,-9.14,1
704,15.39,8.13,-15.03,1
705,15.4,-15.6,33.6,1
706,15.41,-23.45,66.31,1
707,15.43,-3.21,37.33,1
708,15.44,5.92,9.81,1
709,15.45,0.04,37.8,1
710,15.47,4.08,57.05,1
711,15.48,21.53,8.55,1
712,15.49,33.1,-49.61,1
713,15.51,20.56,-39.83,1
714,15.52,-0.57,16.78,1
715,15.53,1.67,38.19,1
716,15.55,15.53,24.22,1
717,15.56,9.53,30.2,1
718,15.57,-0.77,36.13,1
719,15.59,8.87,12.87,1
720,15.6,14.64,-13.6,1
721,15.61,-0.14,-25.86,1
722,15.63,-7.0,-31.44,1
723,15.64,-0.01,-22.93,1
724,15.65,-3.8,11.68,1
725,15.67,-7.99,27.2,1
726,15.68,4.95,-13.3,1
727,15.69,7.62,-36.79,1
728,15.71,-13.93,6.61,1
729,15.72,-25.39,45.28,1
730,15.73,-8.96,23.38,1
731,15.75,7.3,-13.2,1
732,15.76,4.98,-5.61,1
733,15.77,2.57,15.45,1
734,15.78,6.04,1.27,1
735,15.8,-1.01,-16.79,1
736,15.81,-15.78,-1.32,1
737,15.82,-24.04,29.85,1
738,15.84,-12.44,30.65,1
739,15.85,11.55,-12.13,1
740,15.86,13.46,-35.46,1
741,15.88,-2.36,-7.57,1
742,15.89,-4.26,9.36,1
743,15.9,0.41,-12.26,1
744,15.92,-0.47,-42.53,1
745,15.93,0.49,-58.67,1
746,15.94,2.61,-34.66,1
747,15.96,3.78,7.87,1
748,15.97,4.26,3.86,1
749,15.98,3.61,-35.75,1
750,16.0,6.95,-51.46,1
751,16.01,11.43,-34.47,1
752,16.03,6.5,3.05,1
753,16.04,-12.17,51.45,1
754,16.05,-30.09,65.53,1
755,16.07,-24.34,18.28,1
756,16.08,-3.79,-24.18,1
757,16.09,7.45,-4.67,1
758,16.11,16.33,17.47,1
759,16.12,31.1,-13.78,1
760,16.13,29.3,-40.96,1
761,16.15,3.57,-5.43,1
762,16.16,-23.63,42.56,0
763,16.17,-30.68,27.41,0
764,16.19,-12.95,-12.7,0
765,16.2,1.19,-2.81,0
766,16.21,-4.26,19.69,0
767,16.23,-0.88,3.03,0
768,16.24,14.71,-17.66,0
769,16.25,15.24,-14.37,0
770,16.27,5.59,-10.0,0
771,16.28,6.3,-9.0,0
772,16.29,7.72,11.43,0
773,16.31,-4.04,30.77,0
774,16.32,-14.68,11.88,0
775,16.33,-10.47,-19.71,0
776,16.35,-0.87,-43.61,0
777,16.36,3.87,-102.33,0
778,16.37,8.0,-207.78,0
779,16.39,15.42,-289.45,0
780,16.4,19.83,-280.8,0
781,16.41,16.45,-208.52,0
782,16.42,7.9,-135.05,0
783,16.44,0.15,-62.89,0
784,16.45,-3.94,16.61,0
785,16.46,-9.04,71.23,0
786,16.48,-13.9,91.15,0
787,16.49,-11.8,101.96,0
788,16.5,-7.84,111.26,0
789,16.52,-11.24,113.96,0
790,16.53,-16.58,112.3,0
791,16.54,-16.69,106.37,0
792,16.56,-16.36,96.75,1
793,16.57,-12.77,87.37,1
794,16.58,-0.14,81.15,1
795,16.6,10.76,76.44,1
796,16.61,15.12,61.06,1
797,16.62,17.95,34.19,1
798,16.64,12.28,23.84,1
799,16.65,-1.61,36.88,1
800,16.67,-9.54,43.68,1
801,16.68,-11.78,42.0,1
802,16.69,-14.33,49.93,1
803,16.71,-10.18,53.8,1
804,16.72,2.92,40.52,1
805,16.73,10.14,28.49,1
806,16.75,3.16,26.53,1
807,16.76,-6.06,25.03,1
808,16.77,-4.85,24.55,1
809,16.79,1.73,26.29,1
810,16.8,1.05,21.43,1
811,16.81,-2.8,11.18,1
812,16.83,-0.82,7.08,1
813,16.84,0.27,8.49,1
814,16.85,-3.8,7.31,1
815,16.87,-6.43,6.03,1
816,16.88,-5.19,6.04,1
817,16.89,-5.07,2.92,1
818,16.91,-9.32,-0.11,1
819,16.92,-10.51,0.34,1
820,16.93,-3.18,1.81,1
821,16.95,2.21,-0.04,1
822,16.96,-0.79,-7.61,1
823,16.97,-4.23,-14.87,1
824,16.99,-2.71,-16.21,1
825,17.0,1.55,-15.44,1
826,17.01,4.62,-14.25,1
827,17.03,3.45,-13.36,1
828,17.04,1.63,-16.48,1
829,17.05,3.43,-20.14,1
830,17.06,5.07,-20.55,1
831,17.08,5.27,-20.91,1
832,17.09,6.31,-23.25,1
833,17.1,6.14,-23.85,1
834,17.12,5.41,-18.66,1
835,17.13,7.47,-14.04,1
836,17.14,8.3,-13.83,1
837,17.16,3.12,-8.27,1
838,17.17,-3.75,0.72,1
839,17.18,-6.37,-2.84,1
840,17.2,-5.78,-17.31,1
841,17.21,-1.19,-27.2,1
842,17.22,8.16,-28.84,1
843,17.24,9.78,-25.9,1
844,17.25,-0.52,-19.0,1
845,17.26,-2.46,-11.96,1
846,17.28,10.4,-8.32,1
847,17.29,20.23,-5.45,1
848,17.3,17.01,-5.36,1
849,17.32,5.35,-6.98,1
850,17.33,-3.83,-1.41,1
851,17.35,-3.17,0.18,1
852,17.36,-1.33,-16.35,1
853,17.37,-6.17,-32.49,1
854,17.39,-7.78,-29.79,1
855,17.4,0.72,-21.1,1
856,17.41,6.78,-19.72,1
857,17.43,-0.01,-20.22,1
858,17.44,-7.1,-16.94,1
859,17.45,-0.52,-10.56,1
860,17.47,9.92,-6.08,1
861,17.48,6.84,-9.09,1
862,17.49,-3.26,-14.54,1
863,17.51,-0.63,-18.52,1
864,17.52,9.45,-25.3,1
865,17.53,10.14,-23.61,1
866,17.55,6.76,-5.53,1
867,17.56,4.38,3.06,1
868,17.57,-2.09,-8.2,1
869,17.59,-6.83,-10.21,1
870,17.6,-8.1,-3.64,1
871,17.61,-9.07,-16.82,1
872,17.63,-0.18,-30.21,1
873,17.64,12.6,-15.66,1
874,17.65,10.9,1.43,1
875,17.67,2.08,0.61,1
876,17.68,-0.92,-2.71,1
877,17.69,2.87,-2.08,1
878,17.7,8.1,-1.31,1
879,17.72,-2.38,3.56,1
880,17.73,-23.16,10.81,1
881,17.75,-21.7,11.17,1
882,17.76,1.04,5.23,1
883,17.77,15.89,3.3,1
884,17.78,15.82,8.56,1
885,17.8,7.6,10.15,1
886,17.81,-7.29,-1.89,1
887,17.82,-21.02,-15.93,1
888,17.84,-20.29,-7.83,1
889,17.85,-5.74,13.92,1
890,17.86,9.38,14.2,1
891,17.88,12.33,-1.17,1
892,17.89,1.57,-2.02,1
893,17.9,-5.7,1.0,1
894,17.92,0.88,-2.44,1
895,17.93,5.01,7.56,1
896,17.94,-3.96,20.84,1
897,17.96,-14.5,11.63,1
898,17.97,-15.97,-3.93,1
899,17.99,-6.67,-0.5,1
900,18.0,4.63,12.77,1
901,18.01,3.32,14.81,1
902,18.03,-6.17,7.27,1
903,18.04,-10.79,5.04,1
904,18.05,-11.53,8.47,1
905,18.07,-11.17,6.34,1
906,18.08,-10.87,-3.1,1
907,18.09,-8.8,-5.21,1
908,18.11,1.4,7.25,1
909,18.12,13.48,16.45,1
910,18.13,15.23,14.52,1
911,18.15,9.55,13.97,1
912,18.16,7.97,13.97,0
913,18.17,6.98,11.95,0
914,18.19,-0.61,13.53,0
915,18.2,-2.28,11.35,0
916,18.21,2.66,2.97,0
917,18.23,0.33,3.09,0
918,18.24,4.32,2.83,0
919,18.25,21.42,-27.8,0
920,18.27,27.9,-87.2,0
921,18.28,19.26,-146.87,0
922,18.29,13.23,-185.59,0
923,18.31,17.51,-186.82,0
924,18.32,21.35,-154.56,0
925,18.33,6.91,-126.02,0
926,18.34,-13.0,-116.8,0
927,18.36,-13.72,-97.91,0
928,18.37,-3.61,-59.13,0
929,18.38,4.38,-28.54,0
930,18.4,12.59,-15.21,0
931,18.41,20.65,1.96,0
932,18.42,23.39,28.07,0
933,18.44,20.51,47.37,0
934,18.45,17.81,58.47,0
935,18.46,14.69,73.76,0
936,18.48,4.05,93.85,0
937,18.49,-11.84,112.51,0
938,18.5,-20.4,127.75,0
939,18.52,-16.7,136.14,0
940,18.53,-9.43,144.0,0
941,18.54,-6.68,164.09,0
942,18.56,-9.37,183.18,1
943,18.57,-16.56,179.07,1
944,18.58,-27.09,163.64,1
945,18.6,-35.88,156.56,1
946,18.61,-33.9,149.99,1
947,18.63,-20.01,135.6,1
948,18.64,-9.02,122.26,1
949,18.65,-11.47,116.34,1
950,18.67,-14.95,108.41,1
951,18.68,-13.8,86.32,1
952,18.69,-18.84,60.69,1
953,18.71,-21.95,50.4,1
954,18.72,-12.36,50.09,1
955,18.73,-3.92,42.57,1
956,18.75,-6.55,23.43,1
957,18.76,-11.14,4.81,1
958,18.77,-6.14,-0.69,1
959,18.79,5.34,1.43,1
960,18.8,6.66,1.45,1
961,18.81,-4.59,2.64,1
962,18.83,-12.41,1.71,1
963,18.84,-11.48,-16.64,1
964,18.85,-11.11,-42.46,1
965,18.87,-12.67,-44.49,1
966,18.88,-8.98,-25.46,1
967,18.89,-2.92,-18.22,1
968,18.91,0.47,-31.76,1
969,18.92,-0.44,-45.59,1
970,18.93,-6.04,-46.06,1
971,18.95,-5.86,-40.65,1
972,18.96,3.54,-41.03,1
973,18.97,11.02,-46.06,1
974,18.98,15.13,-45.49,1
975,19.0,15.27,-40.56,1
976,19.01,4.41,-40.96,1
977,19.02,-6.93,-44.55,1
978,19.04,-1.2,-47.91,1
979,19.05,11.99,-52.61,1
980,19.06,12.12,-51.13,1
981,19.08,6.48,-41.89,1
982,19.09,14.57,-39.85,1
983,19.1,26.75,-47.57,1
984,19.12,19.14,-52.21,1
985,19.13,-0.33,-51.79,1
986,19.14,-4.83,-51.22,1
987,19.16,6.32,-47.82,1
988,19.17,12.49,-41.25,1
989,19.18,10.79,-40.18,1
990,19.2,12.19,-46.22,1
991,19.21,11.9,-47.61,1
992,19.22,4.34,-42.99,1
993,19.24,-1.27,-42.87,1
994,19.25,-0.52,-46.49,1
995,19.265,4.74,-46.07,1
996,19.28,12.59,-39.15,1
997,19.29,15.04,-30.75,1
998,19.31,5.23,-33.7,1
999,19.32,-5.03,-47.73,1
1000,19.33,-0.78,-52.45,1
1001,19.35,5.84,-41.57,1
1002,19.36,1.15,-33.44,1
1003,19.37,1.26,-33.66,1
1004,19.39,14.8,-29.03,1
1005,19.4,18.9,-22.06,1
1006,19.41,4.85,-23.76,1
1007,19.43,-2.63,-30.22,1
1008,19.44,4.0,-36.08,1
1009,19.45,2.82,-36.53,1
1010,19.47,-7.16,-24.13,1
1011,19.48,-2.02,-9.22,1
1012,19.49,16.82,-7.47,1
1013,19.51,20.76,-10.53,1
1014,19.52,4.21,-6.77,1
1015,19.53,-9.82,-1.81,1
1016,19.55,-11.17,-1.21,1
1017,19.56,-9.03,-4.05,1
1018,19.57,-4.63,-8.48,1
1019,19.59,4.21,-13.43,1
1020,19.6,6.96,-17.21,1
1021,19.61,2.11,-16.06,1
1022,19.62,0.78,-10.7,1
1023,19.64,1.02,-4.54,1
1024,19.65,-2.74,1.42,1
1025,19.67,-4.26,4.22,1
1026,19.68,-1.51,4.99,1
1027,19.69,-0.19,10.23,1
1028,19.7,-0.46,17.13,1
1029,19.72,-0.36,14.36,1
1030,19.73,-1.78,6.39,1
1031,19.75,-5.47,4.6,1
1032,19.76,-8.36,3.38,1
1033,19.77,-7.1,-1.37,1
1034,19.78,-4.82,-1.81,1
1035,19.8,-6.84,3.04,1
1036,19.81,-5.16,12.31,1
1037,19.82,9.5,25.73,1
1038,19.84,19.76,32.14,1
1039,19.85,7.61,27.61,1
1040,19.86,-7.12,24.79,1
1041,19.88,-5.82,19.54,1
1042,19.89,-3.67,0.65,1
1043,19.9,-6.59,-9.14,1
1044,19.92,-2.56,11.14,1
1045,19.93,2.29,36.43,1
1046,19.95,1.17,35.07,1
1047,19.96,0.39,19.57,1
1048,19.97,0.71,20.1,1
1049,19.99,1.76,29.96,1
1050,20.0,1.65,27.74,1
1051,20.01,-2.09,21.85,1
1052,20.03,-6.2,22.33,1
1053,20.04,-13.71,17.44,1
1054,20.05,-18.81,7.95,1
1055,20.07,-10.28,9.23,1
1056,20.08,2.22,19.62,1
1057,20.09,4.06,24.66,1
1058,20.11,-4.71,19.37,1
1059,20.12,-9.06,8.83,1
1060,20.13,-2.21,6.67,1
1061,20.15,0.5,19.31,1
1062,20.16,-2.69,30.09,2
1063,20.17,-1.08,29.8,2
1064,20.19,-0.4,31.69,2
1065,20.2,-4.8,34.99,2
1066,20.21,-3.5,29.32,2
1067,20.23,15.11,24.21,2
1068,20.24,42.69,34.03,2
1069,20.25,48.41,75.11,2
1070,20.26,18.81,170.24,2
1071,20.28,-23.16,292.53,2
1072,20.29,-51.28,356.49,2
1073,20.3,-58.88,325.72,2
1074,20.32,-52.06,247.26,2
1075,20.33,-42.16,162.77,2
1076,20.34,-37.31,85.74,2
1077,20.36,-31.04,36.62,2
1078,20.37,-14.37,7.81,2
1079,20.38,4.52,-40.57,2
1080,20.4,10.92,-108.48,2
1081,20.41,7.42,-164.62,2
1082,20.42,9.61,-195.63,2
1083,20.44,17.75,-199.66,2
1084,20.45,21.54,-185.28,2
1085,20.46,24.61,-174.43,2
1086,20.48,27.64,-173.88,2
1087,20.49,22.94,-167.76,2
1088,20.5,19.75,-150.45,2
1089,20.52,26.78,-138.28,2
1090,20.53,28.79,-135.36,2
1091,20.54,13.33,-126.27,2
1092,20.56,-2.12,-110.64,1
1093,20.57,2.63,-99.83,1
1094,20.59,13.58,-89.99,1
1095,20.6,11.71,-80.89,1
1096,20.61,7.41,-82.89,1
1097,20.63,11.61,-84.97,1
1098,20.64,15.86,-67.84,1
1099,20.65,11.65,-44.86,1
1100,20.67,7.03,-35.17,1
1101,20.68,11.76,-31.74,1
1102,20.69,13.07,-28.58,1
1103,20.71,0.31,-26.0,1
1104,20.72,-6.9,-21.36,1
1105,20.73,3.42,-17.29,1
1106,20.75,8.77,-10.76,1
1107,20.76,-3.16,-0.41,1
1108,20.77,-10.02,0.32,1
1109,20.79,-0.41,-7.26,1
1110,20.8,4.43,-5.07,1
1111,20.81,-1.61,5.41,1
1112,20.83,5.02,8.19,1
1113,20.84,19.93,4.24,1
1114,20.85,8.4,12.06,1
1115,20.87,-20.67,32.31,1
1116,20.88,-26.75,39.88,1
1117,20.89,-10.1,29.87,1
1118,20.9,0.93,25.61,1
1119,20.92,-1.65,32.91,1
1120,20.93,-6.66,36.33,1
1121,20.94,-5.9,35.36,1
1122,20.96,-6.22,37.52,1
1123,20.97,-8.08,35.67,1
1124,20.98,2.63,31.69,1
1125,21.0,15.47,36.47,1
1126,21.01,4.24,46.0,1
1127,21.02,-16.72,52.13,1
1128,21.04,-15.57,52.14,1
1129,21.05,-3.27,51.06,1
1130,21.06,-6.31,55.54,1
1131,21.08,-15.78,56.11,1
1132,21.09,-11.49,49.02,1
1133,21.1,-3.0,45.13,1
1134,21.12,-10.2,37.41,1
1135,21.13,-22.92,24.04,1
1136,21.14,-19.89,28.52,1
1137,21.16,-9.36,44.14,1
1138,21.17,-7.76,38.91,1
1139,21.18,-8.26,24.48,1
1140,21.2,-6.29,29.23,1
1141,21.21,-8.24,38.63,1
1142,21.23,-6.56,35.61,1
1143,21.24,3.96,32.96,1
1144,21.25,9.33,30.78,1
1145,21.27,3.34,20.92,1
1146,21.28,-7.54,16.89,1
1147,21.29,-16.45,22.61,1
1148,21.31,-12.71,24.78,1
1149,21.32,0.56,19.58,1
1150,21.33,6.83,8.07,1
1151,21.35,7.71,-0.1,1
1152,21.36,9.14,7.76,1
1153,21.37,3.42,16.68,1
1154,21.39,-4.29,10.98,1
1155,21.4,-3.5,8.25,1
1156,21.41,-2.58,17.31,1
1157,21.43,-5.52,20.75,1
1158,21.44,-4.87,14.71,1
1159,21.45,-1.88,9.73,1
1160,21.47,-0.7,8.29,1
1161,21.48,-0.87,8.03,1
1162,21.49,-1.71,6.93,1
1163,21.51,3.69,5.07,1
1164,21.52,13.66,7.32,1
1165,21.53,11.47,9.08,1
1166,21.54,-0.15,3.83,1
1167,21.56,-2.1,3.62,1
1168,21.57,0.77,9.43,1
1169,21.58,-1.49,4.58,1
1170,21.6,3.36,-6.69,1
1171,21.61,13.24,-9.73,1
1172,21.62,4.42,-5.57,1
1173,21.64,-17.1,-0.74,1
1174,21.65,-19.25,0.26,1
1175,21.67,-0.93,-0.84,1
1176,21.68,11.21,2.16,1
1177,21.69,10.31,4.93,1
1178,21.7,5.78,-2.82,1
1179,21.72,-5.61,-15.61,1
1180,21.73,-19.02,-20.48,1
1181,21.75,-10.55,-17.92,1
1182,21.76,15.18,-11.53,1
1183,21.77,22.35,-5.22,1
1184,21.78,6.75,-5.1,1
1185,21.8,-4.56,-6.53,1
1186,21.81,-5.99,-5.88,1
1187,21.82,-5.96,-7.08,1
1188,21.84,-1.2,-11.42,1
1189,21.85,5.23,-17.67,1
1190,21.87,5.23,-20.47,1
1191,21.88,-0.49,-17.44,1
1192,21.89,-8.19,-17.6,1
1193,21.91,-7.09,-19.53,1
1194,21.92,7.94,-12.86,1
1195,21.93,15.9,-2.1,1
1196,21.95,3.86,0.83,1
1197,21.96,-4.94,-5.42,1
1198,21.97,3.55,-7.53,1
1199,21.99,6.92,1.41,1
1200,22.0,-4.08,4.25,1
1201,22.01,-5.2,-11.96,1
1202,22.03,5.85,-27.72,1
1203,22.04,0.31,-22.92,1
1204,22.05,-14.67,-14.01,1
1205,22.07,-4.38,-15.81,1
1206,22.08,14.23,-12.66,1
1207,22.09,7.34,-6.65,1
1208,22.11,0.49,-15.11,1
1209,22.12,13.26,-25.86,1
1210,22.13,12.55,-24.98,1
1211,22.15,-2.95,-16.37,1
1212,22.16,0.82,-13.17,2
1213,22.17,15.76,-19.53,2
1214,22.18,12.39,9.88,2
1215,22.2,-1.36,119.18,2
1216,22.21,-4.16,270.55,2
1217,22.22,-8.55,333.86,2
1218,22.24,-22.04,146.88,2
1219,22.25,-11.42,-197.58,2
1220,22.26,29.89,-295.43,2
1221,22.28,48.57,-81.15,2
1222,22.29,20.03,32.65,2
1223,22.3,1.76,-29.6,2
1224,22.32,31.12,0.01,2
1225,22.33,51.08,60.0,2
1226,22.34,23.1,-39.64,2
1227,22.36,2.15,-182.6,2
1228,22.37,17.62,-155.61,2
1229,22.38,13.96,-20.54,2
1230,22.4,-20.05,3.23,2
1231,22.41,-25.95,-30.2,2
1232,22.42,-11.5,43.19,2
1233,22.44,-17.94,94.73,2
1234,22.45,-17.41,1.27,2
1235,22.46,6.11,-70.66,2
1236,22.48,9.4,-32.08,2
1237,22.49,-19.83,-38.1,2
1238,22.5,-31.98,-120.37,2
1239,22.52,-2.67,-115.18,2
1240,22.53,14.53,-18.26,2
1241,22.55,-8.39,10.68,1
1242,22.56,-15.84,-18.53,1
1243,22.57,6.16,14.97,1
1244,22.59,-2.53,57.16,1
1245,22.6,-41.08,-0.97,1
1246,22.61,-44.34,-84.86,1
1247,22.63,-9.89,-82.05,1
1248,22.64,5.21,-40.47,1
1249,22.65,-10.6,-42.69,1
1250,22.67,-16.07,-62.07,1
1251,22.68,4.07,-49.32,1
1252,22.69,19.42,-30.53,1
1253,22.71,12.02,-23.29,1
1254,22.72,3.74,17.86,1
1255,22.73,5.45,59.34,1
1256,22.75,-1.22,23.27,1
1257,22.76,-11.55,-31.75,1
1258,22.77,-11.36,-40.65,1
1259,22.79,-11.02,-17.95,1
1260,22.8,-14.12,37.21,1
1261,22.81,-9.22,67.04,1
1262,22.82,5.41,10.35,1
1263,22.84,13.47,-45.19,1
1264,22.85,-2.28,-14.78,1
1265,22.86,-24.35,39.68,1
1266,22.88,-21.7,32.13,1
1267,22.89,-4.22,-24.44,1
1268,22.9,6.63,-39.67,1
1269,22.92,12.18,22.54,1
1270,22.93,11.22,61.59,1
1271,22.94,2.64,9.8,1
1272,22.96,-8.99,-37.51,1
1273,22.97,-20.19,-4.93,1
1274,22.98,-17.53,42.88,1
1275,23.0,-0.43,25.21,1
1276,23.01,8.96,-29.15,1
1277,23.02,10.76,-47.38,1
1278,23.04,16.4,-38.57,1
1279,23.05,13.34,-30.74,1
1280,23.06,4.97,-14.63,1
1281,23.08,9.41,-11.17,1
1282,23.09,13.04,-29.05,1
1283,23.1,4.17,-18.9,1
1284,23.12,4.43,40.2,1
1285,23.13,18.37,96.53,1
1286,23.14,18.94,81.76,1
1287,23.16,1.08,4.42,1
1288,23.17,-16.88,-26.75,1
1289,23.19,-24.18,35.15,1
1290,23.2,-13.08,84.0,1
1291,23.21,2.77,47.83,1
1292,23.23,-0.35,1.83,1
1293,23.24,-8.46,13.91,1
1294,23.25,-3.87,48.27,1
1295,23.27,-0.67,53.19,1
1296,23.28,-5.5,31.7,1
1297,23.29,-1.89,19.7,1
1298,23.31,14.58,29.9,1
1299,23.32,21.02,27.64,1
1300,23.33,9.22,3.62,1
1301,23.35,5.68,-6.29,1
1302,23.36,17.02,-18.23,1
1303,23.37,20.48,-48.36,1
1304,23.39,11.54,-35.08,1
1305,23.4,2.99,43.88,1
1306,23.41,-2.37,112.66,1
1307,23.43,-11.09,91.6,1
1308,23.44,-13.34,8.96,1
1309,23.45,8.19,-25.12,1
1310,23.46,32.8,5.91,1
1311,23.48,29.94,16.8,1
1312,23.49,10.55,3.98,1
1313,23.5,-6.13,21.76,1
1314,23.52,-14.3,28.43,1
1315,23.53,-9.56,-5.72,1
1316,23.54,-0.42,-2.75,1
1317,23.56,-0.84,48.32,1
1318,23.57,-7.97,67.03,1
1319,23.58,-9.68,41.6,1
1320,23.6,-0.53,9.6,1
1321,23.61,12.27,-17.02,1
1322,23.62,15.82,-26.12,1
1323,23.64,4.85,-3.51,1
1324,23.65,-5.79,29.72,1
1325,23.67,2.63,37.31,1
1326,23.68,15.06,27.86,1
1327,23.69,6.65,35.93,1
1328,23.7,-7.33,54.95,1
1329,23.72,-8.8,47.4,1
1330,23.73,-7.96,11.45,1
1331,23.75,-5.76,-9.21,1
1332,23.76,1.76,-9.9,1
1333,23.77,4.36,-37.62,1
1334,23.78,0.02,-82.73,1
1335,23.8,-5.96,-76.26,1
1336,23.81,-9.03,-13.1,1
1337,23.83,0.73,28.84,1
1338,23.84,13.5,4.03,1
1339,23.85,2.48,-37.59,1
1340,23.87,-18.05,-33.49,1
1341,23.88,-14.2,0.73,1
1342,23.89,-4.44,17.53,1
1343,23.91,-12.57,7.37,1
1344,23.92,-16.8,-4.77,1
1345,23.93,-10.93,6.16,1
1346,23.95,-15.92,29.33,1
1347,23.96,-20.06,40.94,1
1348,23.97,-1.95,27.7,1
1349,23.99,15.48,-13.67,1
1350,24.0,9.69,-40.91,1
1351,24.01,1.41,-13.02,1
1352,24.03,2.26,9.53,1
1353,24.04,-4.68,-38.25,1
1354,24.05,-16.67,-72.46,1
1355,24.07,-17.71,-23.75,1
1356,24.08,-9.3,13.45,1
1357,24.09,-0.77,-10.77,1
1358,24.1,2.13,-17.04,1
1359,24.12,-2.06,16.47,1
1360,24.13,-4.93,33.81,1
1361,24.14,2.73,31.42,1
1362,24.16,3.49,31.65,0
1363,24.17,-17.77,15.76,0
1364,24.18,-30.32,-18.39,0
1365,24.2,-3.18,-38.78,0
1366,24.21,34.76,-57.23,0
1367,24.22,37.03,-110.35,0
1368,24.24,19.86,-168.27,0
1369,24.25,21.55,-178.32,0
1370,24.26,17.75,-157.36,0
1371,24.28,-11.49,-151.53,0
1372,24.29,-25.32,-157.24,0
1373,24.3,-10.43,-140.74,0
1374,24.32,2.39,-92.29,0
1375,24.33,8.47,-28.13,0
1376,24.34,12.61,27.8,0
1377,24.36,4.15,65.4,0
1378,24.37,-10.67,94.49,0
1379,24.38,-19.21,112.08,0
1380,24.4,-23.65,113.01,0
1381,24.41,-21.53,114.67,0
1382,24.42,-13.47,121.88,0
1383,24.44,-10.88,119.0,0
1384,24.45,-11.41,103.51,0
1385,24.46,-4.73,91.96,0
1386,24.48,5.86,92.24,0
1387,24.49,10.67,84.88,0
1388,24.51,9.07,64.84,0
1389,24.52,7.43,60.17,0
1390,24.53,8.03,69.46,0
1391,24.55,7.84,59.11,1
1392,24.56,2.33,32.9,1
1393,24.57,-3.96,24.9,1
1394,24.59,1.46,39.67,1
1395,24.6,12.02,50.97,1
1396,24.61,9.49,39.31,1
1397,24.63,0.51,15.99,1
1398,24.64,0.37,8.38,1
1399,24.65,5.02,11.42,1
1400,24.67,7.65,0.67,1
1401,24.68,12.17,-12.1,1
1402,24.69,16.23,-7.23,1
1403,24.71,10.04,0.73,1
1404,24.72,-3.61,0.37,1
1405,24.73,-8.82,-0.71,1
1406,24.75,-3.43,-0.17,1
1407,24.76,-2.38,-0.61,1
1408,24.77,-6.65,-5.52,1
1409,24.78,-6.08,-15.38,1
1410,24.8,-2.95,-18.35,1
1411,24.81,-1.98,-10.49,1
1412,24.82,-3.45,-8.46,1
1413,24.84,-6.01,-16.63,1
1414,24.85,-5.27,-21.82,1
1415,24.86,1.77,-22.66,1
1416,24.88,13.77,-23.64,1
1417,24.89,17.23,-19.67,1
1418,24.9,-0.91,-10.28,1
1419,24.92,-20.44,-7.87,1
1420,24.93,-15.08,-17.39,1
1421,24.94,1.27,-25.42,1
1422,24.96,3.86,-23.74,1
1423,24.97,-0.2,-20.95,1
1424,24.98,9.78,-22.35,1
1425,25.0,20.81,-21.13,1
1426,25.01,10.15,-16.16,1
1427,25.02,-4.77,-14.55,1
1428,25.04,-5.62,-15.78,1
1429,25.05,-3.62,-16.59,1
1430,25.06,-1.25,-18.95,1
1431,25.08,5.9,-18.9,1
1432,25.09,5.95,-15.0,1
1433,25.1,-3.2,-16.35,1
1434,25.12,-5.51,-23.28,1
1435,25.13,1.92,-26.82,1
1436,25.15,7.5,-21.18,1
1437,25.16,7.23,-11.96,1
1438,25.17,4.62,-14.32,1
1439,25.19,3.95,-24.85,1
1440,25.2,7.55,-23.51,1
1441,25.21,9.87,-11.29,1
1442,25.23,5.79,-6.7,1
1443,25.24,-1.81,-10.31,1
1444,25.25,-9.35,-7.59,1
1445,25.27,-10.02,-1.59,1
1446,25.28,2.75,-8.11,1
1447,25.29,15.66,-20.12,1
1448,25.31,12.67,-19.11,1
1449,25.32,5.07,-15.01,1
1450,25.33,6.85,-22.76,1
1451,25.35,7.03,-28.14,1
1452,25.36,-2.78,-24.52,1
1453,25.37,-9.37,-25.3,1
1454,25.38,-4.44,-25.76,1
1455,25.4,-0.33,-12.97,1
1456,25.41,-8.1,2.49,1
1457,25.42,-13.62,1.77,1
1458,25.44,-4.79,-14.07,1
1459,25.45,4.03,-25.13,1
1460,25.46,3.76,-16.02,1
1461,25.48,6.18,3.24,1
1462,25.49,12.7,5.15,1
1463,25.5,8.38,-9.42,1
1464,25.52,-2.46,-8.96,1
1465,25.53,-1.73,4.69,1
1466,25.54,2.91,0.92,1
1467,25.56,-2.29,-14.07,1
1468,25.57,-4.82,-16.55,1
1469,25.58,2.42,-7.29,1
1470,25.6,1.94,3.91,1
1471,25.61,-13.1,7.13,1
1472,25.62,-22.37,-1.61,1
1473,25.64,-9.69,-7.33,1
1474,25.65,7.93,-1.02,1
1475,25.67,2.87,1.52,1
1476,25.68,-18.01,-7.59,1
1477,25.69,-23.34,-12.42,1
1478,25.7,-6.22,-7.43,1
1479,25.72,13.33,-2.04,1
1480,25.73,22.13,5.12,1
1481,25.75,18.87,14.91,1
1482,25.76,6.14,16.8,1
1483,25.77,-6.01,8.81,1
1484,25.79,-6.48,2.19,1
1485,25.8,1.03,10.09,1
1486,25.81,0.42,28.86,1
1487,25.83,-8.36,33.21,1
1488,25.84,-5.66,17.51,1
1489,25.85,8.62,7.93,1
1490,25.87,11.16,12.35,1
1491,25.88,-1.61,12.45,1
1492,25.89,-11.42,5.85,1
1493,25.91,-9.85,5.1,1
1494,25.92,-1.81,9.05,1
1495,25.93,5.92,9.21,1
1496,25.95,8.09,5.39,1
1497,25.96,3.4,1.88,1
1498,25.97,-8.77,2.9,1
1499,25.99,-20.53,2.35,1
1500,26.0,-12.39,-5.71,1
1501,26.01,11.49,-4.45,1
1502,26.02,17.24,13.21,1
1503,26.04,-1.12,19.84,1
1504,26.05,-15.79,6.88,1
1505,26.06,-17.17,2.85,1
1506,26.08,-11.6,14.33,1
1507,26.09,0.6,18.71,1
1508,26.1,7.64,13.38,1
1509,26.12,0.8,10.99,1
1510,26.13,-0.65,11.79,1
1511,26.14,10.88,9.25,1
1512,26.16,12.3,-7.79,0
1513,26.17,0.52,-50.73,0
1514,26.18,-2.21,-107.35,0
1515,26.2,8.09,-144.9,0
1516,26.21,25.65,-147.45,0
1517,26.22,42.37,-125.0,0
1518,26.24,39.2,-101.2,0
1519,26.25,24.56,-100.0,0
1520,26.26,21.91,-112.78,0
1521,26.28,19.65,-109.46,0
1522,26.29,10.06,-88.4,0
1523,26.3,9.11,-63.6,0
1524,26.32,11.58,-35.44,0
1525,26.33,1.3,-7.29,0
1526,26.34,-18.07,12.41,0
1527,26.36,-28.57,26.43,0
1528,26.37,-22.63,44.78,0
1529,26.38,-16.27,68.38,0
1530,26.4,-17.3,89.78,0
1531,26.41,-13.01,110.06,0
1532,26.43,-10.15,134.02,0
1533,26.44,-24.42,152.24,0
1534,26.45,-34.9,159.44,0
1535,26.47,-19.31,168.19,0
1536,26.48,-3.91,179.65,0
1537,26.49,-12.72,182.59,0
1538,26.51,-24.37,175.61,0
1539,26.52,-22.06,161.45,0
1540,26.53,-18.03,144.95,0
1541,26.55,-14.72,132.66,1
1542,26.56,-2.29,122.22,1
1543,26.57,9.54,111.7,1
1544,26.59,1.36,104.5,1
1545,26.6,-16.72,94.74,1
1546,26.61,-20.32,73.59,1
1547,26.63,-15.08,50.38,1
1548,26.64,-18.41,42.25,1
1549,26.65,-21.2,47.42,1
1550,26.67,-7.71,46.0,1
1551,26.68,6.09,28.6,1
1552,26.69,-1.16,11.25,1
1553,26.7,-11.5,4.68,1
1554,26.72,-1.75,-0.42,1
1555,26.73,12.35,-5.25,1
1556,26.75,14.13,-7.31,1
1557,26.76,11.52,-12.59,1
1558,26.77,7.68,-17.44,1
1559,26.78,3.98,-17.51,1
1560,26.8,7.95,-22.17,1
1561,26.81,9.97,-35.0,1
1562,26.82,-2.4,-43.92,1
1563,26.84,-11.54,-42.32,1
1564,26.85,-3.32,-39.51,1
1565,26.86,1.84,-41.66,1
1566,26.88,-1.94,-43.65,1
1567,26.89,3.39,-41.64,1
1568,26.9,13.25,-38.32,1
1569,26.92,11.75,-39.88,1
1570,26.93,2.65,-48.37,1
1571,26.94,3.13,-61.03,1
1572,26.96,15.25,-71.91,1
1573,26.97,17.13,-71.17,1
1574,26.98,6.8,-62.41,1
1575,27.0,2.62,-60.16,1
1576,27.01,0.21,-60.54,1
1577,27.02,-4.06,-55.54,1
1578,27.04,0.19,-54.62,1
1579,27.05,5.3,-57.98,1
1580,27.065,3.94,-50.74,1
1581,27.08,7.3,-38.36,1
1582,27.09,14.17,-41.1,1
1583,27.11,13.02,-57.58,1
1584,27.12,9.76,-66.3,1
1585,27.13,13.33,-59.04,1
1586,27.15,16.2,-49.94,1
1587,27.16,15.62,-46.35,1
1588,27.17,15.78,-43.11,1
1589,27.19,6.68,-43.15,1
1590,27.2,-11.15,-48.53,1
1591,27.21,-12.78,-47.73,1
1592,27.23,6.9,-39.61,1
1593,27.24,21.54,-36.8,1
1594,27.25,16.43,-34.08,1
1595,27.27,7.83,-24.64,1
1596,27.28,7.23,-26.92,1
1597,27.29,2.57,-40.35,1
1598,27.3,-1.13,-36.7,1
1599,27.32,8.31,-18.95,1
1600,27.33,10.57,-14.84,1
1601,27.34,-2.22,-26.58,1
1602,27.36,-5.94,-34.77,1
1603,27.37,0.98,-29.61,1
1604,27.38,-2.7,-22.58,1
1605,27.4,-14.69,-24.54,1
1606,27.41,-13.92,-27.35,1
1607,27.42,-2.84,-19.04,1
1608,27.44,-5.77,-3.36,1
1609,27.45,-21.7,5.13,1
1610,27.46,-22.42,4.95,1
1611,27.48,-2.36,3.66,1
1612,27.49,13.19,-0.23,1
1613,27.5,8.46,-5.41,1
1614,27.52,-4.15,-8.78,1
1615,27.53,-6.52,-13.17,1
1616,27.54,1.61,-14.49,1
1617,27.56,6.88,-7.13,1
1618,27.57,2.14,6.43,1
1619,27.58,-3.67,16.79,1
1620,27.6,-1.65,12.23,1
1621,27.61,0.35,-1.28,1
1622,27.62,-4.0,-4.54,1
1623,27.64,-5.64,5.44,1
1624,27.65,-1.01,15.5,1
1625,27.67,3.64,18.65,1
1626,27.68,5.77,18.53,1
1627,27.69,6.51,16.31,1
1628,27.7,5.4,13.47,1
1629,27.72,-1.53,12.56,1
1630,27.73,-10.8,8.47,1
1631,27.75,-5.9,5.74,1
1632,27.76,10.68,15.68,1
1633,27.77,15.04,26.98,1
1634,27.79,5.12,24.6,1
1635,27.8,-2.95,16.34,1
1636,27.81,-3.32,15.34,1
1637,27.83,-3.9,20.12,1
1638,27.84,-9.7,23.1,1
1639,27.85,-7.56,23.45,1
1640,27.87,6.53,23.8,1
1641,27.88,13.89,21.76,1
1642,27.89,6.95,14.59,1
1643,27.91,-3.24,7.68,1
1644,27.92,-2.98,9.74,1
1645,27.93,4.34,20.17,1
1646,27.94,-0.45,27.73,1
1647,27.96,-11.27,24.02,1
1648,27.97,-7.75,16.7,1
1649,27.98,3.74,18.69,1
1650,28.0,12.25,23.49,1
1651,28.01,14.6,21.05,1
1652,28.02,4.48,19.79,1
1653,28.04,-9.72,22.36,1
1654,28.05,-15.02,20.71,1
1655,28.06,-11.04,18.99,1
1656,28.08,0.39,22.47,1
1657,28.09,11.57,24.55,1
1658,28.1,10.33,18.34,1
1659,28.12,2.32,8.83,1
1660,28.13,0.56,7.43,1
1661,28.14,-0.12,12.18,1
1662,28.16,-7.85,12.64,2
1663,28.17,-13.38,14.64,2
1664,28.18,-11.94,25.38,2
1665,28.2,-12.74,30.26,2
1666,28.21,-16.25,20.68,2
1667,28.22,-10.18,10.42,2
1668,28.24,7.94,9.46,2
1669,28.25,22.52,24.5,2
1670,28.26,18.8,81.05,2
1671,28.28,4.07,186.47,2
1672,28.29,-2.75,284.52,2
1673,28.3,-4.29,318.5,2
1674,28.32,-21.37,301.92,2
1675,28.33,-45.51,265.1,2
1676,28.34,-46.62,207.85,2
1677,28.36,-34.55,136.44,2
1678,28.37,-36.38,72.31,2
1679,28.39,-41.93,13.69,2
1680,28.4,-34.99,-53.79,2
1681,28.41,-23.77,-124.36,2
1682,28.43,-14.26,-183.91,2
1683,28.44,-2.26,-221.76,2
1684,28.45,12.06,-229.0,2
1685,28.47,20.61,-214.9,2
1686,28.48,16.71,-200.07,2
1687,28.49,13.39,-188.51,2
1688,28.51,22.72,-176.09,2
1689,28.52,28.78,-163.16,2
1690,28.53,22.11,-146.61,2
1691,28.55,22.04,-133.95,1
1692,28.56,33.53,-138.16,1
1693,28.57,34.1,-138.06,1
1694,28.58,21.16,-111.5,1
1695,28.6,15.84,-83.62,1
1696,28.61,19.42,-73.8,1
1697,28.62,15.65,-62.31,1
1698,28.64,10.09,-45.37,1
1699,28.65,16.9,-45.96,1
1700,28.67,21.19,-60.28,1
1701,28.68,9.94,-56.32,1
1702,28.69,0.08,-34.42,1
1703,28.7,0.68,-24.2,1
1704,28.72,5.63,-27.18,1
1705,28.73,9.42,-26.43,1
1706,28.75,4.51,-21.98,1
1707,28.76,-2.5,-18.52,1
1708,28.77,-2.2,-13.64,1
1709,28.78,-8.5,-4.48,1
1710,28.8,-15.59,2.35,1
1711,28.81,2.07,-0.82,1
1712,28.82,21.36,-2.02,1
1713,28.84,9.25,9.99,1
1714,28.85,-8.63,17.85,1
1715,28.86,-1.2,10.6,1
1716,28.88,11.44,10.52,1
1717,28.89,1.27,29.3,1
1718,28.9,-15.66,43.02,1
1719,28.92,-13.44,34.93,1
1720,28.93,-3.43,21.9,1
1721,28.94,-2.49,23.54,1
1722,28.96,-3.15,35.63,1
1723,28.97,-1.18,41.75,1
1724,28.98,-0.59,39.55,1
1725,29.0,3.43,38.25,1
1726,29.01,6.53,42.08,1
1727,29.03,-0.53,52.03,1
1728,29.04,-2.48,60.56,1
1729,29.05,8.62,50.34,1
1730,29.07,10.51,26.69,1
1731,29.08,1.45,17.75,1
1732,29.09,2.67,33.84,1
1733,29.11,4.81,54.31,1
1734,29.12,-9.12,58.19,1
1735,29.13,-20.92,52.78,1
1736,29.15,-17.01,50.38,1
1737,29.16,-12.66,41.46,1
1738,29.17,-13.92,26.47,1
1739,29.19,-8.96,28.8,1
1740,29.2,0.99,43.69,1
1741,29.21,1.94,41.3,1
1742,29.22,-6.17,26.57,1
1743,29.24,-7.89,27.62,1
1744,29.25,-1.24,44.02,1
1745,29.26,-1.85,51.91,1
1746,29.28,-11.56,43.5,1
1747,29.29,-13.37,35.86,1
1748,29.3,-2.4,38.02,1
1749,29.32,7.36,38.36,1
1750,29.33,6.8,33.12,1
1751,29.34,-2.25,30.48,1
1752,29.36,-10.74,27.12,1
1753,29.37,-10.19,19.07,1
1754,29.38,-11.93,14.17,1
1755,29.4,-25.47,14.61,1
1756,29.41,-26.08,15.45,1
1757,29.42,-0.25,13.87,1
1758,29.44,19.31,7.34,1
1759,29.45,13.28,-0.76,1
1760,29.46,2.72,0.4,1
1761,29.48,0.29,10.14,1
1762,29.49,-1.09,16.48,1
1763,29.5,-1.87,18.27,1
1764,29.52,-0.31,19.3,1
1765,29.53,-1.08,14.92,1
1766,29.54,-5.6,5.33,1
1767,29.56,-7.51,0.68,1
1768,29.57,-2.03,0.42,1
1769,29.58,4.03,-4.67,1
1770,29.6,4.68,-10.44,1
1771,29.61,7.65,-8.42,1
1772,29.62,15.01,-3.21,1
1773,29.64,15.16,-2.52,1
1774,29.65,5.61,-7.84,1
1775,29.67,-3.34,-14.52,1
1776,29.68,-9.51,-12.41,1
1777,29.69,-15.6,-0.19,1
1778,29.71,-13.06,2.6,1
1779,29.72,-0.49,-14.92,1
1780,29.73,5.57,-29.16,1
1781,29.75,-1.13,-23.06,1
1782,29.76,-6.46,-14.4,1
1783,29.77,-5.06,-15.98,1
1784,29.79,-5.75,-20.19,1
1785,29.8,-5.94,-22.5,1
1786,29.81,1.97,-23.69,1
1787,29.83,6.46,-25.87,1
1788,29.84,-2.02,-28.9,1
1789,29.85,-6.08,-24.05,1
1790,29.86,4.15,-10.73,1
1791,29.88,8.57,-1.87,1
1792,29.89,-0.73,-5.62,1
1793,29.9,-2.31,-15.0,1
1794,29.92,12.45,-18.68,1
1795,29.93,21.7,-20.26,1
1796,29.94,12.91,-22.59,1
1797,29.96,1.74,-14.0,1
1798,29.97,-0.15,-0.08,1
1799,29.98,2.99,-0.25,1
1800,30.0,6.62,-13.1,1
1801,30.01,2.91,-23.28,1
1802,30.02,-7.45,-22.43,1
1803,30.04,-7.16,-16.4,1
1804,30.05,2.48,-11.16,1
1805,30.06,5.29,-3.99,1
1806,30.08,6.06,-4.54,1
1807,30.09,6.92,-20.15,1
1808,30.1,3.12,-25.91,1
1809,30.12,3.62,-7.95,1
1810,30.13,3.97,5.11,1
1811,30.14,-4.72,-3.31,1
1812,30.16,-9.33,-12.06,2
1813,30.17,-6.28,-8.46,2
1814,30.18,-2.57,-7.58,2
1815,30.2,3.1,-19.84,2
1816,30.21,5.06,-32.96,2
1817,30.22,4.45,-24.16,2
1818,30.24,15.97,10.6,2
1819,30.25,36.55,55.78,2
1820,30.26,49.25,98.09,2
1821,30.28,42.32,110.16,2
1822,30.29,8.4,58.48,2
1823,30.3,-30.65,-8.38,2
1824,30.32,-24.26,72.65,2
1825,30.33,30.76,261.21,2
1826,30.35,62.03,204.36,2
1827,30.36,22.87,-89.96,2
1828,30.37,-27.8,-167.81,2
1829,30.39,-16.54,15.3,2
1830,30.4,15.64,73.14,2
1831,30.41,-4.59,-28.55,2
1832,30.43,-42.63,-16.53,2
1833,30.44,-45.06,62.24,2
1834,30.45,-30.33,18.61,2
1835,30.47,-19.91,-39.5,2
1836,30.48,-8.81,1.19,2
1837,30.49,-0.59,15.03,2
1838,30.5,-9.84,-61.27,2
1839,30.52,-23.2,-108.06,2
1840,30.53,-16.36,-80.92,2
1841,30.54,-4.07,-75.52,2
1842,30.56,-4.65,-119.54,1
1843,30.57,-9.06,-140.46,1
1844,30.58,-11.77,-125.44,1
1845,30.6,-18.01,-112.04,1
1846,30.61,-27.06,-103.34,1
1847,30.62,-29.44,-91.68,1
1848,30.64,-11.42,-63.89,1
1849,30.65,23.54,-18.1,1
1850,30.67,35.24,7.19,1
1851,30.68,0.91,-4.43,1
1852,30.69,-33.04,-39.8,1
1853,30.7,-24.22,-75.34,1
1854,30.72,-0.55,-58.75,1
1855,30.73,-2.18,-23.51,1
1856,30.75,-16.25,-60.93,1
1857,30.76,-11.7,-94.4,1
1858,30.77,2.5,-20.75,1
1859,30.78,5.89,36.68,1
1860,30.8,6.24,-18.69,1
1861,30.81,8.55,-50.38,1
1862,30.82,3.41,-5.58,1
1863,30.84,3.27,-17.64,1
1864,30.85,21.56,-78.15,1
1865,30.86,26.87,-59.51,1
1866,30.88,-0.08,6.41,1
1867,30.89,-20.15,21.15,1
1868,30.9,-10.97,-7.04,1
1869,30.92,1.32,-35.01,1
1870,30.93,1.32,-31.44,1
1871,30.94,-2.71,9.39,1
1872,30.96,-1.02,22.8,1
1873,30.97,14.1,0.94,1
1874,30.99,29.31,12.85,1
1875,31.0,22.29,40.65,1
1876,31.01,5.33,60.96,1
1877,31.03,2.24,95.89,1
1878,31.04,12.72,93.58,1
1879,31.05,22.23,29.27,1
1880,31.07,17.16,-1.75,1
1881,31.08,4.74,36.85,1
1882,31.09,6.17,58.04,1
1883,31.11,14.14,23.08,1
1884,31.12,7.46,-21.04,1
1885,31.13,-5.53,-41.77,1
1886,31.14,-2.33,-22.8,1
1887,31.16,11.38,24.58,1
1888,31.17,7.26,38.8,1
1889,31.18,-11.3,22.36,1
1890,31.2,-7.43,42.45,1
1891,31.21,18.81,77.44,1
1892,31.22,26.14,83.54,1
1893,31.24,6.02,85.96,1
1894,31.25,-10.22,70.78,1
1895,31.26,-6.88,14.5,1
1896,31.28,1.34,-24.57,1
1897,31.29,-8.0,-23.97,1
1898,31.3,-25.89,-22.62,1
1899,31.32,-16.81,18.19,1
1900,31.33,12.33,84.9,1
1901,31.34,22.99,44.09,1
1902,31.36,11.13,-33.0,1
1903,31.37,-5.82,34.28,1
1904,31.38,-14.15,141.05,1
1905,31.4,-5.63,112.12,1
1906,31.41,7.48,17.26,1
1907,31.42,7.48,-7.73,1
1908,31.44,2.16,30.29,1
1909,31.45,6.81,43.18,1
1910,31.46,12.81,24.13,1
1911,31.48,6.78,39.21,1
1912,31.49,-1.25,68.89,1
1913,31.5,2.64,40.95,1
1914,31.52,17.11,-10.9,1
1915,31.53,29.72,-7.05,1
1916,31.54,23.4,34.83,1
1917,31.56,7.54,54.54,1
1918,31.57,10.12,37.4,1
1919,31.58,15.67,-0.81,1
1920,31.6,-0.48,-21.94,1
1921,31.61,-13.79,-4.57,1
1922,31.63,-7.14,21.43,1
1923,31.64,-0.55,23.47,1
1924,31.65,-3.6,8.31,1
1925,31.67,-12.27,11.89,1
1926,31.68,-23.34,30.89,1
1927,31.69,-23.03,18.83,1
1928,31.71,-2.38,-5.84,1
1929,31.72,17.08,5.57,1
1930,31.73,7.29,13.12,1
1931,31.75,-13.21,-26.21,1
1932,31.76,-8.68,-60.97,1
1933,31.77,-1.1,-40.19,1
1934,31.78,-18.99,8.03,1
1935,31.8,-31.92,17.75,1
1936,31.81,-18.1,-14.76,1
1937,31.82,-5.53,-19.75,1
1938,31.84,-14.6,7.35,1
1939,31.85,-23.42,14.08,1
1940,31.86,-5.65,2.33,1
1941,31.88,18.46,-30.16,1
1942,31.89,10.73,-68.66,1
1943,31.9,-16.4,-53.11,1
1944,31.92,-21.82,-14.95,1
1945,31.93,-0.61,-18.89,1
1946,31.94,15.74,-32.69,1
1947,31.96,-0.1,-16.0,1
1948,31.97,-24.89,3.6,1
1949,31.98,-10.88,-6.02,1
1950,32.0,26.13,-30.28,1
1951,32.01,28.21,-34.8,1
1952,32.03,-4.95,-2.09,1
1953,32.04,-24.08,29.31,1
1954,32.05,-21.52,24.97,1
1955,32.06,-27.41,38.97,1
1956,32.08,-35.64,60.23,1
1957,32.09,-14.73,11.6,1
1958,32.11,24.12,-31.3,1
1959,32.12,31.74,13.72,1
1960,32.13,7.25,48.1,1
1961,32.15,-5.81,7.86,1
1962,32.16,0.01,-21.68,0
1963,32.17,6.72,-18.82,0
1964,32.19,2.96,-50.13,0
1965,32.2,-8.01,-71.05,0
1966,32.21,-9.91,-29.08,0
1967,32.22,-9.57,-6.85,0
1968,32.24,-15.92,-39.47,0
1969,32.25,-7.01,-42.99,0
1970,32.27,16.14,14.98,0
1971,32.28,21.36,63.11,0
1972,32.29,13.7,46.29,0
1973,32.31,12.34,-4.1,0
1974,32.32,1.81,-53.69,0
1975,32.33,-15.74,-129.63,0
1976,32.35,-16.28,-228.45,0
1977,32.36,-13.66,-277.94,0
1978,32.37,-13.31,-253.55,0
1979,32.39,7.99,-202.62,0
1980,32.4,26.18,-150.15,0
1981,32.41,15.36,-85.09,0
1982,32.43,14.82,-15.22,0
1983,32.44,33.61,40.04,0
1984,32.45,25.27,81.96,0
1985,32.47,-2.27,113.21,0
1986,32.48,-5.46,119.78,0
1987,32.49,2.81,105.46,0
1988,32.51,-6.07,103.63,0
1989,32.52,-17.84,120.83,0
1990,32.53,-10.6,121.3,0
1991,32.54,5.5,93.35,0
1992,32.56,6.1,68.83,1
1993,32.57,-4.96,63.52,1
1994,32.59,-2.48,65.1,1
1995,32.6,12.36,70.53,1
1996,32.61,14.35,76.5,1
1997,32.63,-2.12,70.38,1
1998,32.64,-13.01,56.77,1
1999,32.65,-4.68,44.98,1
2000,32.67,0.84,32.79,1
2001,32.68,-8.93,27.15,1
2002,32.69,-12.7,30.61,1
2003,32.71,-3.83,27.72,1
2004,32.72,1.34,20.06,1
2005,32.73,2.78,21.2,1
2006,32.75,4.17,26.1,1
2007,32.76,-0.61,25.34,1
2008,32.77,-2.77,16.28,1
2009,32.79,3.48,3.82,1
2010,32.8,3.41,5.37,1
2011,32.81,-4.11,17.59,1
2012,32.83,-4.85,12.34,1
2013,32.84,1.62,-8.11,1
2014,32.85,3.3,-14.43,1
2015,32.87,-1.17,-5.26,1
2016,32.88,-1.07,-1.43,1
2017,32.89,5.22,-3.86,1
2018,32.9,6.59,3.71,1
2019,32.92,-3.75,17.08,1
2020,32.93,-14.02,12.11,1
2021,32.95,-7.72,-8.55,1
2022,32.96,3.61,-18.25,1
2023,32.97,-1.85,-11.39,1
2024,32.99,-11.61,-3.0,1
2025,33.0,-9.24,-6.03,1
2026,33.01,-6.89,-15.74,1
2027,33.03,-6.2,-16.01,1
2028,33.04,2.89,-8.94,1
2029,33.05,9.7,-7.83,1
2030,33.06,8.13,-8.53,1
2031,33.08,5.27,-8.72,1
2032,33.09,1.87,-21.22,1
2033,33.11,0.01,-35.14,1
2034,33.12,4.83,-24.95,1
2035,33.13,15.15,-5.37,1
2036,33.15,25.72,-8.83,1
2037,33.16,23.7,-28.22,1
2038,33.17,1.52,-33.66,1
2039,33.19,-17.36,-21.3,1
2040,33.2,-6.54,-10.88,1
2041,33.21,14.37,-9.31,1
2042,33.22,9.83,-12.79,1
2043,33.24,-9.09,-23.48,1
2044,33.25,-8.26,-33.92,1
2045,33.27,3.76,-27.88,1
2046,33.28,1.58,-11.61,1
2047,33.29,-3.1,-7.09,1
2048,33.31,0.1,-10.75,1
2049,33.32,-2.81,-4.89,1
2050,33.33,-6.43,2.48,1
2051,33.35,3.88,-5.99,1
2052,33.36,16.3,-24.74,1
2053,33.37,14.07,-31.1,1
2054,33.38,2.5,-18.78,1
2055,33.4,-2.9,-11.66,1
2056,33.41,0.99,-22.67,1
2057,33.43,2.11,-29.14,1
2058,33.44,-1.41,-14.51,1
2059,33.45,1.47,-0.47,1
2060,33.47,8.0,-7.32,1
2061,33.48,7.42,-17.73,1
2062,33.49,1.37,-14.73,1
2063,33.51,-1.12,-9.46,1
2064,33.52,2.4,-11.39,1
2065,33.53,5.69,-13.41,1
2066,33.54,2.58,-12.3,1
2067,33.56,-2.65,-11.29,1
2068,33.57,-5.0,-5.16,1
2069,33.59,-7.02,6.94,1
2070,33.6,-5.62,10.71,1
2071,33.61,-1.56,1.04,1
2072,33.63,-6.88,-10.42,1
2073,33.64,-15.15,-15.63,1
2074,33.65,-7.76,-14.53,1
2075,33.67,6.17,-6.89,1
2076,33.68,3.43,4.06,1
2077,33.69,-7.6,5.64,1
2078,33.71,-5.59,-9.03,1
2079,33.72,1.15,-22.65,1
2080,33.73,-3.5,-15.88,1
2081,33.75,-10.01,1.65,1
2082,33.76,-6.74,6.75,1
2083,33.77,-4.28,-4.06,1
2084,33.79,-9.66,-13.88,1
2085,33.8,-5.93,-9.31,1
2086,33.81,10.89,-2.32,1
2087,33.83,14.46,-11.39,1
2088,33.84,0.98,-20.86,1
2089,33.85,1.44,-8.12,1
2090,33.87,15.55,5.76,1
2091,33.88,10.1,-0.85,1
2092,33.89,-10.63,-7.14,1
2093,33.9,-15.12,3.92,1
2094,33.92,-6.54,15.21,1
2095,33.93,-4.74,7.14,1
2096,33.95,-6.89,-7.36,1
2097,33.96,-5.03,0.25,1
2098,33.97,-1.72,19.79,1
2099,33.99,-0.63,19.27,1
2100,34.0,-4.16,5.1,1
2101,34.01,-7.61,0.81,1
2102,34.03,-1.17,4.39,1
2103,34.04,9.99,8.94,1
2104,34.05,7.45,13.54,1
2105,34.06,-7.0,13.29,1
2106,34.08,-11.9,13.02,1
2107,34.09,-5.0,19.02,1
2108,34.11,1.29,20.45,1
2109,34.12,5.82,9.7,1
2110,34.13,8.83,-2.54,1
2111,34.15,7.1,-5.56,1
2112,34.16,3.29,-5.08,0
2113,34.17,-3.79,-6.34,0
2114,34.19,-14.32,-6.55,0
2115,34.2,-14.86,-23.22,0
2116,34.21,-0.66,-71.22,0
2117,34.23,14.22,-110.86,0
2118,34.24,22.0,-104.8,0
2119,34.25,27.85,-87.36,0
2120,34.27,29.28,-98.55,0
2121,34.28,19.81,-119.04,0
2122,34.29,9.99,-125.66,0
2123,34.31,10.84,-126.75,0
2124,34.32,21.01,-125.83,0
2125,34.33,33.4,-111.58,0
2126,34.35,29.79,-81.58,0
2127,34.36,9.36,-49.79,0
2128,34.37,3.48,-22.63,0
2129,34.38,16.15,7.91,0
2130,34.4,13.12,40.06,0
2131,34.41,-5.96,69.32,0
2132,34.43,-7.86,103.04,0
2133,34.44,0.63,138.65,0
2134,34.45,-9.7,157.81,0
2135,34.47,-24.02,157.54,0
2136,34.48,-21.01,159.96,0
2137,34.49,-16.36,178.42,0
2138,34.51,-20.14,197.19,0
2139,34.52,-20.03,197.85,0
2140,34.53,-14.06,185.24,0
2141,34.54,-15.57,174.9,0
2142,34.56,-24.95,167.93,1
2143,34.57,-23.3,155.0,1
2144,34.59,-10.2,136.33,1
2145,34.6,-8.44,122.17,1
2146,34.61,-17.92,115.3,1
2147,34.63,-17.98,105.9,1
2148,34.64,-8.85,88.65,1
2149,34.65,-6.08,68.24,1
2150,34.67,-12.32,50.18,1
2151,34.68,-17.47,38.95,1
2152,34.69,-18.31,32.29,1
2153,34.71,-19.52,21.64,1
2154,34.72,-17.67,10.68,1
2155,34.73,-4.0,7.69,1
2156,34.75,8.88,3.69,1
2157,34.76,0.79,-7.78,1
2158,34.77,-14.17,-12.52,1
2159,34.79,-9.97,-5.96,1
2160,34.8,0.25,-3.85,1
2161,34.81,-8.41,-11.17,1
2162,34.83,-20.42,-18.11,1
2163,34.84,-12.77,-22.43,1
2164,34.85,1.55,-31.06,1
2165,34.87,6.35,-45.56,1
2166,34.88,7.69,-54.99,1
2167,34.89,7.22,-51.61,1
2168,34.91,1.2,-43.78,1
2169,34.92,-5.24,-40.25,1
2170,34.93,-6.91,-39.12,1
2171,34.95,-1.33,-36.69,1
2172,34.96,11.02,-36.37,1
2173,34.97,18.63,-44.74,1
2174,34.99,12.16,-57.27,1
2175,35.0,0.27,-62.09,1
2176,35.01,-4.07,-61.96,1
2177,35.03,0.8,-66.32,1
2178,35.04,7.64,-66.05,1
2179,35.05,7.42,-53.45,1
2180,35.06,1.69,-43.73,1
2181,35.08,3.22,-45.63,1
2182,35.09,16.52,-51.21,1
2183,35.11,24.56,-54.65,1
2184,35.12,15.29,-55.62,1
2185,35.13,4.49,-56.47,1
2186,35.15,7.7,-57.5,1
2187,35.16,15.4,-56.12,1
2188,35.17,9.98,-51.1,1
2189,35.19,-0.53,-45.4,1
2190,35.2,3.9,-44.04,1
2191,35.21,11.6,-47.79,1
2192,35.22,1.64,-54.43,1
2193,35.24,-11.68,-59.2,1
2194,35.25,-7.85,-55.25,1
2195,35.27,4.94,-45.07,1
2196,35.28,12.1,-40.31,1
2197,35.29,12.03,-49.74,1
2198,35.31,12.32,-66.78,1
2199,35.32,23.26,-66.71,1
2200,35.33,40.01,-41.3,1
2201,35.35,39.18,-18.7,1
2202,35.36,15.52,-15.91,1
2203,35.37,-4.53,-16.76,1
2204,35.38,-4.77,-13.68,1
2205,35.4,1.85,-13.78,1
2206,35.41,3.42,-10.7,1
2207,35.43,2.81,-2.5,1
2208,35.44,-2.22,0.17,1
2209,35.45,-12.26,-1.43,1
2210,35.47,-10.8,-5.49,1
2211,35.48,3.72,-16.21,1
2212,35.49,9.6,-22.27,1
2213,35.51,4.97,-12.72,1
2214,35.52,6.17,2.21,1
2215,35.53,9.03,12.07,1
2216,35.55,-1.39,13.38,1
2217,35.56,-16.28,7.44,1
2218,35.57,-13.99,1.61,1
2219,35.59,-4.22,-4.91,1
2220,35.6,-7.18,-8.76,1
2221,35.61,-8.91,-0.39,1
2222,35.63,2.93,6.76,1
2223,35.64,7.37,4.21,1
2224,35.65,-1.46,7.9,1
2225,35.67,-2.65,13.67,1
2226,35.68,3.4,7.47,1
2227,35.69,0.34,4.67,1
2228,35.71,-5.93,13.88,1
2229,35.72,-6.16,21.71,1
2230,35.73,-4.68,26.76,1
2231,35.75,-1.65,23.56,1
2232,35.76,-1.45,4.59,1
2233,35.77,-9.36,-4.61,1
2234,35.79,-12.88,8.31,1
2235,35.8,-6.98,15.48,1
2236,35.81,-3.23,11.94,1
2237,35.83,-2.61,16.18,1
2238,35.84,2.3,20.83,1
2239,35.85,11.37,12.77,1
2240,35.87,17.92,3.86,1
2241,35.88,13.59,9.12,1
2242,35.89,1.74,20.53,1
2243,35.9,-5.44,23.34,1
2244,35.92,-7.89,24.17,1
2245,35.93,-6.44,27.42,1
2246,35.95,6.8,20.12,1
2247,35.96,15.02,8.79,1
2248,35.97,-5.54,12.07,1
2249,35.99,-31.89,22.98,1
2250,36.0,-29.67,24.61,1
2251,36.01,-10.11,19.62,1
2252,36.03,0.11,18.24,1
2253,36.04,-1.17,19.5,1
2254,36.05,-7.43,22.97,1
2255,36.06,-16.84,29.72,1
2256,36.08,-22.37,31.94,1
2257,36.09,-14.47,28.07,1
2258,36.11,8.28,25.36,1
2259,36.12,27.47,20.31,1
2260,36.13,20.71,12.6,1
2261,36.15,3.09,23.26,1
2262,36.16,-0.33,78.34,2
2263,36.17,-2.41,180.15,2
2264,36.19,-15.6,286.15,2
2265,36.2,-29.64,339.09,2
2266,36.21,-36.92,326.31,2
2267,36.23,-34.0,270.54,2
2268,36.24,-24.24,194.08,2
2269,36.25,-15.67,115.3,2
2270,36.27,-8.84,46.77,2
2271,36.28,-5.64,-5.27,2
2272,36.29,-4.03,-43.76,2
2273,36.31,5.7,-90.0,2
2274,36.32,16.9,-154.2,2
2275,36.33,17.0,-211.38,2
2276,36.35,17.2,-226.78,2
2277,36.36,26.99,-205.62,2
2278,36.37,32.59,-189.19,2
2279,36.38,24.46,-191.5,2
2280,36.4,14.22,-182.84,2
2281,36.41,17.74,-154.37,2
2282,36.43,28.31,-137.73,2
2283,36.44,24.32,-135.98,2
2284,36.45,8.97,-114.52,2
2285,36.47,3.32,-77.52,2
2286,36.48,12.03,-64.82,2
2287,36.49,22.14,-79.25,2
2288,36.51,17.62,-92.28,2
2289,36.52,-1.6,-92.88,2
2290,36.53,-13.7,-84.36,2
2291,36.54,-5.54,-73.05,2
2292,36.56,5.27,-65.08,1
2293,36.57,2.07,-54.49,1
2294,36.59,-4.15,-37.54,1
2295,36.6,-4.05,-22.26,1
2296,36.61,-2.54,-12.85,1
2297,36.63,4.67,-11.89,1
2298,36.64,14.32,-17.51,1
2299,36.65,8.7,-16.95,1
2300,36.67,-2.82,-6.72,1
2301,36.68,-0.14,0.74,1
2302,36.69,3.34,5.03,1
2303,36.71,-7.08,14.46,1
2304,36.72,-15.67,19.23,1
2305,36.73,-9.18,13.29,1
2306,36.75,1.18,15.66,1
2307,36.76,3.23,27.13,1
2308,36.77,1.45,26.32,1
2309,36.79,-1.11,19.39,1
2310,36.8,-6.91,23.11,1
2311,36.81,-5.86,29.18,1
2312,36.83,6.17,28.01,1
2313,36.84,10.41,26.01,1
2314,36.85,0.69,29.85,1
2315,36.87,-4.36,36.7,1
2316,36.88,2.94,39.02,1
2317,36.89,8.55,35.08,1
2318,36.9,-0.5,32.71,1
2319,36.92,-16.68,41.19,1
2320,36.93,-17.52,52.81,1
2321,36.95,-1.15,52.26,1
2322,36.96,5.19,46.26,1
2323,36.97,-5.46,46.92,1
2324,36.99,-9.11,49.11,1
2325,37.0,-3.26,48.71,1
2326,37.01,-6.15,46.02,1
2327,37.03,-8.18,40.23,1
2328,37.04,5.26,36.06,1
2329,37.05,13.26,36.23,1
2330,37.06,1.98,33.55,1
2331,37.08,-7.67,27.55,1
2332,37.09,-4.82,25.53,1
2333,37.11,-1.4,30.05,1
2334,37.12,-1.64,38.52,1
2335,37.13,0.82,45.09,1
2336,37.15,4.1,41.45,1
2337,37.16,-3.38,28.9,1
2338,37.17,-17.18,22.38,1
2339,37.19,-16.19,28.67,1
2340,37.2,-2.8,34.82,1
2341,37.21,1.32,33.84,1
2342,37.22,-1.01,32.18,1
2343,37.24,0.92,30.85,1
2344,37.25,-6.14,27.67,1
2345,37.27,-24.88,23.6,1
2346,37.28,-28.45,18.46,1
2347,37.29,-7.88,13.85,1
2348,37.31,9.19,13.29,1
2349,37.32,5.45,13.73,1
2350,37.33,-3.82,13.56,1
2351,37.35,-4.77,19.32,1
2352,37.36,-4.18,28.71,1
2353,37.37,-9.16,28.2,1
2354,37.38,-9.03,17.37,1
2355,37.4,4.45,9.94,1
2356,37.41,8.51,10.07,1
2357,37.43,-10.01,9.23,1
2358,37.44,-19.13,3.44,1
2359,37.45,-6.9,0.88,1
2360,37.47,-3.38,6.83,1
2361,37.48,-6.31,7.5,1
2362,37.49,9.83,-7.3,1
2363,37.51,27.21,-16.83,1
2364,37.52,17.35,-9.04,1
2365,37.53,-0.86,-2.99,1
2366,37.54,3.4,-3.19,1
2367,37.56,13.58,1.33,1
2368,37.57,1.12,2.41,1
2369,37.59,-16.53,-3.43,1
2370,37.6,-14.11,-2.48,1
2371,37.61,-2.68,1.65,1
2372,37.63,1.1,-3.31,1
2373,37.64,-0.74,-10.33,1
2374,37.65,-2.03,-6.06,1
2375,37.67,-2.86,4.09,1
2376,37.68,-3.57,-0.23,1
2377,37.69,-0.19,-20.14,1
2378,37.71,7.09,-35.49,1
2379,37.72,9.6,-37.25,1
2380,37.73,6.86,-28.33,1
2381,37.75,6.5,-12.45,1
2382,37.76,4.96,-5.25,1
2383,37.77,-0.55,-20.82,1
2384,37.79,-0.35,-40.38,1
2385,37.8,6.09,-36.46,1
2386,37.81,7.32,-19.38,1
2387,37.83,5.38,-13.06,1
2388,37.84,5.96,-14.79,1
2389,37.85,5.01,-15.54,1
2390,37.87,5.45,-17.8,1
2391,37.88,4.71,-23.18,1
2392,37.89,-3.35,-27.19,1
2393,37.9,-3.29,-26.17,1
2394,37.92,8.5,-19.18,1
2395,37.93,8.0,-9.82,1
2396,37.95,-2.09,-9.64,1
2397,37.96,0.92,-17.53,1
2398,37.97,5.11,-18.94,1
2399,37.99,-3.62,-16.26,1
2400,38.0,-7.32,-18.9,1
2401,38.01,-1.52,-19.04,1
2402,38.03,-2.24,-14.08,1
2403,38.04,-8.03,-14.06,1
2404,38.05,-7.19,-14.09,1
2405,38.06,-5.17,-8.64,1
2406,38.08,-11.74,-12.32,1
2407,38.09,-13.68,-22.8,1
2408,38.11,4.34,-22.55,1
2409,38.12,22.42,-18.89,1
2410,38.13,15.03,-17.56,1
2411,38.15,-2.0,-10.43,1
2412,38.16,-2.13,-4.68,2
2413,38.17,2.85,6.43,2
2414,38.19,-4.99,9.59,2
2415,38.2,-6.96,-53.42,2
2416,38.21,18.52,-98.29,2
2417,38.22,43.69,-42.13,2
2418,38.24,25.98,-44.53,2
2419,38.25,0.54,-105.41,2
2420,38.27,18.01,7.4,2
2421,38.28,21.82,259.41,2
2422,38.29,-32.77,396.56,2
2423,38.31,-81.51,355.94,2
2424,38.32,-70.74,303.09,2
2425,38.33,-17.27,326.02,2
2426,38.35,20.35,333.19,2
2427,38.36,-0.98,253.02,2
2428,38.37,-34.34,107.77,2
2429,38.38,-3.64,-37.34,2
2430,38.4,51.37,-149.46,2
2431,38.41,40.38,-241.54,2
2432,38.43,6.1,-215.76,2
2433,38.44,24.7,-19.57,2
2434,38.45,27.34,98.36,2
2435,38.47,-24.89,-30.66,2
2436,38.48,-25.92,-215.77,2
2437,38.49,36.32,-244.88,2
2438,38.51,50.74,-159.07,2
2439,38.52,8.92,-141.29,2
2440,38.53,-7.96,-182.79,2
2441,38.54,6.01,-131.3,2
2442,38.56,-1.67,-80.19,1
2443,38.57,-22.09,-165.35,1
2444,38.59,-11.09,-231.02,1
2445,38.6,17.27,-176.61,1
2446,38.61,20.9,-134.88,1
2447,38.63,0.69,-154.09,1
2448,38.64,-12.91,-174.89,1
2449,38.65,-8.87,-178.74,1
2450,38.67,-1.95,-143.41,1
2451,38.68,-3.98,-74.1,1
2452,38.69,-8.69,-45.51,1
2453,38.71,-8.56,-70.65,1
2454,38.72,-5.35,-76.75,1
2455,38.73,-1.17,-45.83,1
2456,38.75,1.16,-28.75,1
2457,38.76,-6.95,-44.67,1
2458,38.77,-21.34,-60.16,1
2459,38.79,-21.24,-48.43,1
2460,38.8,2.36,-27.46,1
2461,38.81,32.04,-16.45,1
2462,38.83,34.79,-5.69,1
2463,38.84,7.45,8.78,1
2464,38.85,-13.43,12.92,1
2465,38.87,-15.09,5.88,1
2466,38.88,-14.67,17.42,1
2467,38.89,-10.59,47.07,1
2468,38.9,2.14,47.8,1
2469,38.92,6.86,24.2,1
2470,38.93,-3.24,26.9,1
2471,38.95,-11.31,56.98,1
2472,38.96,-6.61,71.63,1
2473,38.97,7.21,50.21,1
2474,38.99,23.49,21.69,1
2475,39.0,27.55,17.67,1
2476,39.01,12.88,27.78,1
2477,39.03,3.44,46.62,1
2478,39.04,6.35,73.7,1
2479,39.05,-9.71,65.08,1
2480,39.06,-29.14,5.11,1
2481,39.08,-6.8,-33.1,1
2482,39.09,22.12,20.62,1
2483,39.11,7.17,107.87,1
2484,39.12,-22.2,104.81,1
2485,39.13,-27.82,44.89,1
2486,39.15,-16.72,64.13,1
2487,39.16,-6.19,131.98,1
2488,39.17,-1.52,116.68,1
2489,39.19,-3.69,38.49,1
2490,39.2,-12.09,16.37,1
2491,39.21,-6.78,45.97,1
2492,39.22,16.54,34.77,1
2493,39.24,18.3,5.01,1
2494,39.25,-2.71,28.49,1
2495,39.27,-3.7,57.05,1
2496,39.28,7.25,48.29,1
2497,39.29,1.98,50.75,1
2498,39.31,-4.44,72.79,1
2499,39.32,0.71,71.56,1
2500,39.33,3.46,49.71,1
2501,39.35,0.34,59.66,1
2502,39.36,1.43,97.43,1
2503,39.37,10.24,89.96,1
2504,39.38,19.51,51.4,1
2505,39.4,12.87,46.97,1
2506,39.41,-11.68,43.93,1
2507,39.43,-25.02,23.41,1
2508,39.44,-13.6,26.58,1
2509,39.45,0.75,35.97,1
2510,39.47,5.62,42.46,1
2511,39.48,4.65,66.38,1
2512,39.49,-1.56,63.49,1
2513,39.51,-6.28,22.64,1
2514,39.52,-3.17,10.54,1
2515,39.53,5.42,44.13,1
2516,39.54,13.93,66.33,1
2517,39.56,4.71,44.36,1
2518,39.57,-17.55,15.36,1
2519,39.59,-17.31,9.26,1
2520,39.6,5.07,17.7,1
2521,39.61,16.98,29.41,1
2522,39.63,10.12,36.06,1
2523,39.64,6.26,51.22,1
2524,39.65,16.11,55.71,1
2525,39.67,16.91,3.58,1
2526,39.68,7.84,-42.11,1
2527,39.69,12.87,-27.77,1
2528,39.71,17.77,-32.0,1
2529,39.72,2.7,-43.83,1
2530,39.73,-9.67,12.66,1
2531,39.75,5.4,50.95,1
2532,39.76,30.65,11.17,1
2533,39.77,30.41,-13.29,1
2534,39.79,3.51,-5.53,1
2535,39.8,-19.67,5.68,1
2536,39.81,-26.73,51.79,1
2537,39.83,-28.78,75.74,1
2538,39.84,-21.99,17.45,1
2539,39.85,-2.69,-33.09,1
2540,39.87,0.06,-32.58,1
2541,39.88,-24.5,-45.0,1
2542,39.89,-37.98,-52.36,1
2543,39.9,-24.67,-7.22,1
2544,39.92,-12.59,27.61,1
2545,39.93,-10.37,-7.83,1
2546,39.95,-7.57,-64.33,1
2547,39.96,-6.41,-65.11,1
2548,39.97,-2.67,-4.87,1
2549,39.99,7.04,38.59,1
2550,40.0,6.58,23.33,1
2551,40.01,-7.45,11.07,1
2552,40.03,-14.88,14.35,1
2553,40.04,-4.08,-19.4,1
2554,40.05,8.39,-49.9,1
2555,40.065,-5.73,-34.25,1
2556,40.08,-36.65,-32.36,1
2557,40.09,-35.81,-59.47,1
2558,40.11,-0.55,-51.71,1
2559,40.12,20.12,-19.82,1
2560,40.13,12.47,-27.84,1
2561,40.15,4.24,-53.22,1
2562,40.16,9.08,-41.35,0
2563,40.17,14.85,-12.0,0
2564,40.19,14.44,1.82,0
2565,40.2,12.49,0.65,0
2566,40.21,1.11,-20.48,0
2567,40.22,-12.89,-49.63,0
2568,40.24,-1.75,-48.44,0
2569,40.25,25.61,-23.39,0
2570,40.27,41.37,-18.89,0
2571,40.28,39.01,-37.77,0
2572,40.29,24.03,-50.41,0
2573,40.31,12.15,-47.26,0
2574,40.32,8.03,-39.85,0
2575,40.33,-4.36,-46.62,0
2576,40.35,-19.3,-74.71,0
2577,40.36,-16.87,-95.92,0
2578,40.37,-8.24,-84.28,0
2579,40.38,-13.29,-78.11,0
2580,40.4,-20.51,-126.32,0
2581,40.41,-17.26,-205.28,0
2582,40.43,-12.17,-247.21,0
2583,40.44,-3.52,-223.89,0
2584,40.45,14.24,-171.7,0
2585,40.47,24.59,-121.91,0
2586,40.48,21.45,-64.15,0
2587,40.49,16.06,2.48,0
2588,40.51,5.46,57.46,0
2589,40.52,-6.13,85.63,0
2590,40.53,-2.14,92.38,0
2591,40.54,7.89,102.45,0
2592,40.56,5.66,112.85,1
2593,40.57,-1.39,95.16,1
2594,40.59,1.25,65.87,1
2595,40.6,8.18,63.72,1
2596,40.61,2.98,75.04,1
2597,40.63,-10.26,64.71,1
2598,40.64,-12.5,40.63,1
2599,40.65,-4.07,31.04,1
2600,40.67,9.96,39.09,1
2601,40.68,25.35,52.32,1
2602,40.69,24.17,64.26,1
2603,40.71,12.32,70.34,1
2604,40.72,10.03,63.23,1
2605,40.73,8.49,43.61,1
2606,40.75,1.97,31.86,1
2607,40.76,-0.13,38.4,1
2608,40.77,-0.63,41.82,1
2609,40.79,-0.77,30.23,1
2610,40.8,-0.03,21.78,1
2611,40.81,-8.69,24.2,1
2612,40.83,-21.45,24.9,1
2613,40.84,-19.74,19.54,1
2614,40.85,-9.93,15.59,1
2615,40.87,-12.09,20.24,1
2616,40.88,-20.28,30.72,1
2617,40.89,-16.19,33.99,1
2618,40.9,-3.2,26.64,1
2619,40.92,2.53,17.63,1
2620,40.93,-1.49,12.91,1
2621,40.95,-2.94,14.0,1
2622,40.96,0.03,15.34,1
2623,40.97,-1.91,9.59,1
2624,40.99,-2.53,0.05,1
2625,41.0,3.19,-5.55,1
2626,41.01,2.66,-3.53,1
2627,41.03,-6.29,0.95,1
2628,41.04,-10.21,0.78,1
2629,41.05,-8.36,0.28,1
2630,41.06,-7.15,4.26,1
2631,41.08,-0.59,6.24,1
2632,41.09,10.36,3.32,1
2633,41.11,13.52,1.72,1
2634,41.12,8.13,1.41,1
2635,41.13,1.01,-1.23,1
2636,41.15,-5.83,-3.9,1
2637,41.16,-10.95,-8.23,1
2638,41.17,-9.37,-17.34,1
2639,41.19,-3.13,-18.49,1
2640,41.2,-2.41,-6.39,1
2641,41.21,-7.78,-1.58,1
2642,41.22,-6.53,-11.45,1
2643,41.24,0.94,-20.86,1
2644,41.25,2.99,-22.93,1
2645,41.27,5.13,-15.04,1
2646,41.28,14.79,-2.73,1
2647,41.29,19.0,-9.23,1
2648,41.31,7.71,-31.0,1
2649,41.32,-8.91,-29.81,1
2650,41.33,-11.87,-6.91,1
2651,41.35,2.74,-2.86,1
2652,41.36,15.34,-15.82,1
2653,41.37,11.21,-14.15,1
2654,41.38,-0.09,-2.08,1
2655,41.4,-6.39,0.37,1
2656,41.41,-9.86,-5.37,1
2657,41.43,-10.2,-9.54,1
2658,41.44,-4.3,-6.04,1
2659,41.45,2.21,0.67,1
2660,41.47,7.3,-1.35,1
2661,41.48,10.09,-10.5,1
2662,41.49,2.72,-18.08,1
2663,41.51,-10.97,-20.03,1
2664,41.52,-14.87,-11.6,1
2665,41.53,-6.74,0.31,1
2666,41.54,0.98,2.21,1
2667,41.56,2.1,-1.45,1
2668,41.57,2.64,-4.33,1
2669,41.59,7.38,-11.04,1
2670,41.6,9.65,-17.1,1
2671,41.61,2.87,-14.67,1
2672,41.63,-2.65,-12.72,1
2673,41.64,0.54,-13.98,1
2674,41.65,-0.44,-5.46,1
2675,41.67,-7.79,6.08,1
2676,41.68,-7.49,1.17,1
2677,41.69,-2.82,-11.61,1
2678,41.71,-3.44,-11.11,1
2679,41.72,-2.88,-1.94,1
2680,41.73,1.89,-3.23,1
2681,41.75,4.38,-11.15,1
2682,41.76,6.45,-6.75,1
2683,41.77,9.78,3.32,1
2684,41.79,6.12,2.82,1
2685,41.8,-1.25,1.12,1
2686,41.81,2.11,5.78,1
2687,41.83,11.04,4.1,1
2688,41.84,7.78,-2.93,1
2689,41.85,-2.33,-2.99,1
2690,41.87,-1.82,-1.83,1
2691,41.88,-1.25,-0.79,1
2692,41.89,-13.39,7.37,1
2693,41.9,-18.57,9.52,1
2694,41.92,-9.25,-1.12,1
2695,41.93,-5.63,-3.21,1
2696,41.95,-10.65,10.43,1
2697,41.96,-13.68,17.11,1
2698,41.97,-12.35,9.38,1
2699,41.99,-2.03,4.09,1
2700,42.0,14.6,4.08,1
2701,42.01,18.66,-3.75,1
2702,42.03,6.38,-15.57,1
2703,42.04,-3.85,-11.91,1
2704,42.05,-7.64,2.9,1
2705,42.06,-15.2,8.81,1
2706,42.08,-21.75,12.5,1
2707,42.09,-15.32,19.21,1
2708,42.11,2.39,9.62,1
2709,42.12,21.64,-13.09,1
2710,42.13,30.2,-20.4,1
2711,42.15,21.81,-8.3,1
2712,42.16,9.87,2.86,0
2713,42.17,7.93,7.24,0
2714,42.19,10.82,1.08,0
2715,42.2,11.35,-38.12,0
2716,42.21,12.75,-98.02,0
2717,42.22,17.09,-126.57,0
2718,42.24,17.07,-117.85,0
2719,42.25,14.34,-108.95,0
2720,42.27,26.45,-108.75,0
2721,42.28,45.08,-107.32,0
2722,42.29,45.47,-105.76,0
2723,42.31,40.32,-102.16,0
2724,42.32,45.73,-87.86,0
2725,42.33,43.96,-67.61,0
2726,42.35,25.92,-53.64,0
2727,42.36,6.38,-38.07,0
2728,42.37,-6.25,-8.39,0
2729,42.38,-15.3,22.51,0
2730,42.4,-20.23,43.0,0
2731,42.41,-25.76,62.12,0
2732,42.43,-39.13,86.86,0
2733,42.44,-48.66,110.78,0
2734,42.45,-50.86,121.93,0
2735,42.47,-54.82,128.0,0
2736,42.48,-49.75,148.57,0
2737,42.49,-40.56,174.6,0
2738,42.51,-47.11,184.64,0
2739,42.52,-44.0,179.59,0
2740,42.53,-12.19,169.72,0
2741,42.54,6.66,155.36,0
2742,42.56,-9.11,130.95,1
2743,42.57,-20.44,101.68,1
2744,42.59,-8.92,83.2,1
2745,42.6,-5.79,82.39,1
2746,42.61,-21.63,87.0,1
2747,42.63,-28.45,84.82,1
2748,42.64,-16.1,82.31,1
2749,42.65,-4.85,83.4,1
2750,42.66,-10.82,76.42,1
2751,42.68,-22.39,62.47,1
2752,42.69,-13.1,53.18,1
2753,42.71,10.8,42.25,1
2754,42.72,15.17,25.89,1
2755,42.73,-0.81,19.63,1
2756,42.75,-9.05,20.5,1
2757,42.76,-4.08,11.01,1
2758,42.77,0.28,-1.47,1
2759,42.79,4.12,-5.81,1
2760,42.8,12.9,-12.17,1
2761,42.81,19.96,-22.52,1
2762,42.83,21.51,-23.03,1
2763,42.84,20.85,-15.18,1
2764,42.85,13.33,-14.12,1
2765,42.87,0.83,-27.21,1
2766,42.88,-0.28,-46.48,1
2767,42.89,10.14,-55.19,1
2768,42.9,14.53,-51.06,1
2769,42.92,12.14,-45.0,1
2770,42.93,11.05,-42.45,1
2771,42.95,6.47,-46.35,1
2772,42.96,-1.82,-54.05,1
2773,42.97,-5.72,-60.73,1
2774,42.99,-3.59,-67.1,1
2775,43.0,3.97,-62.91,1
2776,43.01,9.68,-44.49,1
2777,43.03,5.94,-36.07,1
2778,43.04,2.72,-44.24,1
2779,43.05,7.59,-47.09,1
2780,43.06,10.89,-42.11,1
2781,43.08,5.44,-42.09,1
2782,43.09,0.15,-47.09,1
2783,43.11,7.4,-53.35,1
2784,43.12,18.76,-57.37,1
2785,43.13,14.23,-51.48,1
2786,43.15,2.89,-41.42,1
2787,43.16,6.13,-46.24,1
2788,43.17,12.7,-61.96,1
2789,43.19,7.05,-66.18,1
2790,43.2,3.94,-56.22,1
2791,43.21,10.0,-44.93,1
2792,43.22,10.4,-38.62,1
2793,43.24,8.39,-34.74,1
2794,43.25,11.93,-32.44,1
2795,43.27,11.12,-33.31,1
2796,43.28,8.03,-33.32,1
2797,43.29,9.46,-30.38,1
2798,43.3,8.89,-30.47,1
2799,43.32,5.33,-32.8,1
2800,43.33,1.99,-28.72,1
2801,43.35,3.68,-21.31,1
2802,43.36,13.95,-20.21,1
2803,43.37,19.0,-20.88,1
2804,43.38,11.98,-16.24,1
2805,43.4,4.91,-14.9,1
2806,43.41,0.68,-19.94,1
2807,43.43,0.35,-18.37,1
2808,43.44,6.78,-11.0,1
2809,43.45,6.41,-14.61,1
2810,43.47,-3.65,-28.28,1
2811,43.48,-4.11,-32.41,1
2812,43.49,3.33,-21.06,1
2813,43.51,3.5,-8.99,1
2814,43.52,4.66,-6.76,1
2815,43.53,9.9,-8.8,1
2816,43.54,4.83,-9.4,1
2817,43.56,-1.8,-11.27,1
2818,43.57,1.49,-12.48,1
2819,43.59,-4.7,-5.2,1
2820,43.6,-21.75,5.2,1
2821,43.61,-23.53,6.56,1
2822,43.63,-10.8,1.41,1
2823,43.64,-6.94,1.95,1
2824,43.65,-15.94,7.47,1
2825,43.67,-20.45,4.69,1
2826,43.68,-13.06,-5.03,1
2827,43.69,-7.82,-6.24,1
2828,43.71,-12.03,3.75,1
2829,43.72,-15.41,12.74,1
2830,43.73,-7.25,12.85,1
2831,43.75,8.17,11.37,1
2832,43.76,10.63,14.18,1
2833,43.77,-4.93,13.74,1
2834,43.79,-15.33,8.68,1
2835,43.8,-9.59,11.86,1
2836,43.81,-3.64,25.9,1
2837,43.83,-4.37,32.12,1
2838,43.84,-1.63,21.33,1
2839,43.85,5.63,12.66,1
2840,43.87,7.3,16.22,1
2841,43.88,4.57,19.36,1
2842,43.89,7.79,21.16,1
2843,43.9,9.21,27.6,1
2844,43.92,-2.8,30.73,1
2845,43.93,-11.97,26.38,1
2846,43.94,-5.15,21.65,1
2847,43.96,2.71,18.44,1
2848,43.97,2.59,17.15,1
2849,43.99,0.33,23.11,1
2850,44.0,-3.54,31.12,1
2851,44.01,-13.23,28.48,1
2852,44.03,-21.16,20.18,1
2853,44.04,-14.4,21.81,1
2854,44.05,-7.7,31.0,1
2855,44.06,-19.62,32.24,1
2856,44.08,-23.59,22.43,1
2857,44.09,-2.27,14.26,1
2858,44.11,9.5,16.12,1
2859,44.12,0.54,22.84,1
2860,44.13,-0.23,27.81,1
2861,44.15,7.67,29.61,1
2862,44.16,5.73,29.18,2
2863,44.17,-4.01,35.15,2
2864,44.19,-12.22,68.81,2
2865,44.2,-13.85,143.29,2
2866,44.21,-8.22,234.61,2
2867,44.22,-3.18,297.07,2
2868,44.24,-7.73,303.9,2
2869,44.25,-17.03,261.8,2
2870,44.27,-11.43,199.42,2
2871,44.28,11.68,140.5,2
2872,44.29,22.0,83.96,2
2873,44.31,9.12,24.0,2
2874,44.32,2.15,-27.84,2
2875,44.33,9.3,-66.08,2
2876,44.35,8.68,-107.85,2
2877,44.36,-5.25,-160.26,2
2878,44.37,-16.05,-202.55,2
2879,44.38,-11.59,-214.05,2
2880,44.4,-1.59,-202.18,2
2881,44.41,1.29,-190.0,2
2882,44.43,2.02,-179.46,2
2883,44.44,4.51,-160.99,2
2884,44.45,3.79,-147.58,2
2885,44.47,2.64,-149.27,2
2886,44.48,6.84,-147.24,2
2887,44.49,12.43,-126.89,2
2888,44.51,9.58,-101.66,2
2889,44.52,-0.39,-85.84,2
2890,44.53,-3.25,-71.01,2
2891,44.54,-0.16,-58.95,2
2892,44.56,-9.17,-68.34,1
2893,44.57,-21.54,-82.58,1
2894,44.58,-11.0,-71.29,1
2895,44.6,11.49,-49.92,1
2896,44.61,18.83,-43.08,1
2897,44.62,17.07,-41.29,1
2898,44.64,22.46,-32.41,1
2899,44.65,27.65,-23.69,1
2900,44.67,21.06,-20.38,1
2901,44.68,12.71,-19.48,1
2902,44.69,12.8,-16.01,1
2903,44.71,10.31,-8.37,1
2904,44.72,0.75,-2.05,1
2905,44.73,-0.7,0.65,1
2906,44.75,8.2,6.95,1
2907,44.76,13.29,20.27,1
2908,44.77,10.13,31.98,1
2909,44.79,6.93,31.91,1
2910,44.8,10.97,22.31,1
2911,44.81,14.77,18.88,1
2912,44.83,10.34,27.2,1
2913,44.84,11.46,34.44,1
2914,44.85,19.97,34.74,1
2915,44.87,12.3,36.38,1
2916,44.88,-7.05,42.34,1
2917,44.89,-13.12,46.36,1
2918,44.9,-8.79,43.96,1
2919,44.92,-4.13,40.24,1
2920,44.93,1.26,41.03,1
2921,44.95,2.73,38.41,1
2922,44.96,-4.31,26.25,1
2923,44.97,-18.51,22.41,1
2924,44.99,-25.3,38.62,1
2925,45.0,-9.34,53.04,1
2926,45.01,8.62,50.37,1
2927,45.03,2.39,46.57,1
2928,45.04,-9.01,50.93,1
2929,45.05,-4.44,51.53,1
2930,45.06,-0.94,44.03,1
2931,45.08,-9.11,39.11,1
2932,45.09,-10.42,38.65,1
2933,45.11,0.36,33.24,1
2934,45.12,4.31,28.3,1
2935,45.13,-4.24,32.29,1
2936,45.15,-11.15,36.34,1
2937,45.16,-10.89,34.08,1
2938,45.17,-11.87,30.33,1
2939,45.19,-16.96,28.76,1
2940,45.2,-16.92,28.63,1
2941,45.21,-6.82,25.96,1
2942,45.22,3.04,22.7,1
2943,45.24,4.87,28.62,1
2944,45.25,5.11,40.94,1
2945,45.26,1.74,41.62,1
2946,45.28,-10.31,26.48,1
2947,45.29,-17.22,12.33,1
2948,45.31,-9.14,11.53,1
2949,45.32,-0.23,17.29,1
2950,45.33,-6.41,18.26,1
2951,45.35,-19.98,14.35,1
2952,45.36,-15.69,13.06,1
2953,45.37,6.18,15.05,1
2954,45.38,16.71,16.0,1
2955,45.4,11.92,17.22,1
2956,45.41,6.7,22.08,1
2957,45.43,-2.31,23.88,1
2958,45.44,-10.95,9.87,1
2959,45.45,-4.12,-7.98,1
2960,45.47,5.76,-2.65,1
2961,45.48,-0.3,16.97,1
2962,45.49,-7.07,23.35,1
2963,45.51,5.99,13.54,1
2964,45.52,21.06,-3.06,1
2965,45.53,13.25,-17.46,1
2966,45.54,-5.29,-18.14,1
2967,45.56,-10.77,-3.77,1
2968,45.57,-7.88,6.55,1
2969,45.59,-13.69,-3.43,1
2970,45.6,-17.12,-19.01,1
2971,45.61,-2.53,-20.1,1
2972,45.63,10.55,-14.57,1
2973,45.64,8.97,-14.83,1
2974,45.65,10.73,-12.53,1
2975,45.67,15.98,-1.22,1
2976,45.68,7.88,2.94,1
2977,45.69,-3.73,-12.79,1
2978,45.71,-1.98,-28.91,1
2979,45.72,3.94,-24.22,1
2980,45.73,1.17,-13.93,1
2981,45.75,-0.39,-19.19,1
2982,45.76,6.62,-26.13,1
2983,45.77,3.6,-15.33,1
2984,45.79,-13.52,-2.5,1
2985,45.8,-19.09,-5.13,1
2986,45.81,-4.65,-12.82,1
2987,45.83,11.74,-17.71,1
2988,45.84,12.91,-19.84,1
2989,45.85,-3.23,-13.58,1
2990,45.86,-18.64,-4.12,1
2991,45.88,-12.37,-3.19,1
2992,45.89,3.96,-6.28,1
2993,45.9,2.06,-7.83,1
2994,45.92,-5.79,-17.19,1
2995,45.93,2.46,-32.21,1
2996,45.95,7.48,-34.52,1
2997,45.96,1.21,-22.85,1
2998,45.97,4.75,-12.57,1
2999,45.99,9.65,-8.89,1
3000,46.0,-1.5,-7.0,1
3001,46.01,-11.17,-7.59,1
3002,46.03,-8.38,-14.65,1
3003,46.04,-7.4,-20.87,1
3004,46.05,-9.07,-11.52,1
3005,46.06,-3.89,5.28,1
3006,46.08,3.45,4.43,1
3007,46.09,4.19,-9.55,1
3008,46.11,3.68,-13.53,1
3009,46.12,11.46,-12.4,1
3010,46.13,18.01,-17.21,1
3011,46.15,12.76,-16.23,1
3012,46.16,5.4,-9.15,2
3013,46.17,4.17,-15.14,2
3014,46.19,6.84,-34.68,2
3015,46.2,6.55,-31.21,2
3016,46.21,0.93,22.45,2
3017,46.22,-0.01,83.9,2
3018,46.24,3.71,102.07,2
3019,46.25,5.49,62.97,2
3020,46.27,17.92,9.62,2
3021,46.28,40.5,76.42,2
3022,46.29,40.45,214.97,2
3023,46.31,4.64,167.68,2
3024,46.32,-26.8,-3.36,2
3025,46.33,-16.17,-42.58,2
3026,46.35,0.86,-12.28,2
3027,46.36,-3.64,-33.23,2
3028,46.37,9.78,-30.73,2
3029,46.38,26.22,-20.25,2
3030,46.4,3.85,-105.31,2
3031,46.41,-13.02,-172.76,2
3032,46.43,9.02,-76.72,2
3033,46.44,27.43,32.38,2
3034,46.45,16.67,17.9,2
3035,46.47,4.09,-22.55,2
3036,46.48,5.0,-44.71,2
3037,46.49,4.76,-80.25,2
3038,46.5,-4.18,-102.68,2
3039,46.52,-21.61,-97.93,2
3040,46.53,-32.0,-67.62,2
3041,46.54,-13.96,-32.31,2
3042,46.56,7.5,-42.75,1
3043,46.57,-5.06,-59.85,1
3044,46.59,-28.26,-16.92,1
3045,46.6,-27.32,18.44,1
3046,46.61,-27.55,-23.1,1
3047,46.63,-49.04,-70.91,1
3048,46.64,-51.35,-64.73,1
3049,46.65,-18.12,-47.66,1
3050,46.67,6.25,-47.87,1
3051,46.68,1.73,-47.92,1
3052,46.69,-4.31,-51.87,1
3053,46.71,-0.09,-58.66,1
3054,46.72,6.62,-42.04,1
3055,46.73,18.5,-20.15,1
3056,46.75,28.03,-27.96,1
3057,46.76,14.14,-37.16,1
3058,46.77,-13.05,-30.08,1
3059,46.79,-15.19,-40.44,1
3060,46.8,9.55,-52.73,1
3061,46.81,17.25,-10.83,1
3062,46.83,-1.68,73.02,1
3063,46.84,-7.65,111.8,1
3064,46.85,6.01,60.57,1
3065,46.87,5.55,3.15,1
3066,46.88,-8.09,9.7,1
3067,46.89,-2.36,24.19,1
3068,46.9,10.35,8.82,1
3069,46.92,-13.06,-6.25,1
3070,46.93,-49.01,1.43,1
3071,46.95,-37.22,18.87,1
3072,46.96,5.13,6.84,1
3073,46.97,17.66,-23.49,1
3074,46.99,-3.21,-25.38,1
3075,47.0,-19.95,-0.04,1
3076,47.01,-14.63,39.65,1
3077,47.03,-3.7,72.67,1
3078,47.04,-0.98,50.4,1
3079,47.05,4.54,8.57,1
3080,47.06,14.35,22.85,1
3081,47.08,19.46,31.96,1
3082,47.09,18.56,-7.47,1
3083,47.11,7.04,1.78,1
3084,47.12,-5.96,45.33,1
3085,47.13,-1.58,17.95,1
3086,47.14,10.77,-9.85,1
3087,47.16,12.28,44.03,1
3088,47.17,6.81,71.06,1
3089,47.18,6.16,15.8,1
3090,47.2,10.26,-10.62,1
3091,47.21,7.79,45.99,1
3092,47.22,-3.37,105.46,1
3093,47.24,-4.81,87.06,1
3094,47.25,4.61,21.72,1
3095,47.27,5.8,-8.03,1
3096,47.28,6.38,4.96,1
3097,47.29,17.31,18.54,1
3098,47.31,22.44,19.99,1
3099,47.32,17.24,25.14,1
3100,47.33,13.92,40.27,1
3101,47.35,12.46,36.78,1
3102,47.36,7.93,-0.64,1
3103,47.37,3.25,-14.16,1
3104,47.38,9.73,28.85,1
3105,47.4,23.03,58.15,1
3106,47.41,15.07,32.76,1
3107,47.43,-3.61,6.19,1
3108,47.44,7.94,2.64,1
3109,47.45,25.63,-16.06,1
3110,47.47,4.63,-34.68,1
3111,47.48,-20.63,1.1,1
3112,47.49,-6.62,66.73,1
3113,47.51,15.85,88.79,1
3114,47.52,8.67,55.58,1
3115,47.53,-8.62,20.51,1
3116,47.54,-8.93,22.19,1
3117,47.56,-1.08,46.73,1
3118,47.57,-0.36,35.24,1
3119,47.59,-3.74,-27.27,1
3120,47.6,-0.99,-39.68,1
3121,47.61,4.12,17.85,1
3122,47.63,0.6,25.52,1
3123,47.64,-4.22,-2.9,1
3124,47.65,-0.89,17.75,1
3125,47.67,1.34,33.35,1
3126,47.68,-2.34,4.92,1
3127,47.69,-3.59,-5.4,1
3128,47.71,-6.11,16.8,1
3129,47.72,-19.39,13.85,1
3130,47.73,-27.23,-27.88,1
3131,47.75,-12.68,-49.22,1
3132,47.76,8.19,-36.0,1
3133,47.77,12.44,-18.88,1
3134,47.78,-1.96,-5.41,1
3135,47.8,-16.26,-10.31,1
3136,47.81,-17.72,-7.69,1
3137,47.82,-8.7,31.01,1
3138,47.84,4.31,45.78,1
3139,47.85,6.35,2.06,1
3140,47.86,-1.09,-54.99,1
3141,47.88,6.46,-79.47,1
3142,47.89,21.79,-73.1,1
3143,47.9,13.11,-58.41,1
3144,47.92,-11.98,-32.7,1
3145,47.93,-22.25,-4.79,1
3146,47.95,-20.88,10.38,1
3147,47.96,-23.74,18.31,1
3148,47.97,-22.28,1.33,1
3149,47.99,-9.42,-23.68,1
3150,48.0,4.18,-2.2,1
3151,48.01,7.86,28.69,1
3152,48.03,2.36,18.39,1
3153,48.04,-4.83,3.82,1
3154,48.05,-7.73,0.93,1
3155,48.06,-13.77,-4.3,1
3156,48.08,-22.42,-17.34,1
3157,48.09,-4.45,-35.07,1
3158,48.11,29.64,-15.01,1
3159,48.12,29.28,10.24,1
3160,48.13,4.01,-46.33,1
3161,48.15,-1.65,-109.71,1
3162,48.16,13.21,-62.36,0
3163,48.17,25.71,30.24,0
3164,48.19,29.26,62.95,0
3165,48.2,29.55,58.42,0
3166,48.21,13.78,51.96,0
3167,48.22,-23.21,28.1,0
3168,48.24,-41.0,9.93,0
3169,48.25,-18.52,27.05,0
3170,48.27,12.18,39.5,0
3171,48.28,23.8,11.19,0
3172,48.29,15.89,-7.56,0
3173,48.31,1.1,18.54,0
3174,48.32,-11.98,34.77,0
3175,48.33,-21.84,26.31,0
3176,48.35,-20.69,30.64,0
3177,48.36,-7.23,14.55,0
3178,48.37,-2.24,-67.06,0
3179,48.38,-19.08,-169.37,0
3180,48.4,-43.24,-229.87,0
3181,48.41,-52.91,-245.77,0
3182,48.42,-36.71,-230.94,0
3183,48.44,-3.7,-189.28,0
3184,48.45,20.71,-133.14,0
3185,48.46,21.78,-68.23,0
3186,48.48,9.68,1.58,0
3187,48.49,5.19,52.38,0
3188,48.5,12.63,70.4,0
3189,48.52,16.52,79.17,0
3190,48.53,8.97,95.97,0
3191,48.54,-1.14,100.62,0
3192,48.56,-5.44,88.52,1
3193,48.57,-2.34,87.85,1
3194,48.59,4.69,99.41,1
3195,48.6,8.28,96.21,1
3196,48.61,5.84,73.81,1
3197,48.63,3.15,55.53,1
3198,48.64,-0.37,58.46,1
3199,48.65,-10.34,68.62,1
3200,48.67,-15.89,66.49,1
3201,48.68,-3.62,57.23,1
3202,48.69,10.24,52.64,1
3203,48.71,5.92,52.55,1
3204,48.72,-4.6,52.99,1
3205,48.73,-3.75,51.69,1
3206,48.75,3.08,47.86,1
3207,48.76,2.28,40.92,1
3208,48.77,-5.27,29.31,1
3209,48.79,-7.18,18.22,1
3210,48.8,-2.58,13.42,1
3211,48.81,-2.65,7.64,1
3212,48.83,-7.99,0.55,1
3213,48.84,-7.75,4.43,1
3214,48.85,1.22,13.37,1
3215,48.87,11.19,9.27,1
3216,48.88,18.65,-2.9,1
3217,48.89,24.0,-4.72,1
3218,48.9,20.87,-1.83,1
3219,48.92,8.11,-11.04,1
3220,48.93,-2.84,-20.01,1
3221,48.95,-4.63,-9.6,1
3222,48.96,-1.74,4.93,1
3223,48.97,1.91,2.57,1
3224,48.99,4.48,-10.29,1
3225,49.0,0.81,-18.41,1
3226,49.01,-3.51,-19.6,1
3227,49.03,3.57,-19.03,1
3228,49.04,13.89,-15.53,1
3229,49.05,10.93,-10.84,1
3230,49.06,-2.14,-13.16,1
3231,49.08,-7.31,-22.89,1
3232,49.09,-2.78,-31.07,1
3233,49.1,-5.72,-30.38,1
3234,49.12,-13.91,-24.52,1
3235,49.13,-8.26,-18.0,1
3236,49.14,1.95,-10.82,1
3237,49.16,0.13,-10.14,1
3238,49.17,-1.14,-21.74,1
3239,49.19,6.66,-37.81,1
3240,49.2,7.43,-42.14,1
3241,49.21,-2.15,-27.9,1
3242,49.22,-7.09,-13.02,1
3243,49.24,-1.61,-16.3,1
3244,49.25,9.79,-27.75,1
3245,49.27,17.8,-27.18,1
3246,49.28,17.16,-16.97,1
3247,49.29,16.13,-16.73,1
3248,49.31,15.23,-25.23,1
3249,49.32,3.39,-21.17,1
3250,49.33,-12.84,-11.38,1
3251,49.35,-18.65,-20.19,1
3252,49.36,-13.08,-34.9,1
3253,49.37,-0.17,-31.31,1
3254,49.38,10.63,-14.49,1
3255,49.4,10.64,-2.92,1
3256,49.41,7.79,-9.28,1
3257,49.43,6.27,-22.08,1
3258,49.44,0.18,-20.47,1
3259,49.45,-3.28,-17.32,1
3260,49.47,-1.06,-21.86,1
3261,49.48,-6.66,-10.1,1
3262,49.49,-14.08,6.02,1
3263,49.51,-5.81,-10.67,1
3264,49.52,6.22,-34.06,1
3265,49.53,8.24,-18.36,1
3266,49.54,10.94,11.11,1
3267,49.56,15.22,11.42,1
3268,49.57,8.97,-3.11,1
3269,49.59,-5.23,-4.53,1
3270,49.6,-13.68,0.83,1
3271,49.61,-8.18,-1.3,1
3272,49.63,3.6,-7.47,1
3273,49.64,9.2,-9.76,1
3274,49.65,9.36,-9.78,1
3275,49.67,9.6,-8.9,1
3276,49.68,4.74,-5.13,1
3277,49.69,-6.78,-4.29,1
3278,49.7,-10.88,-9.15,1
3279,49.72,-1.89,-10.56,1
3280,49.73,4.14,-5.12,1
3281,49.74,-4.03,2.1,1
3282,49.76,-12.38,6.65,1
3283,49.77,-8.16,3.26,1
3284,49.78,-2.97,-3.34,1
3285,49.8,-3.31,-0.31,1
3286,49.81,-2.04,8.86,1
3287,49.83,-1.99,10.78,1
3288,49.84,-4.97,5.9,1
3289,49.85,-1.47,3.62,1
3290,49.87,5.54,3.6,1
3291,49.88,3.77,-4.13,1
3292,49.89,0.17,-10.22,1
3293,49.9,10.56,5.55,1
3294,49.92,23.7,25.74,1
3295,49.93,14.12,22.21,1
3296,49.95,-8.16,7.02,1
3297,49.96,-14.65,2.26,1
3298,49.97,-11.73,6.95,1
3299,49.99,-16.44,10.4,1
3300,50.0,-18.92,8.57,1
3301,50.01,-6.88,8.15,1
3302,50.03,6.62,16.0,1
3303,50.04,4.44,24.41,1
3304,50.05,-5.59,21.11,1
3305,50.06,-12.92,10.98,1
3306,50.08,-19.82,7.63,1
3307,50.09,-18.13,7.76,1
3308,50.11,-3.9,4.05,1
3309,50.12,5.34,5.89,1
3310,50.13,0.54,16.19,1
3311,50.15,-5.65,26.56,1
3312,50.16,-0.42,33.06,0
3313,50.17,9.34,29.53,0
3314,50.19,5.91,15.19,0
3315,50.2,-7.52,1.95,0
3316,50.21,-5.56,-4.76,0
3317,50.22,14.79,-20.43,0
3318,50.24,23.74,-60.73,0
3319,50.25,16.35,-104.93,0
3320,50.27,21.93,-116.1,0
3321,50.28,38.55,-95.87,0
3322,50.29,35.47,-79.68,0
3323,50.31,20.43,-83.82,0
3324,50.32,30.59,-91.73,0
3325,50.33,61.95,-88.65,0
3326,50.34,73.23,-78.75,0
3327,50.36,57.27,-76.09,0
3328,50.37,41.78,-84.26,0
3329,50.38,29.48,-82.45,0
3330,50.4,8.26,-54.98,0
3331,50.41,-14.17,-20.05,0
3332,50.42,-29.92,3.51,0
3333,50.44,-39.73,22.01,0
3334,50.45,-44.42,42.32,0
3335,50.46,-49.83,59.85,0
3336,50.48,-61.54,74.16,0
3337,50.49,-70.7,88.68,0
3338,50.51,-64.76,105.35,0
3339,50.52,-55.39,125.52,0
3340,50.53,-59.99,141.39,0
3341,50.54,-69.26,143.47,0
3342,50.56,-65.24,141.78,1
3343,50.57,-43.64,148.51,1
3344,50.59,-19.16,159.4,1
3345,50.6,-14.39,166.07,1
3346,50.61,-19.5,161.66,1
3347,50.63,-6.54,147.25,1
3348,50.64,12.73,133.66,1
3349,50.65,12.94,126.37,1
3350,50.67,4.99,119.82,1
3351,50.68,4.19,105.54,1
3352,50.69,5.28,84.3,1
3353,50.71,4.71,62.35,1
3354,50.72,7.33,44.89,1
3355,50.73,12.42,42.31,1
3356,50.75,10.89,51.34,1
3357,50.76,-0.67,49.17,1
3358,50.77,-8.59,28.25,1
3359,50.79,1.05,5.22,1
3360,50.8,15.31,-2.03,1
3361,50.81,12.1,1.13,1
3362,50.83,1.75,-4.41,1
3363,50.84,8.75,-15.52,1
3364,50.85,22.98,-18.51,1
3365,50.87,15.46,-16.22,1
3366,50.88,-6.17,-17.0,1
3367,50.89,-5.97,-24.7,1
3368,50.9,14.73,-36.87,1
3369,50.92,22.74,-45.08,1
3370,50.93,13.59,-44.68,1
3371,50.95,2.92,-41.92,1
3372,50.96,-3.44,-43.3,1
3373,50.97,-0.02,-44.03,1
3374,50.98,15.19,-40.98,1
3375,51.0,26.69,-40.13,1
3376,51.01,16.73,-42.06,1
3377,51.02,-2.64,-42.54,1
3378,51.04,-7.95,-42.76,1
3379,51.05,-6.82,-47.94,1
3380,51.06,-8.91,-59.64,1
3381,51.08,3.86,-71.21,1
3382,51.09,29.05,-73.83,1
3383,51.1,31.85,-67.85,1
3384,51.12,5.51,-61.86,1
3385,51.13,-12.16,-60.14,1
3386,51.15,3.9,-56.02,1
3387,51.16,26.76,-44.61,1
3388,51.17,26.38,-38.87,1
3389,51.19,17.25,-48.4,1
3390,51.2,17.83,-57.54,1
3391,51.21,17.86,-53.91,1
3392,51.22,11.99,-48.85,1
3393,51.24,5.09,-52.22,1
3394,51.25,-7.7,-56.64,1
3395,51.27,-22.96,-53.04,1
3396,51.28,-15.94,-44.7,1
3397,51.29,19.09,-41.13,1
3398,51.31,39.98,-45.0,1
3399,51.32,16.07,-48.41,1
3400,51.33,-15.24,-44.38,1
3401,51.35,-14.49,-32.89,1
3402,51.36,-5.56,-20.46,1
3403,51.37,-11.6,-21.21,1
3404,51.38,-10.66,-37.32,1
3405,51.4,4.2,-43.69,1
3406,51.41,12.11,-28.58,1
3407,51.43,13.06,-16.68,1
3408,51.44,16.49,-20.83,1
3409,51.45,16.85,-24.96,1
3410,51.47,10.92,-21.29,1
3411,51.48,1.47,-17.08,1
3412,51.49,-8.51,-13.03,1
3413,51.51,-10.61,-6.63,1
3414,51.52,0.31,-4.89,1
3415,51.53,14.96,-10.72,1
3416,51.54,18.23,-12.95,1
3417,51.56,6.74,-10.35,1
3418,51.57,-4.97,-13.03,1
3419,51.59,-4.84,-14.96,1
3420,51.6,-5.49,-9.82,1
3421,51.61,-17.27,-8.57,1
3422,51.62,-20.22,-11.61,1
3423,51.64,-6.63,-3.17,1
3424,51.65,0.58,13.32,1
3425,51.66,-2.65,17.57,1
3426,51.68,-0.09,9.21,1
3427,51.69,4.64,5.38,1
3428,51.7,-3.19,12.51,1
3429,51.72,-17.39,20.75,1
3430,51.73,-21.67,19.56,1
3431,51.74,-16.71,11.62,1
3432,51.76,-7.75,8.07,1
3433,51.77,3.86,11.75,1
3434,51.79,4.95,13.55,1
3435,51.8,-4.26,10.48,1
3436,51.81,-6.11,10.18,1
3437,51.83,-7.27,13.19,1
3438,51.84,-15.47,14.39,1
3439,51.85,-12.56,12.83,1
3440,51.87,-3.08,11.93,1
3441,51.88,-4.55,14.97,1
3442,51.89,-0.49,15.92,1
3443,51.9,13.41,11.07,1
3444,51.92,11.36,7.78,1
3445,51.93,-1.09,9.3,1
3446,51.95,0.38,14.23,1
3447,51.96,6.12,20.91,1
3448,51.97,-3.2,23.86,1
3449,51.99,-18.46,22.89,1
3450,52.0,-18.93,22.0,1
3451,52.01,-8.79,21.79,1
3452,52.03,-5.57,24.93,1
3453,52.04,-4.16,32.92,1
3454,52.05,3.16,34.93,1
3455,52.06,1.15,23.87,1
3456,52.08,-14.55,14.02,1
3457,52.09,-20.22,16.01,1
3458,52.11,-2.67,18.47,1
3459,52.12,15.94,16.01,1
3460,52.13,17.51,19.2,1
3461,52.15,13.31,29.66,1
3462,52.16,8.06,33.02,2
3463,52.17,-4.35,19.6,2
3464,52.19,-12.94,2.62,2
3465,52.2,-6.67,11.66,2
3466,52.21,7.63,69.74,2
3467,52.22,15.16,170.11,2
3468,52.24,5.38,268.79,2
3469,52.25,-8.21,318.26,2
3470,52.26,-7.43,312.21,2
3471,52.28,1.59,273.18,2
3472,52.29,7.83,213.75,2
3473,52.3,5.87,137.89,2
3474,52.32,-8.29,63.83,2
3475,52.33,-29.51,7.44,2
3476,52.34,-38.96,-42.99,2
3477,52.36,-27.05,-95.05,2
3478,52.37,-14.15,-137.72,2
3479,52.38,-14.93,-172.09,2
3480,52.4,-14.17,-205.17,2
3481,52.41,-2.74,-226.94,2
3482,52.43,4.03,-221.08,2
3483,52.44,0.27,-192.55,2
3484,52.45,3.12,-167.06,2
3485,52.47,15.79,-155.93,2
3486,52.48,23.67,-145.84,2
3487,52.49,25.2,-133.96,2
3488,52.51,23.8,-127.03,2
3489,52.52,19.84,-116.49,2
3490,52.53,19.27,-95.13,2
3491,52.54,21.19,-77.6,2
3492,52.56,16.27,-72.89,1
3493,52.57,9.21,-63.09,1
3494,52.59,12.23,-40.02,1
3495,52.6,16.02,-27.21,1
3496,52.61,10.03,-38.38,1
3497,52.63,7.52,-52.5,1
3498,52.64,9.3,-46.54,1
3499,52.65,0.66,-29.09,1
3500,52.67,-7.44,-22.28,1
3501,52.68,0.48,-24.89,1
3502,52.69,8.87,-21.59,1
3503,52.71,3.49,-13.45,1
3504,52.72,-4.23,-10.41,1
3505,52.73,-1.9,-10.48,1
3506,52.75,6.93,-6.37,1
3507,52.76,8.82,2.87,1
3508,52.77,1.57,12.55,1
3509,52.79,-2.21,19.19,1
3510,52.8,0.48,25.74,1
3511,52.81,0.58,32.52,1
3512,52.83,-7.16,31.91,1
3513,52.84,-16.72,26.54,1
3514,52.85,-14.05,26.07,1
3515,52.87,-2.24,28.86,1
3516,52.88,-0.99,30.44,1
3517,52.89,-8.21,35.74,1
3518,52.9,-7.75,42.18,1
3519,52.92,-0.98,39.55,1
3520,52.93,7.55,33.54,1
3521,52.94,14.46,32.79,1
3522,52.96,8.07,35.23,1
3523,52.97,-6.86,42.78,1
3524,52.98,-10.78,51.73,1
3525,53.0,-5.78,49.61,1
3526,53.01,-6.99,41.12,1
3527,53.02,-8.59,41.67,1
3528,53.04,1.41,48.18,1
3529,53.05,10.47,46.48,1
3530,53.06,2.92,35.96,1
3531,53.08,-10.24,30.58,1
3532,53.09,-12.17,39.22,1
3533,53.11,-4.95,50.52,1
3534,53.12,1.86,49.89,1
3535,53.13,4.65,43.76,1
3536,53.15,3.19,41.95,1
3537,53.16,-1.42,40.16,1
3538,53.17,-6.38,39.16,1
3539,53.19,-5.78,38.88,1
3540,53.2,-2.21,30.57,1
3541,53.21,-4.94,19.8,1
3542,53.22,-9.89,16.27,1
3543,53.24,-11.11,17.07,1
3544,53.25,-15.17,22.34,1
3545,53.27,-19.4,30.1,1
3546,53.28,-9.87,28.39,1
3547,53.29,6.35,19.05,1
3548,53.31,8.44,17.74,1
3549,53.32,-0.86,21.6,1
3550,53.33,-4.25,19.0,1
3551,53.35,-2.81,15.5,1
3552,53.36,-3.0,14.67,1
3553,53.37,1.41,12.78,1
3554,53.38,8.75,11.03,1
3555,53.4,9.07,10.99,1
3556,53.41,7.29,10.81,1
3557,53.43,6.22,8.28,1
3558,53.44,-4.62,9.87,1
3559,53.45,-16.45,19.39,1
3560,53.47,-10.99,19.09,1
3561,53.48,0.2,7.57,1
3562,53.49,0.79,5.06,1
3563,53.51,-0.92,2.48,1
3564,53.52,2.21,-12.74,1
3565,53.53,2.99,-19.15,1
3566,53.54,1.96,-8.72,1
3567,53.56,1.42,0.76,1
3568,53.57,-4.69,3.98,1
3569,53.58,-9.99,3.21,1
3570,53.6,-3.69,-1.66,1
3571,53.61,6.01,-8.72,1
3572,53.62,10.87,-16.62,1
3573,53.64,12.5,-18.77,1
3574,53.65,9.49,-12.14,1
3575,53.66,2.19,-5.87,1
3576,53.68,-6.65,-4.04,1
3577,53.69,-13.64,-5.92,1
3578,53.7,-11.29,-9.57,1
3579,53.72,-4.56,-9.09,1
3580,53.73,-7.1,-8.83,1
3581,53.75,-10.41,-17.5,1
3582,53.76,1.73,-24.78,1
3583,53.77,17.78,-17.51,1
3584,53.79,16.69,-9.27,1
3585,53.8,4.53,-13.84,1
3586,53.81,0.18,-17.62,1
3587,53.83,1.46,-15.25,1
3588,53.84,-1.05,-16.86,1
3589,53.85,-1.42,-16.9,1
3590,53.87,3.66,-8.87,1
3591,53.88,4.3,-6.36,1
3592,53.89,-0.71,-18.09,1
3593,53.9,1.12,-26.03,1
3594,53.92,12.86,-15.19,1
3595,53.93,20.4,-5.21,1
3596,53.95,12.74,-17.49,1
3597,53.96,0.79,-33.09,1
3598,53.97,0.4,-25.75,1
3599,53.99,4.17,-11.64,1
3600,54.0,-1.11,-17.92,1
3601,54.01,-11.55,-34.82,1
3602,54.03,-17.18,-35.33,1
3603,54.04,-13.2,-15.88,1
3604,54.05,-3.0,1.06,1
3605,54.06,1.7,0.07,1
3606,54.08,-6.31,-7.17,1
3607,54.09,-12.38,-7.55,1
3608,54.11,0.08,-9.38,1
3609,54.12,16.28,-19.44,1
3610,54.13,19.45,-23.32,1
3611,54.15,17.37,-19.66,1
3612,54.16,14.63,-30.71,2
3613,54.17,5.32,-60.99,2
3614,54.18,-4.77,-65.14,2
3615,54.2,-1.32,17.02,2
3616,54.21,10.34,129.75,2
3617,54.22,4.93,147.92,2
3618,54.24,-13.2,71.24,2
3619,54.25,0.66,-10.58,2
3620,54.26,50.22,-20.97,2
3621,54.28,66.36,28.49,2
3622,54.29,19.14,40.11,2
3623,54.3,-28.86,26.49,2
3624,54.32,-37.15,47.87,2
3625,54.33,-27.27,26.56,2
3626,54.34,-15.8,-39.22,2
3627,54.36,-14.41,-27.08,2
3628,54.37,-25.16,23.86,2
3629,54.38,-24.35,11.45,2
3630,54.4,-8.8,-2.36,2
3631,54.41,-3.78,39.02,2
3632,54.43,-8.97,39.75,2
3633,54.44,-0.79,-51.37,2
3634,54.45,9.38,-108.92,2
3635,54.47,-6.65,-60.04,2
3636,54.48,-23.08,-24.96,2
3637,54.49,-5.49,-92.29,2
3638,54.51,15.65,-160.14,2
3639,54.52,11.56,-113.26,2
3640,54.53,2.57,-6.52,2
3641,54.54,-1.2,40.08,2
3642,54.56,-8.08,1.75,1
3643,54.57,-6.99,-59.7,1
3644,54.59,8.43,-76.97,1
3645,54.6,16.05,-58.51,1
3646,54.61,6.22,-51.8,1
3647,54.63,-1.26,-30.42,1
3648,54.64,6.12,18.48,1
3649,54.65,22.57,7.41,1
3650,54.67,34.99,-71.55,1
3651,54.68,29.49,-88.75,1
3652,54.69,8.29,-16.92,1
3653,54.71,-5.58,24.8,1
3654,54.72,0.98,4.26,1
3655,54.73,9.31,13.75,1
3656,54.75,1.8,74.36,1
3657,54.76,-6.19,89.2,1
3658,54.77,-0.56,18.75,1
3659,54.79,7.34,-55.9,1
3660,54.8,6.58,-62.65,1
3661,54.81,-0.77,-35.12,1
3662,54.82,-10.95,-30.25,1
3663,54.84,-18.2,-4.57,1
3664,54.85,-12.64,47.27,1
3665,54.86,1.81,28.44,1
3666,54.88,8.81,-25.49,1
3667,54.89,0.07,-6.13,1
3668,54.9,-13.17,41.9,1
3669,54.92,-12.08,35.63,1
3670,54.93,-1.63,-1.82,1
3671,54.94,1.88,-13.93,1
3672,54.96,-2.53,-4.61,1
3673,54.97,-11.61,-8.01,1
3674,54.98,-16.25,-15.67,1
3675,55.0,-7.3,-2.9,1
3676,55.01,1.7,19.54,1
3677,55.03,-3.71,30.69,1
3678,55.04,-9.51,34.45,1
3679,55.05,-2.02,23.5,1
3680,55.06,3.66,-16.53,1
3681,55.08,-3.35,-32.71,1
3682,55.09,-5.92,20.61,1
3683,55.11,2.75,72.12,1
3684,55.12,4.38,42.72,1
3685,55.13,-4.06,-14.71,1
3686,55.15,-6.94,-0.91,1
3687,55.16,-2.48,52.41,1
3688,55.17,-1.62,47.22,1
3689,55.19,-4.03,11.98,1
3690,55.2,1.98,30.17,1
3691,55.21,10.37,70.32,1
3692,55.22,7.27,64.7,1
3693,55.24,-2.26,28.34,1
3694,55.25,-16.3,6.72,1
3695,55.27,-31.13,9.92,1
3696,55.28,-23.82,17.34,1
3697,55.29,2.55,10.13,1
3698,55.31,10.45,8.5,1
3699,55.32,-6.22,34.24,1
3700,55.33,-10.34,45.14,1
3701,55.35,2.87,10.84,1
3702,55.36,-1.73,-16.73,1
3703,55.37,-13.34,-9.22,1
3704,55.38,1.67,4.33,1
3705,55.4,17.06,9.28,1
3706,55.41,5.27,4.68,1
3707,55.43,-2.23,3.18,1
3708,55.44,10.15,16.97,1
3709,55.45,9.36,27.46,1
3710,55.46,-12.49,27.59,1
3711,55.48,-21.21,26.13,1
3712,55.49,-0.12,12.36,1
3713,55.5,25.79,-6.01,1
3714,55.52,25.54,-8.44,1
3715,55.53,6.42,-1.11,1
3716,55.54,-4.72,8.86,1
3717,55.56,-10.52,1.14,1
3718,55.57,-21.55,-20.06,1
3719,55.58,-22.9,5.79,1
3720,55.6,-8.25,56.78,1
3721,55.61,7.23,59.17,1
3722,55.62,11.67,36.86,1
3723,55.64,8.7,16.5,1
3724,55.65,9.06,-3.76,1
3725,55.66,10.7,17.77,1
3726,55.68,6.19,55.82,1
3727,55.69,1.79,32.48,1
3728,55.71,3.47,-11.32,1
3729,55.72,6.47,-4.67,1
3730,55.73,8.39,16.07,1
3731,55.75,9.99,16.21,1
3732,55.76,5.21,11.88,1
3733,55.77,-3.25,2.91,1
3734,55.79,0.16,-4.82,1
3735,55.8,13.39,2.79,1
3736,55.81,21.51,10.59,1
3737,55.83,25.1,4.49,1
3738,55.84,25.96,1.25,1
3739,55.85,16.7,13.6,1
3740,55.87,1.75,18.37,1
3741,55.88,-5.68,0.96,1
3742,55.89,-1.41,-4.67,1
3743,55.9,10.86,9.13,1
3744,55.92,19.18,-12.04,1
3745,55.93,15.89,-53.63,1
3746,55.95,11.33,-44.45,1
3747,55.96,7.77,-8.56,1
3748,55.97,-8.23,10.33,1
3749,55.99,-25.82,9.32,1
3750,56.0,-22.48,-25.56,1
3751,56.01,-3.33,-53.48,1
3752,56.03,14.65,-36.26,1
3753,56.04,18.24,-22.47,1
3754,56.05,5.12,-28.14,1
3755,56.06,-9.82,-26.48,1
3756,56.08,-17.04,-29.55,1
3757,56.09,-21.07,-46.25,1
3758,56.1,-20.15,-43.24,1
3759,56.12,-10.95,-8.08,1
3760,56.13,-1.82,-1.37,1
3761,56.14,5.31,-49.23,1
3762,56.16,10.8,-57.54,0
3763,56.17,5.3,11.19,0
3764,56.18,-6.54,40.33,0
3765,56.2,-11.14,-8.94,0
3766,56.21,-7.63,-42.17,0
3767,56.22,-2.44,-57.57,0
3768,56.24,-1.75,-116.89,0
3769,56.25,-7.45,-177.5,0
3770,56.26,-10.4,-179.63,0
3771,56.28,1.63,-154.57,0
3772,56.29,13.57,-153.01,0
3773,56.3,-2.94,-164.26,0
3774,56.32,-35.0,-146.69,0
3775,56.33,-47.58,-97.44,0
3776,56.35,-32.69,-41.08,0
3777,56.36,-4.79,18.08,0
3778,56.37,13.76,77.72,0
3779,56.38,12.93,114.1,0
3780,56.4,10.67,120.69,0
3781,56.41,16.62,122.47,0
3782,56.43,17.95,128.78,0
3783,56.44,11.49,125.6,0
3784,56.45,4.71,114.18,0
3785,56.47,1.68,110.48,0
3786,56.48,2.1,113.59,0
3787,56.49,1.81,109.42,0
3788,56.51,-1.7,96.72,0
3789,56.52,-6.78,87.14,0
3790,56.53,-6.26,88.03,0
3791,56.54,0.04,87.46,0
3792,56.56,-3.82,73.19,1
3793,56.57,-12.96,59.21,1
3794,56.59,-3.43,58.17,1
3795,56.6,12.79,58.99,1
3796,56.61,11.49,46.74,1
3797,56.63,6.46,25.52,1
3798,56.64,11.19,16.45,1
3799,56.65,13.98,17.18,1
3800,56.67,8.16,5.35,1
3801,56.68,-4.68,-8.94,1
3802,56.69,-16.44,-9.43,1
3803,56.71,-12.68,-9.59,1
3804,56.72,0.02,-10.35,1
3805,56.73,4.11,-2.21,1
3806,56.74,1.85,-0.25,1
3807,56.76,-2.85,-12.39,1
3808,56.77,-10.99,-20.89,1
3809,56.78,-12.73,-15.47,1
3810,56.8,-8.62,-7.51,1
3811,56.81,-8.0,-10.85,1
3812,56.82,-4.32,-19.58,1
3813,56.84,1.51,-22.09,1
3814,56.85,-0.97,-21.16,1
3815,56.86,-4.22,-17.32,1
3816,56.88,1.4,-9.42,1
3817,56.89,11.83,-4.47,1
3818,56.9,17.96,-4.65,1
3819,56.92,15.74,-7.48,1
3820,56.93,11.63,-11.78,1
3821,56.94,4.74,-16.89,1
3822,56.96,-13.19,-24.87,1
3823,56.97,-32.14,-33.44,1
3824,56.99,-33.64,-32.93,1
3825,57.0,-13.97,-23.46,1
3826,57.01,11.52,-16.67,1
3827,57.03,20.81,-18.7,1
3828,57.04,12.4,-24.08,1
3829,57.05,7.53,-25.48,1
3830,57.06,12.74,-24.89,1
3831,57.08,9.49,-25.7,1
3832,57.09,-9.93,-24.25,1
3833,57.11,-25.45,-21.28,1
3834,57.12,-25.02,-17.93,1
3835,57.13,-18.3,-9.72,1
3836,57.15,-7.08,0.28,1
3837,57.16,7.85,10.67,1
3838,57.17,11.31,17.19,1
3839,57.19,-0.3,-2.09,1
3840,57.2,-10.93,-40.03,1
3841,57.21,-9.68,-51.69,1
3842,57.22,0.61,-26.93,1
3843,57.24,12.9,-3.67,1
3844,57.25,19.6,-7.35,1
3845,57.27,14.49,-16.9,1
3846,57.28,-0.54,-4.6,1
3847,57.29,-16.49,10.16,1
3848,57.31,-22.1,-5.16,1
3849,57.32,-15.73,-27.11,1
3850,57.33,-5.64,-22.15,1
3851,57.35,9.76,-10.54,1
3852,57.36,29.9,-14.55,1
3853,57.37,36.93,-23.18,1
3854,57.38,24.37,-22.11,1
3855,57.4,7.71,-8.48,1
3856,57.41,-1.67,4.22,1
3857,57.42,-5.6,-2.86,1
3858,57.44,-7.96,-20.94,1
3859,57.45,-2.36,-23.5,1
3860,57.46,15.82,-14.04,1
3861,57.48,24.66,-13.92,1
3862,57.49,6.88,-15.93,1
3863,57.5,-12.06,-4.61,1
3864,57.52,-10.89,5.88,1
3865,57.53,-4.03,1.41,1
3866,57.54,1.89,-1.59,1
3867,57.56,11.06,10.66,1
3868,57.57,12.17,24.74,1
3869,57.58,-2.58,23.65,1
3870,57.6,-17.78,6.29,1
3871,57.61,-11.48,-11.7,1
3872,57.625,9.64,-13.58,1
3873,57.64,13.66,-4.42,1
3874,57.65,-1.56,1.71,1
3875,57.67,-8.62,6.38,1
3876,57.68,-5.86,13.84,1
3877,57.69,-8.17,18.28,1
3878,57.71,-7.15,18.72,1
3879,57.72,5.86,19.12,1
3880,57.73,10.98,12.02,1
3881,57.75,-4.82,-2.96,1
3882,57.76,-18.78,-3.9,1
3883,57.77,-8.66,12.19,1
3884,57.79,10.48,16.91,1
3885,57.8,14.8,3.1,1
3886,57.81,8.71,-2.96,1
3887,57.83,2.91,7.41,1
3888,57.84,-5.06,11.75,1
3889,57.85,-8.36,4.19,1
3890,57.87,3.2,3.9,1
3891,57.88,12.71,10.37,1
3892,57.89,1.72,9.98,1
3893,57.9,-7.47,7.55,1
3894,57.92,6.86,11.1,1
3895,57.93,17.76,16.11,1
3896,57.95,1.55,14.26,1
3897,57.96,-15.57,2.72,1
3898,57.97,-8.14,-10.53,1
3899,57.99,5.55,-14.98,1
3900,58.0,3.77,-6.89,1
3901,58.01,-3.52,6.3,1
3902,58.02,0.05,9.02,1
3903,58.04,12.38,-4.24,1
3904,58.05,21.62,-10.99,1
3905,58.06,16.92,10.74,1
3906,58.08,-0.92,29.09,1
3907,58.09,-15.08,12.71,1
3908,58.1,-16.75,2.93,1
3909,58.12,-11.78,22.66,1
3910,58.13,-0.41,26.44,1
3911,58.14,7.24,4.96,1
3912,58.16,-3.15,-0.83,0
3913,58.17,-9.83,9.14,0
3914,58.18,2.31,-1.71,0
3915,58.2,4.69,-34.87,0
3916,58.21,-8.01,-55.71,0
3917,58.22,-8.18,-50.66,0
3918,58.24,-6.02,-50.14,0
3919,58.25,-23.85,-79.39,0
3920,58.26,-28.16,-117.55,0
3921,58.28,10.59,-137.95,0
3922,58.29,47.76,-138.34,0
3923,58.31,36.27,-125.62,0
3924,58.32,3.38,-108.19,0
3925,58.33,-2.2,-90.29,0
3926,58.35,19.78,-71.21,0
3927,58.36,38.08,-51.71,0
3928,58.37,37.06,-32.87,0
3929,58.38,23.66,-11.96,0
3930,58.4,4.86,10.85,0
3931,58.41,-16.69,29.56,0
3932,58.43,-25.43,47.36,0
3933,58.44,-10.45,73.85,0
3934,58.45,9.94,100.85,0
3935,58.47,12.84,112.08,0
3936,58.48,-3.63,111.25,0
3937,58.49,-24.98,111.93,0
3938,58.51,-33.64,119.86,0
3939,58.52,-22.29,132.55,0
3940,58.53,0.82,137.42,0
3941,58.54,16.81,128.39,0
3942,58.56,9.71,120.36,1
3943,58.57,-14.12,122.44,1
3944,58.59,-27.6,121.21,1
3945,58.6,-20.36,107.49,1
3946,58.61,-13.04,94.97,1
3947,58.63,-12.1,98.25,1
3948,58.64,-0.08,108.02,1
3949,58.65,16.51,103.87,1
3950,58.66,10.85,86.93,1
3951,58.68,-13.75,75.73,1
3952,58.69,-28.08,72.46,1
3953,58.7,-23.66,65.88,1
3954,58.72,-19.75,52.75,1
3955,58.73,-17.64,36.91,1
3956,58.74,-0.25,25.23,1
3957,58.76,11.48,19.74,1
3958,58.77,-7.21,19.87,1
3959,58.78,-25.3,24.95,1
3960,58.8,-16.08,20.67,1
3961,58.81,-3.36,-3.17,1
3962,58.82,-7.72,-28.44,1
3963,58.84,-16.7,-32.96,1
3964,58.85,-15.73,-20.51,1
3965,58.86,-9.1,-12.38,1
3966,58.88,-4.85,-19.23,1
3967,58.89,2.25,-32.23,1
3968,58.9,13.75,-37.44,1
3969,58.92,13.9,-33.86,1
3970,58.93,1.97,-35.43,1
3971,58.95,-2.82,-45.97,1
3972,58.96,-5.96,-53.71,1
3973,58.97,-16.15,-56.76,1
3974,58.99,-9.28,-59.76,1
3975,59.0,17.11,-57.13,1
3976,59.01,29.98,-50.57,1
3977,59.03,22.62,-54.09,1
3978,59.04,9.85,-63.29,1
3979,59.05,-5.54,-59.86,1
3980,59.06,-11.33,-47.54,1
3981,59.08,-0.42,-41.95,1
3982,59.09,5.35,-45.52,1
3983,59.11,-3.32,-53.11,1
3984,59.12,-10.22,-56.29,1
3985,59.13,-6.11,-49.27,1
3986,59.15,7.63,-41.48,1
3987,59.16,19.66,-42.21,1
3988,59.17,15.54,-46.11,1
3989,59.19,3.42,-48.03,1
3990,59.2,1.73,-46.64,1
3991,59.21,4.68,-41.83,1
3992,59.22,-3.72,-39.57,1
3993,59.24,-13.41,-42.51,1
3994,59.25,-4.47,-46.16,1
3995,59.27,17.76,-43.32,1
3996,59.28,27.16,-33.58,1
3997,59.29,14.75,-32.37,1
3998,59.3,-1.43,-44.63,1
3999,59.32,-8.3,-52.54,1
4000,59.33,-6.94,-46.96,1
4001,59.34,1.61,-31.66,1
4002,59.36,13.11,-15.99,1
4003,59.37,16.36,-17.28,1
4004,59.38,7.23,-33.95,1
4005,59.4,-1.44,-38.23,1
4006,59.41,3.09,-22.28,1
4007,59.42,15.48,-10.05,1
4008,59.44,22.4,-16.14,1
4009,59.45,20.69,-29.41,1
4010,59.46,11.25,-30.36,1
4011,59.48,-6.67,-14.31,1
4012,59.49,-20.15,-0.91,1
4013,59.5,-13.75,-5.92,1
4014,59.52,-0.18,-16.69,1
4015,59.53,3.23,-15.23,1
4016,59.54,5.09,-5.59,1
4017,59.56,13.19,-3.22,1
4018,59.57,17.28,-7.61,1
4019,59.59,12.96,-5.58,1
4020,59.6,7.0,3.34,1
4021,59.61,7.74,5.72,1
4022,59.63,12.13,-2.24,1
4023,59.64,6.55,-5.22,1
4024,59.65,-4.49,1.58,1
4025,59.67,-5.78,2.62,1
4026,59.68,-3.89,-4.88,1
4027,59.69,-7.84,-4.52,1
4028,59.71,-9.28,7.83,1
4029,59.72,-5.22,14.89,1
4030,59.73,0.23,10.88,1
4031,59.75,9.57,11.99,1
4032,59.76,17.17,20.51,1
4033,59.77,11.63,18.43,1
4034,59.79,-3.32,5.5,1
4035,59.8,-14.09,3.78,1
4036,59.81,-10.38,17.23,1
4037,59.83,3.71,25.3,1
4038,59.84,8.95,22.26,1
4039,59.85,2.2,25.12,1
4040,59.87,1.65,37.6,1
4041,59.88,7.15,40.76,1
4042,59.89,2.94,27.68,1
4043,59.9,-6.53,16.34,1
4044,59.92,-10.38,18.0,1
4045,59.93,-12.25,21.58,1
4046,59.94,-14.88,18.69,1
4047,59.96,-12.28,19.34,1
4048,59.97,-5.74,27.18,1
4049,59.98,-6.27,27.98,1
4050,60.0,-13.71,18.43,1
4051,60.01,-13.21,11.82,1
4052,60.02,-1.07,13.55,1
4053,60.04,6.76,18.02,1
4054,60.05,-0.14,21.13,1
4055,60.06,-11.76,20.87,1
4056,60.08,-16.12,16.38,1
4057,60.09,-15.11,12.5,1
4058,60.1,-13.1,13.51,1
4059,60.12,-8.13,17.86,1
4060,60.13,-1.05,18.55,1
4061,60.14,3.25,10.9,1
4062,60.16,6.33,12.22,2
4063,60.17,14.04,56.39,2
4064,60.18,20.5,150.57,2
4065,60.2,12.66,252.57,2
4066,60.21,-0.93,309.5,2
4067,60.22,2.99,305.33,2
4068,60.24,11.1,256.1,2
4069,60.25,-0.12,186.43,2
4070,60.27,-2.75,119.26,2
4071,60.28,21.43,68.94,2
4072,60.29,30.67,30.39,2
4073,60.31,0.01,-12.22,2
4074,60.32,-42.96,-54.91,2
4075,60.33,-71.06,-89.51,2
4076,60.35,-79.68,-128.51,2
4077,60.36,-67.18,-169.72,2
4078,60.37,-36.76,-191.62,2
4079,60.38,-10.58,-195.98,2
4080,60.4,-6.09,-192.9,2
4081,60.41,-8.07,-177.7,2
4082,60.43,3.27,-156.4,2
4083,60.44,20.79,-143.9,2
4084,60.45,32.24,-142.46,2
4085,60.47,34.62,-143.03,2
4086,60.48,21.62,-135.71,2
4087,60.49,0.67,-122.98,2
4088,60.51,-0.05,-112.23,2
4089,60.52,22.54,-97.68,2
4090,60.53,41.08,-75.93,2
4091,60.54,43.55,-61.97,2
4092,60.56,42.3,-62.4,1
4093,60.57,49.14,-63.79,1
4094,60.58,49.24,-60.84,1
4095,60.6,23.07,-59.78,1
4096,60.61,-4.4,-56.69,1
4097,60.62,1.55,-41.65,1
4098,60.64,19.74,-21.84,1
4099,60.65,10.72,-12.91,1
4100,60.66,-10.7,-10.39,1
4101,60.68,-7.86,-3.56,1
4102,60.69,9.73,-0.18,1
4103,60.7,15.14,-2.74,1
4104,60.72,7.85,1.34,1
4105,60.73,-3.32,10.29,1
4106,60.74,-12.08,15.04,1
4107,60.76,-15.64,21.47,1
4108,60.77,-20.13,33.53,1
4109,60.78,-21.38,37.33,1
4110,60.8,-6.44,30.22,1
4111,60.81,9.41,33.81,1
4112,60.82,0.28,53.1,1
4113,60.84,-16.2,61.62,1
4114,60.85,-8.98,51.11,1
4115,60.865,3.34,42.31,1
4116,60.88,-5.37,40.61,1
4117,60.89,-13.56,35.63,1
4118,60.9,-2.98,35.72,1
4119,60.92,4.19,49.02,1
4120,60.93,-2.67,53.92,1
4121,60.95,-5.33,40.58,1
4122,60.96,1.14,37.27,1
4123,60.97,3.76,51.18,1
4124,60.99,1.03,52.82,1
4125,61.0,-0.42,37.76,1
4126,61.01,-0.58,30.53,1
4127,61.03,-1.8,37.44,1
4128,61.04,-7.16,44.1,1
4129,61.05,-13.32,44.17,1
4130,61.06,-5.39,41.56,1
4131,61.08,8.69,42.69,1
4132,61.09,-2.28,49.88,1
4133,61.11,-26.25,54.78,1
4134,61.12,-21.28,49.01,1
4135,61.13,3.26,35.79,1
4136,61.15,7.07,28.24,1
4137,61.16,-4.41,35.69,1
4138,61.17,-4.71,46.44,1
4139,61.19,-0.68,41.19,1
4140,61.2,-7.09,25.31,1
4141,61.21,-16.44,19.84,1
4142,61.22,-18.23,21.66,1
4143,61.24,-15.09,14.95,1
4144,61.25,-14.67,9.86,1
4145,61.26,-17.12,16.25,1
4146,61.28,-13.93,21.53,1
4147,61.29,-2.37,20.25,1
4148,61.3,7.17,15.78,1
4149,61.32,3.7,7.95,1
4150,61.33,-11.08,2.22,1
4151,61.34,-25.55,4.17,1
4152,61.36,-26.28,12.64,1
4153,61.37,-6.88,23.96,1
4154,61.38,19.04,29.48,1
4155,61.4,26.43,25.27,1
4156,61.41,10.34,16.13,1
4157,61.42,-4.9,4.51,1
4158,61.44,7.21,-5.13,1
4159,61.45,38.99,-7.15,1
4160,61.46,47.2,0.46,1
4161,61.48,17.27,12.09,1
4162,61.49,-5.68,9.97,1
4163,61.5,9.3,-9.42,1
4164,61.52,24.3,-13.14,1
4165,61.53,5.33,11.72,1
4166,61.54,-13.22,23.55,1
4167,61.56,0.32,2.54,1
4168,61.57,12.98,-12.96,1
4169,61.59,-0.71,-3.87,1
4170,61.6,-13.11,1.51,1
4171,61.61,-8.6,-11.46,1
4172,61.63,-6.62,-22.02,1
4173,61.64,-9.73,-15.74,1
4174,61.65,-2.81,-4.75,1
4175,61.67,8.05,-6.16,1
4176,61.68,7.07,-15.79,1
4177,61.69,-1.36,-20.41,1
4178,61.71,-7.38,-20.77,1
4179,61.72,-12.92,-18.51,1
4180,61.73,-15.76,-12.66,1
4181,61.75,-8.24,-13.63,1
4182,61.76,5.56,-24.82,1
4183,61.77,19.09,-26.94,1
4184,61.79,26.98,-14.54,1
4185,61.8,15.46,-13.75,1
4186,61.81,-9.21,-30.96,1
4187,61.83,-18.54,-35.15,1
4188,61.84,-12.49,-20.96,1
4189,61.85,-8.2,-16.63,1
4190,61.86,2.45,-23.04,1
4191,61.88,21.82,-21.02,1
4192,61.89,25.57,-15.22,1
4193,61.9,10.43,-18.38,1
4194,61.92,-0.44,-24.28,1
4195,61.93,-2.48,-23.34,1
4196,61.94,-4.9,-22.45,1
4197,61.96,-3.79,-23.51,1
4198,61.97,4.23,-13.34,1
4199,61.98,5.78,0.72,1
4200,62.0,-6.36,-4.02,1
4201,62.01,-13.46,-19.2,1
4202,62.02,-3.0,-17.92,1
4203,62.04,3.98,0.92,1
4204,62.05,-9.63,11.27,1
4205,62.06,-22.84,-1.12,1
4206,62.08,-18.13,-17.94,1
4207,62.09,-16.16,-21.03,1
4208,62.1,-24.98,-14.26,1
4209,62.12,-13.45,-8.4,1
4210,62.13,22.66,-12.49,1
4211,62.14,42.31,-28.73,1
4212,62.16,26.66,-50.78,2
4213,62.17,-0.91,-64.65,2
4214,62.19,-17.31,-33.58,2
4215,62.2,-19.18,53.22,2
4216,62.21,-7.9,92.42,2
4217,62.22,5.61,-1.71,2
4218,62.24,10.45,-51.88,2
4219,62.25,30.74,137.57,2
4220,62.27,69.93,331.28,2
4221,62.28,69.29,222.98,2
4222,62.29,15.36,-21.58,2
4223,62.31,-37.82,-94.79,2
4224,62.32,-56.96,7.72,2
4225,62.33,-28.44,54.33,2
4226,62.35,24.25,-82.15,2
4227,62.36,30.79,-172.43,2
4228,62.37,-9.43,-40.26,2
4229,62.38,-21.77,81.49,2
4230,62.4,2.24,54.33,2
4231,62.41,4.44,34.22,2
4232,62.43,-18.4,62.79,2
4233,62.44,-11.37,58.91,2
4234,62.45,24.51,27.2,2
4235,62.47,24.13,-8.71,2
4236,62.48,-30.69,-60.69,2
4237,62.49,-83.64,-102.82,2
4238,62.5,-75.89,-116.22,2
4239,62.52,-22.0,-152.29,2
4240,62.53,9.0,-216.39,2
4241,62.54,6.75,-221.03,2
4242,62.56,12.81,-170.51,1
4243,62.57,30.88,-163.59,1
4244,62.58,45.53,-152.13,1
4245,62.6,39.71,-62.9,1
4246,62.61,12.53,-28.81,1
4247,62.62,10.76,-91.83,1
4248,62.64,28.21,-71.7,1
4249,62.65,5.61,33.03,1
4250,62.66,-19.72,54.93,1
4251,62.68,4.08,29.38,1
4252,62.69,25.33,68.0,1
4253,62.7,11.04,95.59,1
4254,62.72,1.42,52.17,1
4255,62.73,9.71,31.93,1
4256,62.74,7.24,31.81,1
4257,62.76,-16.86,-34.95,1
4258,62.77,-38.01,-85.44,1
4259,62.78,-25.34,-26.27,1
4260,62.8,10.85,44.82,1
4261,62.81,21.3,39.09,1
4262,62.825,-8.78,4.0,1
4263,62.84,-35.75,-20.09,1
4264,62.85,-30.47,-16.99,1
4265,62.87,-16.79,57.88,1
4266,62.88,-21.85,121.89,1
4267,62.89,-27.02,30.78,1
4268,62.9,-11.18,-104.71,1
4269,62.92,3.07,-71.02,1
4270,62.93,2.54,78.55,1
4271,62.95,3.17,140.82,1
4272,62.96,-0.09,67.76,1
4273,62.97,-13.95,-7.06,1
4274,62.99,-9.32,32.46,1
4275,63.0,23.46,113.08,1
4276,63.01,35.14,101.01,1
4277,63.03,1.7,24.72,1
4278,63.04,-23.52,-2.71,1
4279,63.05,-5.87,7.52,1
4280,63.06,16.91,-36.02,1
4281,63.08,18.03,-86.09,1
4282,63.09,13.32,-48.7,1
4283,63.11,0.06,-1.56,1
4284,63.12,-24.65,-7.98,1
4285,63.13,-27.12,4.46,1
4286,63.14,-9.03,29.48,1
4287,63.16,-6.57,17.12,1
4288,63.17,-11.61,4.05,1
4289,63.18,-4.41,0.53,1
4290,63.2,3.7,-20.58,1
4291,63.21,8.24,-40.59,1
4292,63.22,17.44,-18.42,1
4293,63.24,28.07,38.67,1
4294,63.25,29.96,60.56,1
4295,63.26,4.77,36.02,1
4296,63.28,-34.47,37.85,1
4297,63.29,-33.57,55.97,1
4298,63.3,-2.21,24.85,1
4299,63.32,1.26,-7.31,1
4300,63.33,-9.0,20.2,1
4301,63.34,6.94,55.57,1
4302,63.36,22.7,40.07,1
4303,63.37,8.37,-24.64,1
4304,63.38,-4.54,-53.3,1
4305,63.4,11.46,26.89,1
4306,63.41,24.44,91.92,1
4307,63.42,5.99,42.04,1
4308,63.44,-9.03,0.93,1
4309,63.45,14.11,28.24,1
4310,63.46,42.23,23.37,1
4311,63.48,30.48,-34.85,1
4312,63.49,-2.4,-49.13,1
4313,63.51,-9.2,14.77,1
4314,63.52,10.85,71.34,1
4315,63.53,27.29,73.11,1
4316,63.54,27.87,49.36,1
4317,63.56,16.41,19.37,1
4318,63.57,6.18,6.58,1
4319,63.59,10.79,9.24,1
4320,63.6,9.89,-5.2,1
4321,63.61,-15.96,-16.44,1
4322,63.63,-34.25,5.72,1
4323,63.64,-23.73,42.73,1
4324,63.65,-9.83,50.46,1
4325,63.67,-8.37,7.03,1
4326,63.68,-13.82,-22.71,1
4327,63.69,-13.51,7.53,1
4328,63.71,-0.35,26.02,1
4329,63.72,6.63,-1.45,1
4330,63.73,-7.36,-17.45,1
4331,63.75,-11.2,19.67,1
4332,63.76,13.29,82.05,1
4333,63.77,20.32,79.66,1
4334,63.78,-6.59,-13.8,1
4335,63.8,-18.38,-91.21,1
4336,63.81,-5.56,-64.59,1
4337,63.82,-2.5,-1.26,1
4338,63.84,-6.19,4.25,1
4339,63.85,2.75,-2.45,1
4340,63.86,10.79,44.0,1
4341,63.88,-1.07,85.66,1
4342,63.89,-16.15,46.81,1
4343,63.9,-9.87,-31.03,1
4344,63.92,2.93,-46.49,1
4345,63.93,1.89,-7.61,1
4346,63.94,7.5,-13.07,1
4347,63.96,28.15,-49.34,1
4348,63.97,30.8,-31.53,1
4349,63.98,15.07,10.28,1
4350,64.0,7.67,5.79,1
4351,64.01,1.51,-33.88,1
4352,64.02,-10.4,-61.96,1
4353,64.04,-15.24,-54.73,1
4354,64.05,-10.15,-15.31,1
4355,64.06,2.74,34.73,1
4356,64.08,15.04,53.94,1
4357,64.09,7.49,18.08,1
4358,64.1,-16.58,-28.37,1
4359,64.12,-25.57,-35.15,1
4360,64.13,-12.65,-42.82,1
4361,64.14,-1.39,-83.4,1
4362,64.16,4.97,-102.12,0
4363,64.17,12.19,-109.77,0
4364,64.18,12.04,-169.91,0
4365,64.2,10.0,-227.97,0
4366,64.21,13.32,-197.75,0
4367,64.22,10.63,-109.8,0
4368,64.24,1.67,-41.55,0
4369,64.25,1.73,-17.13,0
4370,64.26,6.5,-21.9,0
4371,64.28,-4.95,-34.32,0
4372,64.29,-23.72,-28.21,0
4373,64.3,-23.91,7.19,0
4374,64.32,-18.46,47.47,0
4375,64.33,-26.08,68.59,0
4376,64.34,-25.61,77.69,0
4377,64.36,-7.36,86.94,0
4378,64.37,4.13,96.56,0
4379,64.38,2.13,101.99,0
4380,64.4,-2.47,101.08,0
4381,64.41,-7.54,100.24,0
4382,64.42,-7.11,100.58,0
4383,64.44,3.58,93.59,0
4384,64.45,10.33,80.8,0
4385,64.46,-0.13,69.48,0
4386,64.48,-17.53,57.87,0
4387,64.49,-26.99,47.28,0
4388,64.5,-26.67,44.45,0
4389,64.52,-17.32,45.75,0
4390,64.53,-6.07,45.28,0
4391,64.54,0.1,43.76,0
4392,64.56,10.21,36.99,1
4393,64.57,20.61,24.43,1
4394,64.58,10.31,13.66,1
4395,64.6,-11.75,3.71,1
4396,64.61,-15.49,-4.33,1
4397,64.62,1.85,-1.68,1
4398,64.64,20.53,4.84,1
4399,64.65,24.01,3.11,1
4400,64.66,9.84,1.57,1
4401,64.68,-7.17,11.37,1
4402,64.69,-11.14,19.23,1
4403,64.7,-3.19,9.67,1
4404,64.72,2.84,-5.94,1
4405,64.73,-0.63,-8.34,1
4406,64.74,-1.0,-0.91,1
4407,64.76,12.92,-1.4,1
4408,64.77,22.84,-8.91,1
4409,64.79,10.47,-8.64,1
4410,64.8,-5.94,-2.36,1
4411,64.81,-4.34,-0.28,1
4412,64.82,5.41,-2.13,1
4413,64.84,8.88,-3.75,1
4414,64.85,8.66,-4.46,1
4415,64.86,5.6,-8.0,1
4416,64.88,-2.95,-18.08,1
4417,64.89,-9.07,-26.58,1
4418,64.9,-5.83,-21.55,1
4419,64.92,0.82,-8.68,1
4420,64.93,1.95,-3.61,1
4421,64.94,-1.58,-12.53,1
4422,64.96,-0.69,-25.03,1
4423,64.97,7.11,-28.24,1
4424,64.98,13.94,-28.32,1
4425,65.0,16.98,-29.46,1
4426,65.01,16.18,-20.69,1
4427,65.02,6.24,-9.82,1
4428,65.04,-5.65,-10.58,1
4429,65.05,-5.73,-12.31,1
4430,65.06,-2.38,-11.24,1
4431,65.08,-8.64,-17.44,1
4432,65.09,-16.72,-25.43,1
4433,65.1,-17.4,-27.53,1
4434,65.12,-12.35,-29.19,1
4435,65.13,-7.79,-28.34,1
4436,65.14,-6.68,-20.42,1
4437,65.16,-2.91,-16.32,1
4438,65.17,4.82,-19.92,1
4439,65.18,7.06,-18.54,1
4440,65.2,0.74,-9.37,1
4441,65.21,-7.26,-4.38,1
4442,65.22,-5.63,-11.31,1
4443,65.24,10.41,-18.89,1
4444,65.25,19.96,-16.74,1
4445,65.26,3.97,-15.09,1
4446,65.28,-12.83,-17.31,1
4447,65.29,-5.39,-12.39,1
4448,65.3,6.57,-4.77,1
4449,65.32,3.41,-8.36,1
4450,65.33,-2.07,-16.98,1
4451,65.34,2.87,-14.7,1
4452,65.36,9.1,-8.94,1
4453,65.37,5.08,-13.68,1
4454,65.38,-4.01,-14.12,1
4455,65.4,-1.37,-1.43,1
4456,65.41,13.97,1.34,1
4457,65.42500000000001,17.62,-10.58,1
4458,65.44,2.76,-13.87,1
4459,65.45,-4.87,-7.82,1
4460,65.46,0.97,-8.66,1
4461,65.48,4.37,-12.84,1
4462,65.49,4.0,-11.6,1
4463,65.5,3.36,-4.63,1
4464,65.52,0.29,1.53,1
4465,65.53,-2.75,-7.06,1
4466,65.54,-4.16,-24.46,1
4467,65.56,-5.51,-22.52,1
4468,65.57,-4.94,-0.72,1
4469,65.58,-0.85,13.19,1
4470,65.6,2.62,9.1,1
4471,65.61,2.35,-0.6,1
4472,65.62,0.15,-2.17,1
4473,65.64,-1.21,4.31,1
4474,65.65,-2.27,5.59,1
4475,65.66,-5.07,-1.49,1
4476,65.68,-4.97,-5.22,1
4477,65.69,0.7,-1.27,1
4478,65.7,3.57,-0.73,1
4479,65.72,0.41,-6.13,1
4480,65.73,-1.09,-2.95,1
4481,65.74,0.61,9.52,1
4482,65.76,-2.74,15.35,1
4483,65.77,-11.26,14.11,1
4484,65.78,-14.35,17.13,1
4485,65.8,-8.63,20.13,1
4486,65.81,-2.16,14.5,1
4487,65.82,-3.77,9.66,1
4488,65.84,-6.6,14.93,1
4489,65.85,2.61,19.05,1
4490,65.86,12.68,9.45,1
4491,65.88,8.87,-0.16,1
4492,65.89,1.59,7.43,1
4493,65.9,-0.94,19.12,1
4494,65.92,-1.86,19.97,1
4495,65.93,1.57,18.57,1
4496,65.94,5.3,16.98,1
4497,65.96,-0.35,3.8,1
4498,65.97,-6.98,-14.95,1
4499,65.98,-3.24,-19.4,1
4500,66.0,2.74,-9.16,1
4501,66.01,1.52,3.82,1
4502,66.02,-1.25,15.25,1
4503,66.04,3.66,18.74,1
4504,66.05,11.04,11.27,1
4505,66.06,6.24,0.17,1
4506,66.08,-10.53,-7.01,1
4507,66.09,-23.82,-4.27,1
4508,66.11,-20.29,5.93,1
4509,66.12,-0.58,10.79,1
4510,66.13,17.37,8.11,1
4511,66.14,21.18,5.87,1
4512,66.16,14.86,-1.34,0
4513,66.17,4.21,-25.3,0
4514,66.18,-3.21,-64.75,0
4515,66.2,-4.28,-103.26,0
4516,66.21,-4.12,-117.66,0
4517,66.22,-0.98,-111.58,0
4518,66.24,12.56,-112.97,0
4519,66.25,35.6,-125.7,0
4520,66.26,55.15,-136.34,0
4521,66.28,63.22,-142.43,0
4522,66.29,67.35,-145.68,0
4523,66.3,59.35,-137.57,0
4524,66.32,27.5,-103.11,0
4525,66.33,-1.71,-53.98,0
4526,66.34,-11.11,-18.75,0
4527,66.36,-22.77,11.4,0
4528,66.37,-38.65,53.52,0
4529,66.38,-41.95,85.94,0
4530,66.4,-37.33,100.91,0
4531,66.41,-39.4,128.46,0
4532,66.42,-52.35,171.76,0
4533,66.44,-64.36,199.14,0
4534,66.45,-64.71,199.5,0
4535,66.46,-56.0,190.8,0
4536,66.48,-41.65,185.21,0
4537,66.49,-24.78,177.79,0
4538,66.5,-13.14,164.09,0
4539,66.52,-6.93,149.24,0
4540,66.53,-0.77,139.16,0
4541,66.54,1.13,132.29,0
4542,66.56,-5.71,119.16,1
4543,66.57,-7.73,94.65,1
4544,66.58,7.19,72.27,1
4545,66.6,24.46,66.34,1
4546,66.61,22.21,69.58,1
4547,66.62,7.44,68.83,1
4548,66.64,3.35,58.58,1
4549,66.65,9.88,41.49,1
4550,66.66,9.64,30.01,1
4551,66.68,2.57,26.4,1
4552,66.69,9.03,17.32,1
4553,66.7,29.71,3.85,1
4554,66.72,31.05,0.39,1
4555,66.73,5.41,5.59,1
4556,66.75,-7.6,4.08,1
4557,66.76,7.77,-10.07,1
4558,66.77,18.25,-21.87,1
4559,66.79,3.62,-21.18,1
4560,66.8,-11.0,-26.49,1
4561,66.81,-6.24,-38.72,1
4562,66.82,2.69,-30.45,1
4563,66.84,7.84,-12.45,1
4564,66.85,16.41,-16.9,1
4565,66.86,26.7,-33.73,1
4566,66.88,39.52,-37.51,1
4567,66.89,50.45,-32.58,1
4568,66.9,31.89,-34.06,1
4569,66.92,-10.9,-44.08,1
4570,66.93,-24.27,-57.09,1
4571,66.94,-3.82,-62.34,1
4572,66.96,3.65,-56.98,1
4573,66.97,-5.94,-55.66,1
4574,66.98,-7.53,-62.08,1
4575,67.0,-1.5,-61.7,1
4576,67.01,-3.59,-53.7,1
4577,67.02,-17.3,-50.39,1
4578,67.04,-25.37,-52.18,1
4579,67.05,-13.46,-52.59,1
4580,67.06,2.55,-52.37,1
4581,67.08,2.44,-52.98,1
4582,67.09,-6.12,-54.92,1
4583,67.1,-8.46,-59.34,1
4584,67.12,-5.9,-60.12,1
4585,67.13,-1.66,-53.75,1
4586,67.14,3.79,-47.71,1
4587,67.16,4.26,-48.59,1
4588,67.17,-3.73,-52.76,1
4589,67.18,-13.34,-49.11,1
4590,67.2,-14.95,-36.99,1
4591,67.21,-7.73,-30.51,1
4592,67.22,1.53,-31.47,1
4593,67.24,8.5,-29.11,1
4594,67.25,10.12,-26.2,1
4595,67.26,4.08,-26.42,1
4596,67.28,-4.53,-24.85,1
4597,67.29,-9.18,-31.58,1
4598,67.3,-7.3,-58.27,1
4599,67.32,0.75,-81.62,1
4600,67.33,7.49,-69.38,1
4601,67.34,6.14,-35.69,1
4602,67.36,3.16,-19.56,1
4603,67.37,6.02,-19.42,1
4604,67.38,10.41,-9.81,1
4605,67.4,10.04,4.16,1
4606,67.41,5.86,2.22,1
4607,67.43,1.68,-7.83,1
4608,67.44,-2.6,-6.23,1
4609,67.45,-4.84,2.66,1
4610,67.46,2.22,7.74,1
4611,67.48,15.4,10.84,1
4612,67.49,17.46,7.18,1
4613,67.5,3.65,-5.86,1
4614,67.52,-10.28,-9.35,1
4615,67.53,-11.54,4.86,1
4616,67.54,-3.97,13.99,1
4617,67.56,2.04,7.17,1
4618,67.57,4.92,3.59,1
4619,67.58,7.68,10.62,1
4620,67.6,5.62,14.4,1
4621,67.61,-3.52,12.63,1
4622,67.62,-8.49,14.24,1
4623,67.64,-1.33,18.05,1
4624,67.65,4.53,17.8,1
4625,67.66,-1.93,14.47,1
4626,67.68,-8.07,9.91,1
4627,67.69,-8.94,6.96,1
4628,67.7,-14.04,15.28,1
4629,67.72,-18.03,29.28,1
4630,67.73,-8.84,30.08,1
4631,67.74,7.84,21.27,1
4632,67.76,12.56,18.72,1
4633,67.77,0.67,20.38,1
4634,67.78,-11.91,17.26,1
4635,67.8,-14.22,11.27,1
4636,67.81,-6.77,6.2,1
4637,67.82,3.96,3.11,1
4638,67.84,8.26,6.42,1
4639,67.85,4.1,15.17,1
4640,67.86,2.13,20.39,1
4641,67.88,9.99,17.73,1
4642,67.89,12.25,9.48,1
4643,67.9,-5.49,8.96,1
4644,67.92,-21.36,23.6,1
4645,67.93,-14.77,34.14,1
4646,67.94,-1.45,28.94,1
4647,67.96,3.38,21.42,1
4648,67.97,6.86,19.07,1
4649,67.98,12.53,18.49,1
4650,68.0,11.51,20.35,1
4651,68.01,3.28,25.41,1
4652,68.02,-3.83,26.91,1
4653,68.04,-5.49,18.74,1
4654,68.05,-1.1,5.89,1
4655,68.06,4.26,1.89,1
4656,68.08,-0.43,10.39,1
4657,68.09,-15.35,15.56,1
4658,68.11,-22.79,8.85,1
4659,68.12,-11.7,4.96,1
4660,68.13,4.15,10.58,1
4661,68.14,6.33,20.73,1
4662,68.16,-2.58,47.88,2
4663,68.17,-2.7,107.3,2
4664,68.18,9.15,184.65,2
4665,68.2,14.06,247.52,2
4666,68.21,3.61,285.16,2
4667,68.22,-15.72,315.02,2
4668,68.24,-26.51,334.2,2
4669,68.25,-14.75,302.89,2
4670,68.26,-2.69,205.35,2
4671,68.28,-4.19,82.64,2
4672,68.29,2.9,-14.89,2
4673,68.3,9.7,-77.28,2
4674,68.32,-6.88,-127.94,2
4675,68.33,-18.84,-177.57,2
4676,68.34,-2.91,-208.42,2
4677,68.36,16.79,-218.82,2
4678,68.37,21.39,-228.82,2
4679,68.38,14.41,-237.56,2
4680,68.4,3.24,-232.86,2
4681,68.41,-3.32,-221.06,2
4682,68.42,-3.48,-206.26,2
4683,68.44,3.69,-181.68,2
4684,68.45,21.66,-159.63,2
4685,68.46,31.82,-154.98,2
4686,68.48,17.43,-145.02,2
4687,68.49,0.57,-115.89,2
4688,68.5,3.89,-98.48,2
4689,68.52,17.78,-107.83,2
4690,68.53,24.59,-115.37,2
4691,68.54,17.12,-97.76,2
4692,68.56,5.41,-69.74,1
4693,68.57,10.12,-58.61,1
4694,68.58,29.47,-63.68,1
4695,68.6,35.49,-63.21,1
4696,68.61,18.89,-46.02,1
4697,68.62,4.08,-18.65,1
4698,68.64,6.21,4.04,1
4699,68.65,9.96,9.8,1
4700,68.66,0.14,1.1,1
4701,68.68,-17.82,-7.53,1
4702,68.69,-34.33,-4.23,1
4703,68.7,-41.67,12.7,1
4704,68.72,-33.53,29.74,1
4705,68.73,-19.26,31.99,1
4706,68.75,-11.19,28.11,1
4707,68.76,-5.02,33.68,1
4708,68.77,4.02,43.37,1
4709,68.79,9.85,45.3,1
4710,68.8,6.19,40.26,1
4711,68.81,-3.99,38.3,1
4712,68.82,-10.41,48.17,1
4713,68.84,-11.24,62.69,1
4714,68.85,-8.3,63.47,1
4715,68.86,-0.26,49.36,1
4716,68.88,5.66,41.04,1
4717,68.89,5.9,49.3,1
4718,68.9,6.14,59.04,1
4719,68.92,1.12,54.75,1
4720,68.93,-10.56,46.35,1
4721,68.94,-4.93,49.18,1
4722,68.96,21.66,53.65,1
4723,68.97,29.84,45.11,1
4724,68.98,4.34,37.66,1
4725,69.0,-18.14,46.21,1
4726,69.01,-13.93,57.55,1
4727,69.02,-2.44,57.07,1
4728,69.04,-2.18,52.78,1
4729,69.05,-4.99,55.43,1
4730,69.06,-6.3,56.44,1
4731,69.08,-12.39,46.63,1
4732,69.09,-15.25,40.58,1
4733,69.1,-9.31,49.04,1
4734,69.12,-4.47,54.16,1
4735,69.13,0.01,41.96,1
4736,69.14,8.26,25.1,1
4737,69.16,11.62,20.21,1
4738,69.17,3.91,23.37,1
4739,69.18,-9.62,17.71,1
4740,69.2,-17.07,6.5,1
4741,69.21,-11.2,6.59,1
4742,69.22,-1.55,14.33,1
4743,69.24,1.59,15.46,1
4744,69.25,-0.12,12.46,1
4745,69.26,-3.6,15.69,1
4746,69.28,-4.67,23.8,1
4747,69.29,-3.46,29.64,1
4748,69.3,-5.87,27.7,1
4749,69.32,-12.2,16.42,1
4750,69.33,-16.81,5.95,1
4751,69.34,-13.28,8.99,1
4752,69.36,-0.21,19.42,1
4753,69.37,5.39,22.96,1
4754,69.38,-9.4,21.04,1
4755,69.4,-25.17,16.64,1
4756,69.41,-19.12,5.82,1
4757,69.43,-0.51,-2.87,1
4758,69.44,6.69,1.46,1
4759,69.45,2.34,8.1,1
4760,69.46,4.0,5.92,1
4761,69.48,7.73,5.05,1
4762,69.49,4.45,10.13,1
4763,69.5,5.55,6.33,1
4764,69.52,12.26,-6.31,1
4765,69.53,12.08,-8.43,1
4766,69.54,6.83,-0.9,1
4767,69.56,3.64,2.05,1
4768,69.57,2.19,5.6,1
4769,69.58,-0.66,12.78,1
4770,69.6,-9.32,9.87,1
4771,69.61,-17.49,-4.65,1
4772,69.62,-11.21,-18.25,1
4773,69.64,0.89,-25.84,1
4774,69.65,3.99,-29.5,1
4775,69.66,7.37,-27.68,1
4776,69.68,10.35,-18.24,1
4777,69.69,-2.22,-12.31,1
4778,69.7,-14.27,-18.76,1
4779,69.72,-3.34,-22.41,1
4780,69.73,12.43,-14.26,1
4781,69.74,7.31,-9.27,1
4782,69.76,-5.7,-15.23,1
4783,69.77,-4.36,-21.8,1
4784,69.78,-1.11,-14.77,1
4785,69.8,-8.12,2.99,1
4786,69.81,-4.9,5.52,1
4787,69.82,15.29,-17.03,1
4788,69.84,27.62,-39.77,1
4789,69.85,17.55,-40.31,1
4790,69.86,-2.71,-21.23,1
4791,69.88,-9.62,-7.17,1
4792,69.89,-0.53,-18.4,1
4793,69.9,-0.46,-33.25,1
4794,69.92,-9.14,-22.4,1
4795,69.93,0.74,-2.63,1
4796,69.94,20.04,-3.21,1
4797,69.96,23.52,-18.08,1
4798,69.97,18.1,-22.39,1
4799,69.98,10.26,-12.07,1
4800,70.0,-6.71,-6.86,1
4801,70.01,-18.39,-13.32,1
4802,70.02,-9.28,-17.25,1
4803,70.04,2.85,-11.88,1
4804,70.05,-0.68,-6.77,1
4805,70.06,-12.91,-13.84,1
4806,70.08,-18.46,-29.48,1
4807,70.09,-11.09,-37.46,1
4808,70.11,-1.15,-36.14,1
4809,70.12,1.06,-34.85,1
4810,70.13,-1.24,-32.26,1
4811,70.14,-2.48,-25.01,1
4812,70.16,2.59,-17.12,2
4813,70.17,19.68,0.8,2
4814,70.18,35.93,71.46,2
4815,70.2,24.43,186.94,2
4816,70.21,-4.54,251.38,2
4817,70.22,-5.3,215.08,2
4818,70.24,19.25,100.09,2
4819,70.25,19.45,-2.93,2
4820,70.26,-0.6,12.91,2
4821,70.28,1.21,45.76,2
4822,70.29,19.83,-45.53,2
4823,70.3,42.67,-114.76,2
4824,70.32,66.35,-35.94,2
4825,70.33,59.01,1.15,2
4826,70.34,20.66,-108.81,2
4827,70.36,-13.89,-154.03,2
4828,70.37,-19.51,-43.74,2
4829,70.38,10.01,45.91,2
4830,70.4,21.64,35.09,2
4831,70.41,-16.44,-28.48,2
4832,70.42,-41.36,-95.62,2
4833,70.44,-22.0,-76.41,2
4834,70.45,-3.41,-5.06,2
4835,70.46,-16.42,-30.17,2
4836,70.48,-48.44,-79.46,2
4837,70.49,-58.01,-48.91,2
4838,70.5,-24.45,-70.83,2
4839,70.52,8.64,-121.49,2
4840,70.53,7.47,-51.7,2
4841,70.54,-5.46,9.51,2
4842,70.56,-20.48,-50.73,1
4843,70.57,-43.72,-114.89,1
4844,70.58,-55.45,-123.78,1
4845,70.6,-34.82,-94.74,1
4846,70.61,0.29,-27.4,1
4847,70.62,12.87,26.74,1
4848,70.64,4.31,28.95,1
4849,70.65,-11.61,-4.37,1
