,Timestamp,Data1,Data2,Label
0,6.0,3.9,11.53,1
1,6.01,14.09,13.78,1
2,6.03,10.1,2.44,1
3,6.04,0.87,0.19,1
4,6.05,0.74,4.04,1
5,6.07,1.36,4.86,1
6,6.08,-0.2,1.83,1
7,6.09,7.16,-2.61,1
8,6.11,18.94,-3.62,1
9,6.12,18.96,-0.88,1
10,6.13,5.37,3.97,1
11,6.15,-9.55,9.22,2
12,6.16,-12.32,8.79,2
13,6.17,-4.79,3.37,2
14,6.19,-3.42,-2.02,2
15,6.2,-9.39,-7.0,2
16,6.21,-10.24,-5.31,2
17,6.23,-6.97,-1.28,2
18,6.24,-5.23,-15.56,2
19,6.25,-3.44,-33.79,2
20,6.27,2.36,-18.08,2
21,6.28,8.48,-1.27,2
22,6.29,3.65,-48.93,2
23,6.31,-0.76,-101.7,2
24,6.32,-4.13,-68.87,2
25,6.33,-28.88,-2.23,2
26,6.35,-31.21,91.96,2
27,6.36,10.91,266.28,2
28,6.37,15.28,345.93,2
29,6.39,-29.95,246.34,2
30,6.4,-43.46,244.21,2
31,6.41,-10.35,389.16,2
32,6.43,17.26,401.93,2
33,6.44,13.99,269.42,2
34,6.45,0.8,190.96,2
35,6.47,-5.24,189.36,2
36,6.48,-18.12,178.36,2
37,6.49,-23.41,109.69,2
38,6.51,6.69,-10.0,2
39,6.52,20.57,-79.26,2
40,6.53,-18.82,-53.34,2
41,6.55,-35.5,-51.56,2
42,6.56,9.82,-143.25,1
43,6.57,42.4,-267.19,1
44,6.59,33.97,-314.59,1
45,6.6,42.36,-227.6,1
46,6.61,57.89,-82.94,1
47,6.63,26.28,-13.27,1
48,6.64,-17.5,-69.36,1
49,6.65,-23.26,-168.02,1
50,6.67,0.33,-228.71,1
51,6.68,38.14,-229.16,1
52,6.69,58.72,-158.48,1
53,6.71,25.97,-108.39,1
54,6.72,-28.01,-129.91,1
55,6.73,-41.6,-157.89,1
56,6.75,-23.41,-222.56,1
57,6.76,-26.87,-304.07,1
58,6.77,-36.61,-262.67,1
59,6.79,-10.37,-147.12,1
60,6.8,6.71,-104.73,1
61,6.81,-10.89,-116.46,1
62,6.82,2.03,-112.43,1
63,6.84,39.61,-113.62,1
64,6.85,26.88,-143.6,1
65,6.86,-15.48,-144.75,1
66,6.88,-20.23,-98.05,1
67,6.89,-2.55,-70.12,1
68,6.91,-0.19,-86.29,1
69,6.92,-1.78,-114.45,1
70,6.93,-0.56,-114.03,1
71,6.95,-12.66,-90.75,1
72,6.96,-26.81,-90.24,1
73,6.97,-14.48,-113.46,1
74,6.99,8.32,-144.37,1
75,7.0,5.12,-127.01,1
76,7.01,3.07,11.35,1
77,7.03,31.89,143.79,1
78,7.04,29.36,70.14,1
79,7.05,-26.01,-102.66,1
80,7.07,-42.39,-116.01,1
81,7.08,-1.35,-2.88,1
82,7.09,20.5,52.64,1
83,7.11,24.54,57.73,1
84,7.12,37.49,67.57,1
85,7.13,20.81,54.83,1
86,7.15,-12.2,16.27,1
87,7.16,-3.03,-15.9,1
88,7.17,26.37,15.8,1
89,7.19,18.26,92.62,1
90,7.2,-15.72,106.07,1
91,7.21,-14.08,78.09,1
92,7.23,25.73,84.95,1
93,7.24,33.96,80.49,1
94,7.25,-2.81,63.65,1
95,7.27,-25.73,114.87,1
96,7.28,-18.12,173.04,1
97,7.29,2.85,127.43,1
98,7.31,34.36,74.25,1
99,7.32,43.5,122.79,1
100,7.33,5.0,144.34,1
101,7.35,-37.82,60.89,1
102,7.36,-44.02,12.58,1
103,7.37,-18.64,27.64,1
104,7.39,11.19,25.77,1
105,7.4,12.52,48.55,1
106,7.41,-11.59,104.66,1
107,7.43,-21.76,118.69,1
108,7.44,-8.48,110.86,1
109,7.45,-0.31,133.61,1
110,7.47,-5.98,135.92,1
111,7.48,-17.0,78.49,1
112,7.49,-27.75,61.16,1
113,7.51,-9.18,137.09,1
114,7.52,34.31,189.64,1
115,7.53,35.18,158.75,1
116,7.55,-2.32,105.62,1
117,7.56,-4.91,83.06,1
118,7.57,11.71,118.53,1
119,7.59,-9.95,137.63,1
120,7.6,-41.62,45.09,1
121,7.61,-37.34,-60.16,1
122,7.63,-19.9,-39.86,1
123,7.64,-16.0,62.8,1
124,7.65,-6.4,118.2,1
125,7.67,10.0,90.92,1
126,7.68,2.82,57.43,1
127,7.69,-18.54,53.34,1
128,7.71,-8.73,30.34,1
129,7.72,26.46,-0.37,1
130,7.73,34.37,34.11,1
131,7.75,5.1,113.44,1
132,7.76,-23.44,122.41,1
133,7.77,-20.12,21.03,1
134,7.79,6.57,-81.91,1
135,7.8,23.55,-53.61,1
136,7.81,12.91,67.13,1
137,7.83,-13.43,88.46,1
138,7.84,-17.38,-6.14,1
139,7.85,7.7,-27.71,1
140,7.87,19.78,16.15,1
141,7.88,10.21,-15.61,1
142,7.89,3.04,-42.81,1
143,7.91,-4.86,41.84,1
144,7.92,-31.45,114.04,1
145,7.93,-53.28,37.32,1
146,7.95,-21.48,-106.42,1
147,7.96,25.78,-145.72,1
148,7.97,22.31,-71.1,1
149,7.99,16.12,-1.76,1
150,8.0,33.27,8.27,1
151,8.01,12.1,-32.69,1
152,8.03,-31.6,-86.42,1
153,8.04,-39.97,-95.51,1
154,8.05,-22.27,-62.12,1
155,8.07,0.28,-9.18,1
156,8.08,17.35,35.62,1
157,8.09,13.34,7.29,1
158,8.1,-3.79,-66.92,1
159,8.12,-14.46,-80.97,1
160,8.13,-11.36,-33.56,1
161,8.15,9.22,-4.05,0
162,8.16,31.0,-9.53,0
163,8.17,25.69,-4.3,0
164,8.19,4.46,21.09,0
165,8.2,2.56,39.01,0
166,8.21,17.24,47.88,0
167,8.23,13.95,49.11,0
168,8.24,-12.86,21.31,0
169,8.25,-29.46,-45.36,0
170,8.27,-19.46,-142.76,0
171,8.28,-6.23,-261.79,0
172,8.29,-7.3,-363.53,0
173,8.31,-8.58,-391.23,0
174,8.32,3.88,-355.61,0
175,8.33,15.46,-303.47,0
176,8.35,8.65,-234.21,0
177,8.36,-2.22,-143.17,0
178,8.37,-2.56,-60.1,0
179,8.39,-2.91,-2.85,0
180,8.4,-2.5,36.21,0
181,8.41,7.12,61.66,0
182,8.43,8.15,71.2,0
183,8.44,-6.68,75.23,0
184,8.45,-13.82,88.43,0
185,8.47,-6.84,99.77,0
186,8.48,-1.28,93.83,0
187,8.49,2.76,85.11,0
188,8.51,8.71,86.24,0
189,8.52,6.42,84.45,0
190,8.53,-2.3,76.28,0
191,8.55,-4.53,72.19,1
192,8.56,-0.91,71.81,1
193,8.57,4.17,69.51,1
194,8.59,11.27,66.34,1
195,8.6,13.98,66.86,1
196,8.61,9.92,72.0,1
197,8.63,12.29,71.65,1
198,8.64,21.21,55.26,1
199,8.65,19.7,35.76,1
200,8.67,8.21,32.14,1
201,8.68,-0.05,36.17,1
202,8.69,-1.98,36.72,1
203,8.71,0.08,40.19,1
204,8.72,0.67,46.49,1
205,8.73,-3.28,47.37,1
206,8.75,-6.08,45.09,1
207,8.76,-0.97,46.45,1
208,8.77,11.26,45.92,1
209,8.78,15.89,33.92,1
210,8.8,2.21,21.13,1
211,8.81,-8.92,24.93,1
212,8.82,0.62,33.46,1
213,8.84,7.58,27.14,1
214,8.85,-2.9,16.1,1
215,8.87,-8.49,14.96,1
216,8.88,-1.68,19.79,1
217,8.89,-0.26,21.55,1
218,8.91,-5.79,14.12,1
219,8.92,-3.21,2.64,1
220,8.93,10.43,-1.87,1
221,8.95,15.44,-3.49,1
222,8.96,0.34,-10.13,1
223,8.97,-9.68,-14.94,1
224,8.99,2.63,-10.89,1
225,9.0,10.62,-4.52,1
226,9.01,0.15,-6.57,1
227,9.03,-5.37,-16.14,1
228,9.04,1.14,-23.14,1
229,9.05,3.85,-21.16,1
230,9.07,-1.94,-14.14,1
231,9.08,-9.83,-15.82,1
232,9.09,-8.2,-24.0,1
233,9.11,6.98,-21.11,1
234,9.12,17.87,-17.37,1
235,9.13,12.98,-26.7,1
236,9.15,4.57,-30.34,1
237,9.16,-2.96,-22.76,1
238,9.17,-14.64,-25.2,1
239,9.19,-22.36,-39.32,1
240,9.2,-19.63,-44.92,1
241,9.21,-12.32,-33.56,1
242,9.23,-8.55,-21.98,1
243,9.24,-10.83,-24.6,1
244,9.25,-7.61,-29.96,1
245,9.27,6.53,-27.64,1
246,9.28,15.16,-26.63,1
247,9.29,12.15,-28.79,1
248,9.31,8.4,-26.95,1
249,9.32,2.38,-26.26,1
250,9.33,-9.99,-32.41,1
251,9.35,-12.63,-35.48,1
252,9.36,-0.78,-27.68,1
253,9.37,2.2,-21.39,1
254,9.39,-6.82,-28.13,1
255,9.4,-5.74,-35.97,1
256,9.41,6.29,-31.54,1
257,9.43,9.44,-26.12,1
258,9.44,-0.21,-30.69,1
259,9.45,-3.76,-32.71,1
260,9.47,5.07,-28.77,1
261,9.48,3.86,-32.04,1
262,9.49,-11.88,-35.25,1
263,9.51,-15.31,-25.96,1
264,9.52,-1.44,-18.34,1
265,9.53,5.87,-23.08,1
266,9.55,-1.7,-26.85,1
267,9.56,-10.6,-22.41,1
268,9.57,-9.37,-16.67,1
269,9.59,0.16,-10.97,1
270,9.6,7.79,-5.54,1
271,9.61,6.0,-5.32,1
272,9.63,-0.72,-7.94,1
273,9.64,-2.14,-8.37,1
274,9.65,1.48,-6.74,1
275,9.67,-1.56,-2.3,1
276,9.68,-10.77,1.44,1
277,9.69,-7.7,-1.11,1
278,9.71,6.66,-8.17,1
279,9.72,7.38,-13.22,1
280,9.73,-3.49,-10.0,1
281,9.75,1.47,-1.47,1
282,9.76,18.5,7.13,1
283,9.77,18.41,15.58,1
284,9.79,2.26,14.04,1
285,9.8,-5.9,0.12,1
286,9.81,-4.58,-5.0,1
287,9.83,-4.85,3.02,1
288,9.84,-3.11,3.5,1
289,9.85,7.27,-3.36,1
290,9.87,16.64,-1.19,1
291,9.88,11.0,3.08,1
292,9.89,-3.43,-2.43,1
293,9.91,-9.31,-7.99,1
294,9.92,-7.81,-3.62,1
295,9.93,-9.96,6.3,1
296,9.95,-11.03,14.5,1
297,9.96,-6.77,17.96,1
298,9.97,-6.41,17.18,1
299,9.99,-7.17,12.96,1
300,10.0,2.51,6.42,1
301,10.01,14.04,5.2,1
302,10.02,9.41,11.49,1
303,10.04,-3.65,12.74,1
304,10.05,-6.02,8.45,1
305,10.06,-2.72,10.68,1
306,10.08,-6.45,17.6,1
307,10.09,-12.74,20.83,1
308,10.1,-8.42,15.72,1
309,10.12,5.79,7.05,1
310,10.13,14.03,7.45,1
311,10.15,12.17,14.79,0
312,10.16,12.73,10.92,0
313,10.17,23.62,-21.47,0
314,10.19,37.66,-78.66,0
315,10.2,39.84,-126.02,0
316,10.21,27.94,-138.37,0
317,10.23,18.85,-130.89,0
318,10.24,18.45,-132.02,0
319,10.25,10.6,-146.07,0
320,10.27,-8.1,-146.98,0
321,10.28,-21.4,-117.42,0
322,10.29,-26.06,-75.2,0
323,10.31,-31.16,-41.91,0
324,10.32,-31.24,-15.36,0
325,10.33,-18.95,14.47,0
326,10.35,-3.31,42.78,0
327,10.36,0.79,64.36,0
328,10.37,-8.87,86.93,0
329,10.39,-15.4,109.06,0
330,10.4,-10.42,121.9,0
331,10.41,-6.32,127.79,0
332,10.43,-9.25,130.89,0
333,10.44,-13.51,133.85,0
334,10.45,-12.58,142.52,0
335,10.47,-5.0,152.08,0
336,10.48,2.17,148.56,0
337,10.49,2.17,136.93,0
338,10.51,-1.2,137.69,0
339,10.52,-2.0,151.91,0
340,10.53,-7.55,158.38,0
341,10.55,-19.99,146.25,1
342,10.56,-20.13,127.0,1
343,10.57,-3.57,113.64,1
344,10.59,7.86,105.84,1
345,10.6,2.74,97.15,1
346,10.61,-9.83,84.12,1
347,10.63,-14.33,70.12,1
348,10.64,-6.08,63.07,1
349,10.65,1.86,60.23,1
350,10.67,1.09,48.41,1
351,10.68,0.19,32.3,1
352,10.69,5.47,28.2,1
353,10.71,11.08,31.78,1
354,10.72,5.21,28.27,1
355,10.73,-10.76,16.16,1
356,10.75,-13.26,2.99,1
357,10.76,5.47,-9.22,1
358,10.77,17.4,-21.16,1
359,10.78,8.52,-28.35,1
360,10.8,-2.38,-28.36,1
361,10.81,-0.48,-28.47,1
362,10.83,7.84,-34.98,1
363,10.84,9.23,-41.46,1
364,10.85,5.63,-41.8,1
365,10.87,5.37,-39.31,1
366,10.88,3.71,-34.55,1
367,10.89,0.47,-32.24,1
368,10.91,0.33,-40.93,1
369,10.92,-2.47,-52.44,1
370,10.93,-2.68,-55.58,1
371,10.95,9.51,-55.1,1
372,10.96,20.08,-58.15,1
373,10.97,17.35,-61.54,1
374,10.99,11.49,-56.32,1
375,11.0,8.42,-45.28,1
376,11.01,6.26,-44.09,1
377,11.03,5.67,-52.57,1
378,11.04,2.39,-56.99,1
379,11.05,-6.35,-59.02,1
380,11.07,-9.91,-62.01,1
381,11.08,-2.34,-59.31,1
382,11.09,2.13,-55.36,1
383,11.11,-3.89,-55.64,1
384,11.12,-7.49,-50.92,1
385,11.13,-1.54,-40.67,1
386,11.15,5.67,-36.5,1
387,11.16,4.93,-39.95,1
388,11.17,-0.26,-41.01,1
389,11.19,2.14,-37.85,1
390,11.2,10.78,-39.5,1
391,11.21,15.95,-44.13,1
392,11.23,16.46,-43.78,1
393,11.24,10.74,-41.98,1
394,11.25,0.68,-41.34,1
395,11.27,-0.76,-39.7,1
396,11.28,3.78,-38.82,1
397,11.29,-2.02,-38.94,1
398,11.31,-12.13,-38.79,1
399,11.32,-10.13,-37.2,1
400,11.33,-0.36,-32.22,1
401,11.35,4.43,-28.26,1
402,11.36,3.3,-29.76,1
403,11.37,2.99,-31.03,1
404,11.39,4.25,-27.28,1
405,11.4,1.71,-22.08,1
406,11.41,-1.51,-20.41,1
407,11.43,0.03,-23.05,1
408,11.44,-3.41,-23.1,1
409,11.45,-15.24,-15.86,1
410,11.47,-16.34,-9.48,1
411,11.48,-2.56,-10.27,1
412,11.49,8.14,-13.22,1
413,11.51,8.37,-9.11,1
414,11.52,2.12,2.48,1
415,11.53,-3.11,6.24,1
416,11.55,3.06,-3.37,1
417,11.56,16.77,-8.7,1
418,11.57,16.19,-1.64,1
419,11.59,-4.71,5.58,1
420,11.6,-21.58,5.81,1
421,11.61,-18.44,4.21,1
422,11.63,-4.45,4.13,1
423,11.64,9.34,1.28,1
424,11.65,12.31,-2.37,1
425,11.67,0.89,3.03,1
426,11.68,-8.55,12.36,1
427,11.69,-3.17,13.11,1
428,11.71,7.31,11.86,1
429,11.72,6.15,20.39,1
430,11.73,-4.87,29.87,1
431,11.75,-6.61,27.49,1
432,11.76,2.63,16.99,1
433,11.77,7.52,9.45,1
434,11.79,4.62,10.48,1
435,11.8,-1.58,13.68,1
436,11.81,-5.92,13.54,1
437,11.83,-2.5,16.67,1
438,11.84,3.13,22.34,1
439,11.85,0.03,21.8,1
440,11.87,-10.92,20.71,1
441,11.88,-19.7,23.43,1
442,11.89,-17.78,23.87,1
443,11.91,-6.13,23.87,1
444,11.92,2.37,20.65,1
445,11.93,0.34,7.75,1
446,11.94,-2.18,1.09,1
447,11.96,-3.38,10.85,1
448,11.97,-10.84,18.52,1
449,11.98,-11.87,18.41,1
450,12.0,3.53,22.34,1
451,12.01,12.14,26.74,1
452,12.02,0.18,22.55,1
453,12.04,-7.53,15.28,1
454,12.05,2.16,17.87,1
455,12.06,6.98,31.21,1
456,12.08,-2.19,36.92,1
457,12.09,-5.71,24.11,1
458,12.105,2.2,6.84,1
459,12.12,4.05,4.57,1
460,12.13,-6.84,17.1,1
461,12.15,-14.3,25.74,2
462,12.16,-7.04,21.9,2
463,12.17,4.96,19.63,2
464,12.19,10.2,25.37,2
465,12.2,10.73,23.23,2
466,12.21,8.88,10.68,2
467,12.23,0.51,9.65,2
468,12.24,-7.29,41.0,2
469,12.25,-2.0,119.69,2
470,12.27,6.58,233.06,2
471,12.28,-0.78,321.39,2
472,12.29,-18.35,334.13,2
473,12.31,-26.94,284.74,2
474,12.32,-25.22,219.16,2
475,12.33,-24.57,158.0,2
476,12.35,-27.4,92.02,2
477,12.36,-28.25,18.28,2
478,12.37,-22.62,-48.65,2
479,12.39,-11.28,-109.12,2
480,12.4,-0.02,-173.98,2
481,12.41,13.25,-219.61,2
482,12.43,30.11,-221.12,2
483,12.44,36.37,-205.54,2
484,12.45,27.79,-199.45,2
485,12.47,20.04,-189.76,2
486,12.48,20.62,-168.38,2
487,12.49,22.74,-148.37,2
488,12.51,18.66,-134.96,2
489,12.52,10.18,-123.94,2
490,12.53,6.93,-116.92,2
491,12.55,12.22,-114.57,1
492,12.56,17.94,-108.37,1
493,12.57,15.68,-92.85,1
494,12.59,7.45,-77.81,1
495,12.6,6.16,-77.59,1
496,12.61,16.33,-86.44,1
497,12.63,18.81,-80.86,1
498,12.64,4.25,-54.87,1
499,12.65,-4.12,-27.87,1
500,12.67,5.65,-11.73,1
501,12.68,9.73,-6.29,1
502,12.69,-4.01,-12.7,1
503,12.71,-11.45,-21.54,1
504,12.72,-0.18,-19.2,1
505,12.73,8.44,-11.52,1
506,12.75,0.3,-9.59,1
507,12.76,-11.73,-8.32,1
508,12.77,-13.38,-1.43,1
509,12.79,-7.83,7.23,1
510,12.8,-3.78,12.33,1
511,12.81,-1.45,9.62,1
512,12.83,3.98,7.76,1
513,12.84,10.48,17.79,1
514,12.85,8.52,25.89,1
515,12.87,-0.22,20.85,1
516,12.88,-3.06,19.55,1
517,12.89,-0.37,30.32,1
518,12.91,2.59,37.83,1
519,12.92,8.63,33.3,1
520,12.93,11.04,26.59,1
521,12.95,3.85,29.49,1
522,12.96,-0.84,38.64,1
523,12.97,1.18,44.05,1
524,12.99,-1.5,45.84,1
525,13.0,-7.65,42.99,1
526,13.01,-8.38,31.81,1
527,13.03,-9.16,26.79,1
528,13.04,-13.47,39.45,1
529,13.05,-11.56,50.71,1
530,13.07,-2.72,45.94,1
531,13.08,1.19,37.29,1
532,13.09,-5.98,36.04,1
533,13.11,-15.24,41.17,1
534,13.12,-14.99,47.57,1
535,13.13,-10.17,48.91,1
536,13.15,-7.82,41.12,1
537,13.16,-1.66,31.22,1
538,13.17,3.07,28.31,1
539,13.19,-5.22,29.07,1
540,13.2,-14.35,31.39,1
541,13.21,-8.7,37.17,1
542,13.23,0.67,40.27,1
543,13.24,-2.63,38.3,1
544,13.25,-10.92,35.76,1
545,13.27,-10.71,35.08,1
546,13.28,-11.18,34.95,1
547,13.29,-19.93,34.02,1
548,13.31,-17.53,32.3,1
549,13.32,2.7,29.46,1
550,13.33,16.05,24.65,1
551,13.35,11.72,22.32,1
552,13.36,-0.66,23.09,1
553,13.37,-12.43,15.98,1
554,13.39,-11.76,4.53,1
555,13.4,2.44,9.17,1
556,13.41,9.51,19.4,1
557,13.43,0.26,14.63,1
558,13.44,-7.4,7.39,1
559,13.45,-1.84,5.92,1
560,13.47,5.92,0.17,1
561,13.48,5.19,-2.94,1
562,13.49,-0.31,8.65,1
563,13.51,-1.8,23.62,1
564,13.52,3.26,22.37,1
565,13.53,6.66,9.81,1
566,13.55,1.07,5.86,1
567,13.56,-6.19,10.34,1
568,13.57,-3.47,9.79,1
569,13.59,6.35,5.42,1
570,13.6,9.71,3.28,1
571,13.61,3.95,-0.34,1
572,13.63,-1.7,-3.82,1
573,13.64,-2.49,-4.77,1
574,13.65,3.25,-8.69,1
575,13.67,13.56,-12.75,1
576,13.68,15.25,-11.8,1
577,13.69,3.89,-7.78,1
578,13.71,-2.57,-4.19,1
579,13.72,4.21,-7.61,1
580,13.73,7.24,-18.82,1
581,13.75,-1.15,-26.4,1
582,13.76,-5.8,-26.89,1
583,13.77,0.78,-23.54,1
584,13.79,7.07,-14.03,1
585,13.8,4.32,-5.69,1
586,13.81,-4.05,-10.91,1
587,13.83,-7.81,-22.33,1
588,13.84,0.96,-25.14,1
589,13.85,8.78,-22.44,1
590,13.86,2.62,-23.6,1
591,13.88,-1.48,-23.81,1
592,13.89,2.49,-21.69,1
593,13.9,2.08,-23.31,1
594,13.92,1.43,-19.79,1
595,13.93,2.92,-8.64,1
596,13.94,1.67,-8.39,1
597,13.96,2.4,-18.6,1
598,13.97,-0.77,-20.31,1
599,13.98,-11.29,-17.05,1
600,14.0,-8.8,-22.12,1
601,14.01,8.5,-24.33,1
602,14.02,16.56,-12.46,1
603,14.04,6.82,-2.25,1
604,14.05,-6.29,-7.17,1
605,14.07,-5.61,-14.26,1
606,14.08,5.21,-12.23,1
607,14.09,6.85,-11.81,1
608,14.11,2.3,-19.51,1
609,14.12,4.51,-26.18,1
610,14.13,4.24,-25.79,1
611,14.15,-4.31,-21.75,2
612,14.16,-12.16,-20.66,2
613,14.17,-15.89,-26.39,2
614,14.19,-8.58,-30.95,2
615,14.2,11.58,-9.39,2
616,14.21,21.95,36.66,2
617,14.23,13.24,61.67,2
618,14.24,9.37,77.05,2
619,14.25,15.51,137.7,2
620,14.27,8.59,175.47,2
621,14.28,-5.44,110.18,2
622,14.29,-7.97,26.64,2
623,14.31,-14.82,-10.54,2
624,14.32,-29.37,-21.38,2
625,14.33,-20.86,5.22,2
626,14.35,7.99,48.24,2
627,14.36,20.13,55.51,2
628,14.37,13.61,6.31,2
629,14.39,17.43,-75.08,2
630,14.4,30.9,-104.47,2
631,14.41,23.23,-48.15,2
632,14.43,-9.0,8.78,2
633,14.44,-24.23,-2.47,2
634,14.45,-5.92,-50.11,2
635,14.47,3.75,-71.2,2
636,14.48,-15.89,-68.59,2
637,14.49,-28.83,-88.56,2
638,14.51,-14.17,-109.08,2
639,14.52,7.26,-102.9,2
640,14.53,16.32,-90.35,2
641,14.55,17.68,-75.16,1
642,14.56,12.89,-83.46,1
643,14.57,-5.98,-103.17,1
644,14.59,-22.74,-63.82,1
645,14.6,-16.81,6.47,1
646,14.61,-1.86,42.54,1
647,14.63,6.15,40.04,1
648,14.64,10.05,10.37,1
649,14.65,5.0,0.02,1
650,14.67,-8.08,18.71,1
651,14.68,-6.69,-17.39,1
652,14.69,6.29,-89.95,1
653,14.71,1.02,-80.03,1
654,14.72,-16.71,4.84,1
655,14.73,-19.19,65.23,1
656,14.75,-5.3,42.63,1
657,14.76,3.82,-40.89,1
658,14.77,-7.46,-75.71,1
659,14.79,-23.58,-22.99,1
660,14.8,-20.59,21.34,1
661,14.81,-8.6,8.18,1
662,14.83,-5.72,-15.09,1
663,14.84,-6.35,-24.46,1
664,14.85,-9.19,-37.1,1
665,14.87,-17.81,-27.16,1
666,14.88,-13.64,20.55,1
667,14.89,5.06,23.36,1
668,14.91,10.61,-37.36,1
669,14.92,0.72,-58.97,1
670,14.93,-5.02,-32.88,1
671,14.95,1.77,-18.87,1
672,14.96,13.85,3.15,1
673,14.97,21.0,25.11,1
674,14.99,20.55,3.82,1
675,15.0,8.73,-4.48,1
676,15.01,-5.74,42.61,1
677,15.03,-2.75,82.46,1
678,15.04,9.21,78.08,1
679,15.05,13.73,46.9,1
680,15.07,15.89,13.86,1
681,15.08,14.46,8.48,1
682,15.09,2.05,28.48,1
683,15.11,-8.45,49.35,1
684,15.12,-2.8,56.21,1
685,15.13,5.77,36.07,1
686,15.15,3.57,8.33,1
687,15.16,-5.85,9.34,1
688,15.17,-13.72,40.88,1
689,15.19,-6.48,55.62,1
690,15.2,5.92,16.3,1
691,15.21,0.41,-27.35,1
692,15.23,-5.82,-13.82,1
693,15.24,3.5,34.22,1
694,15.25,3.9,52.32,1
695,15.27,-4.93,44.59,1
696,15.28,2.01,54.27,1
697,15.29,8.36,23.68,1
698,15.31,-5.15,-58.23,1
699,15.32,-11.24,-42.31,1
700,15.33,10.13,57.54,1
701,15.35,33.26,52.35,1
702,15.36,25.96,-31.8,1
703,15.37,-0.96,-44.56,1
704,15.39,-13.12,-9.42,1
705,15.4,-8.67,19.47,1
706,15.41,-7.59,63.2,1
707,15.43,-6.34,82.16,1
708,15.44,8.44,45.55,1
709,15.45,22.29,6.26,1
710,15.47,14.42,1.67,1
711,15.48,-4.85,34.87,1
712,15.49,-11.81,57.78,1
713,15.51,-3.5,24.26,1
714,15.52,-0.13,15.59,1
715,15.53,-6.98,58.61,1
716,15.55,1.92,24.08,1
717,15.56,29.54,-59.35,1
718,15.57,40.35,-41.79,1
719,15.59,23.14,14.17,1
720,15.6,0.17,9.08,1
721,15.61,-9.51,-8.44,1
722,15.63,-1.52,-21.43,1
723,15.64,5.22,-28.08,1
724,15.65,-6.38,4.21,1
725,15.67,-20.12,29.66,1
726,15.68,-14.9,2.62,1
727,15.69,5.13,-40.94,1
728,15.71,13.59,-72.47,1
729,15.72,-7.26,-67.78,1
730,15.73,-24.83,-10.71,1
731,15.75,-5.69,37.98,1
732,15.76,8.65,30.1,1
733,15.77,-18.19,-1.58,1
734,15.78,-35.89,-12.39,1
735,15.8,-13.29,0.82,1
736,15.81,3.79,18.24,1
737,15.82,7.71,44.28,1
738,15.84,23.6,74.73,1
739,15.85,15.89,59.87,1
740,15.86,-30.48,14.26,1
741,15.88,-56.91,18.62,1
742,15.89,-35.24,36.28,1
743,15.9,4.49,5.81,1
744,15.92,32.33,4.98,1
745,15.93,35.85,59.35,1
746,15.94,17.98,82.83,1
747,15.96,-7.9,59.16,1
748,15.97,-23.66,12.3,1
749,15.98,-9.89,-44.04,1
750,16.0,20.0,-50.31,1
751,16.01,20.31,11.05,1
752,16.03,-14.86,46.33,1
753,16.04,-31.98,-5.81,1
754,16.05,-3.96,-55.44,1
755,16.07,14.11,-40.07,1
756,16.08,-18.43,-49.48,1
757,16.09,-39.44,-92.51,1
758,16.11,-3.02,-71.28,1
759,16.12,28.82,0.83,1
760,16.13,17.95,46.91,1
761,16.15,7.29,39.63,1
762,16.16,9.22,-5.94,0
763,16.17,-0.42,-39.42,0
764,16.19,-8.33,-41.8,0
765,16.2,8.58,-43.09,0
766,16.21,27.33,-28.77,0
767,16.23,18.43,18.28,0
768,16.24,3.33,26.18,0
769,16.25,9.03,-40.9,0
770,16.27,18.98,-91.89,0
771,16.28,14.53,-74.93,0
772,16.29,10.87,-58.42,0
773,16.31,22.94,-95.51,0
774,16.32,30.34,-161.51,0
775,16.33,11.94,-210.11,0
776,16.35,-7.55,-208.79,0
777,16.36,-0.37,-159.68,0
778,16.37,8.6,-102.45,0
779,16.39,-5.04,-58.67,0
780,16.4,-21.53,-16.38,0
781,16.41,-21.23,20.54,0
782,16.42,-10.02,42.39,0
783,16.44,-6.23,63.88,0
784,16.45,-14.15,90.62,0
785,16.46,-14.26,102.7,0
786,16.48,-3.94,93.54,0
787,16.49,-8.37,82.56,0
788,16.5,-29.71,75.99,0
789,16.52,-43.16,58.07,0
790,16.53,-43.15,36.73,0
791,16.54,-36.34,37.7,0
792,16.56,-17.59,53.62,1
793,16.57,6.78,64.2,1
794,16.58,16.94,74.77,1
795,16.6,12.08,88.22,1
796,16.61,4.38,86.28,1
797,16.62,-0.59,69.39,1
798,16.64,-0.72,61.4,1
799,16.65,3.21,66.87,1
800,16.67,8.15,74.59,1
801,16.68,9.57,76.17,1
802,16.69,4.19,64.88,1
803,16.71,-2.66,47.34,1
804,16.72,-2.18,39.29,1
805,16.73,1.77,43.71,1
806,16.75,4.34,48.64,1
807,16.76,12.2,43.12,1
808,16.77,17.01,33.75,1
809,16.79,3.59,31.06,1
810,16.8,-11.21,24.93,1
811,16.81,-9.28,11.49,1
812,16.83,-1.06,10.74,1
813,16.84,8.38,24.86,1
814,16.85,18.27,28.85,1
815,16.87,14.45,14.76,1
816,16.88,-1.69,3.33,1
817,16.89,-6.04,6.47,1
818,16.91,7.06,9.49,1
819,16.92,16.34,5.0,1
820,16.93,11.09,2.6,1
821,16.95,0.79,-0.49,1
822,16.96,-2.51,-11.77,1
823,16.97,2.61,-21.54,1
824,16.99,6.57,-18.88,1
825,17.0,7.78,-12.65,1
826,17.01,12.49,-14.19,1
827,17.03,14.26,-20.29,1
828,17.04,7.16,-24.17,1
829,17.05,0.28,-21.72,1
830,17.06,-5.75,-18.79,1
831,17.08,-12.98,-28.29,1
832,17.09,-11.06,-42.75,1
833,17.1,-3.5,-43.79,1
834,17.12,-5.16,-35.05,1
835,17.13,-10.51,-32.55,1
836,17.14,-6.55,-37.88,1
837,17.16,2.92,-41.05,1
838,17.17,7.29,-39.28,1
839,17.18,5.85,-37.45,1
840,17.2,3.57,-36.7,1
841,17.21,-0.62,-35.88,1
842,17.22,-4.33,-35.02,1
843,17.24,-1.23,-31.79,1
844,17.25,1.02,-23.19,1
845,17.26,-5.42,-17.75,1
846,17.28,-7.75,-26.19,1
847,17.29,0.82,-38.92,1
848,17.3,8.5,-42.61,1
849,17.32,11.96,-36.58,1
850,17.33,9.33,-25.45,1
851,17.35,-5.74,-18.83,1
852,17.36,-15.06,-20.96,1
853,17.37,-2.5,-22.24,1
854,17.39,6.46,-20.01,1
855,17.4,-8.56,-23.53,1
856,17.41,-22.29,-31.0,1
857,17.43,-11.93,-29.76,1
858,17.44,2.1,-16.41,1
859,17.45,0.16,-1.86,1
860,17.47,-2.9,-2.73,1
861,17.48,2.51,-21.39,1
862,17.49,1.78,-33.61,1
863,17.51,-9.4,-23.63,1
864,17.52,-15.12,-13.61,1
865,17.53,-5.59,-18.35,1
866,17.55,7.76,-18.64,1
867,17.56,11.13,-9.44,1
868,17.57,7.21,-8.83,1
869,17.59,1.03,-15.61,1
870,17.6,-8.68,-15.34,1
871,17.61,-13.96,-11.88,1
872,17.63,-5.2,-14.39,1
873,17.64,10.04,-14.81,1
874,17.65,17.62,-4.43,1
875,17.67,14.93,6.57,1
876,17.68,10.29,6.16,1
877,17.69,8.25,-0.63,1
878,17.7,5.38,-2.73,1
879,17.72,-1.47,-2.77,1
880,17.73,-11.23,-7.59,1
881,17.75,-12.96,-10.99,1
882,17.76,-0.7,-4.64,1
883,17.77,6.93,7.33,1
884,17.78,-3.72,11.28,1
885,17.8,-10.09,3.39,1
886,17.81,0.06,-2.45,1
887,17.82,1.27,-1.31,1
888,17.84,-9.96,1.78,1
889,17.85,-7.52,10.06,1
890,17.86,6.08,16.86,1
891,17.88,9.69,10.48,1
892,17.89,6.54,-1.38,1
893,17.9,7.05,-6.85,1
894,17.92,5.4,-5.71,1
895,17.93,-0.46,-1.34,1
896,17.94,0.18,3.21,1
897,17.96,7.01,6.02,1
898,17.97,6.62,9.44,1
899,17.99,-2.45,15.77,1
900,18.0,-4.06,18.86,1
901,18.01,3.74,15.54,1
902,18.03,2.66,14.43,1
903,18.04,-4.51,16.04,1
904,18.05,-4.23,14.17,1
905,18.07,-5.77,14.12,1
906,18.08,-9.29,17.41,1
907,18.09,-2.36,18.13,1
908,18.11,6.2,17.58,1
909,18.12,5.04,13.41,1
910,18.13,-0.58,1.48,1
911,18.15,-6.09,-6.49,1
912,18.16,-7.55,2.6,0
913,18.17,1.95,19.7,0
914,18.19,15.35,24.36,0
915,18.2,16.09,15.71,0
916,18.21,4.59,6.09,0
917,18.23,4.0,-15.04,0
918,18.24,22.39,-60.63,0
919,18.25,31.96,-105.96,0
920,18.27,16.55,-127.47,0
921,18.28,1.62,-136.53,0
922,18.29,7.89,-144.28,0
923,18.31,17.62,-142.5,0
924,18.32,10.07,-126.91,0
925,18.33,-4.13,-108.68,0
926,18.34,-6.7,-95.34,0
927,18.36,-2.56,-75.3,0
928,18.37,-3.64,-37.99,0
929,18.38,-9.08,2.61,0
930,18.4,-15.06,29.58,0
931,18.41,-16.29,52.33,0
932,18.42,-10.18,86.02,0
933,18.44,-8.65,116.1,0
934,18.45,-15.61,122.89,0
935,18.46,-18.65,118.86,0
936,18.48,-17.9,121.61,0
937,18.49,-19.71,128.11,0
938,18.5,-17.31,133.4,0
939,18.52,-10.51,136.18,0
940,18.53,-9.87,135.22,0
941,18.54,-12.01,133.24,0
942,18.56,-11.63,133.2,1
943,18.57,-12.58,134.55,1
944,18.58,-11.49,130.89,1
945,18.6,-8.84,118.2,1
946,18.61,-9.32,107.78,1
947,18.63,-4.68,110.23,1
948,18.64,4.52,111.13,1
949,18.65,5.2,92.23,1
950,18.67,4.3,69.52,1
951,18.68,12.22,65.38,1
952,18.69,13.39,67.6,1
953,18.71,-0.51,55.76,1
954,18.72,-11.16,37.74,1
955,18.73,-11.72,32.79,1
956,18.75,-9.9,34.04,1
957,18.76,-1.06,23.09,1
958,18.77,13.45,10.48,1
959,18.79,14.75,9.83,1
960,18.8,6.57,5.57,1
961,18.81,5.13,-9.59,1
962,18.83,3.11,-18.5,1
963,18.84,-4.99,-16.72,1
964,18.85,-11.33,-18.06,1
965,18.87,-8.83,-22.06,1
966,18.88,4.02,-17.91,1
967,18.89,14.21,-11.67,1
968,18.91,9.73,-18.66,1
969,18.92,1.61,-35.16,1
970,18.93,6.93,-41.35,1
971,18.95,17.38,-36.74,1
972,18.96,13.95,-40.04,1
973,18.97,5.98,-49.31,1
974,18.98,9.74,-47.11,1
975,19.0,15.56,-38.97,1
976,19.01,12.3,-42.76,1
977,19.02,-0.07,-53.32,1
978,19.04,-13.66,-52.68,1
979,19.05,-11.18,-42.56,1
980,19.06,5.21,-37.43,1
981,19.08,9.31,-42.27,1
982,19.09,-3.27,-49.37,1
983,19.1,-10.64,-51.41,1
984,19.12,-3.17,-53.05,1
985,19.13,6.48,-56.49,1
986,19.14,8.48,-53.76,1
987,19.16,7.43,-46.09,1
988,19.17,9.78,-42.95,1
989,19.18,11.67,-46.19,1
990,19.2,5.6,-48.24,1
991,19.21,-1.95,-41.29,1
992,19.22,1.02,-30.81,1
993,19.24,4.42,-31.41,1
994,19.25,-5.13,-43.85,1
995,19.26,-12.44,-51.42,1
996,19.28,-2.78,-46.78,1
997,19.29,8.3,-39.61,1
998,19.31,12.37,-35.96,1
999,19.32,18.48,-34.77,1
1000,19.33,15.9,-34.0,1
1001,19.35,-3.65,-32.36,1
1002,19.36,-17.51,-33.52,1
1003,19.37,-13.6,-39.42,1
1004,19.39,-8.53,-40.24,1
1005,19.4,-10.42,-29.03,1
1006,19.41,-8.01,-21.37,1
1007,19.43,3.24,-29.18,1
1008,19.44,11.92,-34.98,1
1009,19.45,10.1,-26.55,1
1010,19.47,2.66,-13.99,1
1011,19.48,-0.09,-6.72,1
1012,19.49,4.75,-7.44,1
1013,19.51,3.68,-11.24,1
1014,19.52,-7.83,-12.74,1
1015,19.53,-10.04,-15.35,1
1016,19.55,3.81,-18.57,1
1017,19.56,12.85,-15.33,1
1018,19.57,1.62,-8.56,1
1019,19.59,-14.64,-6.62,1
1020,19.6,-11.76,-6.97,1
1021,19.61,-0.31,-6.75,1
1022,19.62,-4.31,-8.57,1
1023,19.64,-10.93,-11.49,1
1024,19.65,-0.36,-12.57,1
1025,19.67,12.57,-8.99,1
1026,19.68,9.37,-1.35,1
1027,19.69,-3.5,2.81,1
1028,19.7,-13.19,0.15,1
1029,19.72,-12.62,-2.39,1
1030,19.73,0.92,1.57,1
1031,19.75,15.92,8.73,1
1032,19.76,12.97,11.14,1
1033,19.77,-6.42,9.41,1
1034,19.78,-18.76,9.83,1
1035,19.8,-13.14,9.39,1
1036,19.81,-4.41,3.75,1
1037,19.82,-3.91,-0.75,1
1038,19.84,-3.66,3.05,1
1039,19.85,4.76,13.31,1
1040,19.86,12.55,20.22,1
1041,19.88,6.64,19.93,1
1042,19.89,-3.79,20.15,1
1043,19.9,-0.52,19.53,1
1044,19.92,9.87,11.9,1
1045,19.93,10.09,9.21,1
1046,19.95,1.43,19.37,1
1047,19.96,-6.27,28.24,1
1048,19.97,-11.01,28.41,1
1049,19.99,-9.59,25.37,1
1050,20.0,2.9,20.81,1
1051,20.01,18.01,18.42,1
1052,20.03,20.62,23.57,1
1053,20.04,10.42,33.06,1
1054,20.05,0.36,38.29,1
1055,20.07,0.77,32.85,1
1056,20.08,7.2,23.12,1
1057,20.09,7.54,23.3,1
1058,20.11,3.23,27.41,1
1059,20.12,2.86,19.15,1
1060,20.13,2.56,9.52,1
1061,20.15,0.64,13.42,1
1062,20.16,1.4,20.61,2
1063,20.17,-0.27,24.67,2
1064,20.19,-3.42,35.07,2
1065,20.2,-3.71,67.39,2
1066,20.21,-11.59,142.8,2
1067,20.23,-22.89,247.64,2
1068,20.24,-17.68,316.71,2
1069,20.25,-5.41,313.61,2
1070,20.26,-8.38,271.65,2
1071,20.28,-17.75,220.88,2
1072,20.29,-17.05,150.68,2
1073,20.3,-15.43,64.82,2
1074,20.32,-21.24,-2.97,2
1075,20.33,-19.22,-42.8,2
1076,20.34,-6.44,-80.11,2
1077,20.36,-4.51,-128.01,2
1078,20.37,-11.75,-171.16,2
1079,20.38,-4.69,-200.06,2
1080,20.4,9.13,-219.29,2
1081,20.41,5.48,-221.98,2
1082,20.42,-5.51,-198.23,2
1083,20.44,1.45,-165.74,2
1084,20.45,17.06,-151.49,2
1085,20.46,13.32,-151.98,2
1086,20.48,-0.86,-143.18,2
1087,20.49,3.62,-119.96,2
1088,20.5,16.51,-101.97,2
1089,20.52,11.48,-101.6,2
1090,20.53,-3.07,-105.22,2
1091,20.54,-7.6,-97.92,2
1092,20.56,2.57,-83.02,1
1093,20.57,26.25,-65.03,1
1094,20.59,44.56,-49.5,1
1095,20.6,33.6,-47.42,1
1096,20.61,8.23,-54.36,1
1097,20.63,-4.71,-54.36,1
1098,20.64,-5.85,-43.71,1
1099,20.65,0.25,-33.34,1
1100,20.67,10.82,-27.76,1
1101,20.68,12.13,-14.58,1
1102,20.69,0.04,6.5,1
1103,20.71,-8.17,17.67,1
1104,20.72,1.13,13.09,1
1105,20.73,16.01,1.79,1
1106,20.75,16.45,-0.95,1
1107,20.76,4.27,16.27,1
1108,20.77,-5.56,40.87,1
1109,20.79,-9.52,50.64,1
1110,20.8,-11.32,43.37,1
1111,20.81,-11.1,36.75,1
1112,20.83,-10.99,40.33,1
1113,20.84,-13.49,42.11,1
1114,20.85,-13.08,36.59,1
1115,20.87,-5.7,33.41,1
1116,20.88,-0.3,30.89,1
1117,20.89,-4.08,27.36,1
1118,20.9,-7.79,35.76,1
1119,20.92,-2.84,53.72,1
1120,20.93,5.11,60.69,1
1121,20.94,6.81,52.53,1
1122,20.96,1.39,43.0,1
1123,20.97,-3.0,38.78,1
1124,20.98,-3.77,37.65,1
1125,21.0,-2.96,40.49,1
1126,21.01,2.15,51.39,1
1127,21.02,8.32,60.09,1
1128,21.04,5.63,51.94,1
1129,21.05,-4.99,38.43,1
1130,21.06,-8.94,35.76,1
1131,21.08,-2.84,40.26,1
1132,21.09,-1.54,43.93,1
1133,21.1,-7.04,45.76,1
1134,21.12,-7.63,46.76,1
1135,21.13,-3.38,46.06,1
1136,21.14,-2.63,39.46,1
1137,21.16,-5.77,29.05,1
1138,21.17,-7.87,23.85,1
1139,21.18,-8.33,24.92,1
1140,21.2,-9.07,26.38,1
1141,21.21,-6.27,28.78,1
1142,21.23,3.73,31.44,1
1143,21.24,10.92,30.11,1
1144,21.25,6.65,28.34,1
1145,21.27,1.47,29.76,1
1146,21.28,3.79,25.64,1
1147,21.29,7.13,13.48,1
1148,21.31,5.94,9.86,1
1149,21.32,-0.91,19.24,1
1150,21.33,-8.45,23.73,1
1151,21.35,-3.53,16.3,1
1152,21.36,10.82,7.66,1
1153,21.37,10.79,7.89,1
1154,21.39,-2.47,13.58,1
1155,21.4,-1.7,14.15,1
1156,21.41,10.28,9.22,1
1157,21.43,9.3,5.36,1
1158,21.44,1.72,4.08,1
1159,21.45,1.36,8.61,1
1160,21.47,-0.05,17.08,1
1161,21.48,-1.07,10.39,1
1162,21.49,6.06,-11.56,1
1163,21.51,4.47,-16.25,1
1164,21.52,-12.18,-2.54,1
1165,21.53,-20.29,-2.91,1
1166,21.54,-14.25,-11.95,1
1167,21.56,-9.62,-5.26,1
1168,21.57,-9.55,4.12,1
1169,21.58,-7.05,0.79,1
1170,21.6,1.53,-6.94,1
1171,21.61,9.53,-13.91,1
1172,21.62,7.4,-17.75,1
1173,21.64,2.45,-15.43,1
1174,21.65,7.92,-13.1,1
1175,21.67,14.9,-14.12,1
1176,21.68,7.27,-14.56,1
1177,21.69,-4.49,-13.53,1
1178,21.7,-1.78,-12.12,1
1179,21.72,5.22,-13.18,1
1180,21.73,-1.94,-15.08,1
1181,21.75,-12.66,-13.41,1
1182,21.76,-7.85,-17.48,1
1183,21.77,3.96,-30.76,1
1184,21.78,5.03,-34.34,1
1185,21.8,-1.63,-22.25,1
1186,21.81,-1.31,-14.58,1
1187,21.82,6.42,-21.12,1
1188,21.84,3.8,-26.24,1
1189,21.85,-10.5,-24.47,1
1190,21.865,-9.96,-30.02,1
1191,21.88,9.24,-35.16,1
1192,21.89,16.26,-25.49,1
1193,21.91,4.11,-17.13,1
1194,21.92,-1.59,-18.25,1
1195,21.93,3.99,-16.31,1
1196,21.95,1.8,-14.3,1
1197,21.96,-7.49,-18.3,1
1198,21.97,-9.76,-20.07,1
1199,21.99,-7.67,-17.01,1
1200,22.0,-4.31,-16.24,1
1201,22.01,3.92,-17.49,1
1202,22.03,5.52,-18.1,1
1203,22.04,-5.69,-21.86,1
1204,22.05,-9.36,-21.83,1
1205,22.07,2.48,-9.46,1
1206,22.08,9.35,-1.08,1
1207,22.09,0.81,-8.76,1
1208,22.11,-6.47,-16.0,1
1209,22.12,-1.21,-13.71,1
1210,22.13,-0.51,-11.41,1
1211,22.15,-10.01,-8.72,1
1212,22.16,-2.96,8.62,2
1213,22.17,23.82,51.2,2
1214,22.18,46.92,99.63,2
1215,22.2,51.36,103.93,2
1216,22.21,19.19,72.27,2
1217,22.22,-25.14,79.45,2
1218,22.24,-16.76,113.64,2
1219,22.25,19.26,92.06,2
1220,22.26,4.22,50.44,2
1221,22.28,-45.63,94.83,2
1222,22.29,-56.8,188.94,2
1223,22.3,-17.16,176.08,2
1224,22.32,24.11,42.1,2
1225,22.33,27.64,-36.92,2
1226,22.34,1.44,-18.76,2
1227,22.36,-14.83,-52.19,2
1228,22.37,-2.13,-122.25,2
1229,22.38,19.65,-90.76,2
1230,22.4,28.1,-37.39,2
1231,22.41,26.39,-97.84,2
1232,22.42,22.35,-169.8,2
1233,22.44,8.71,-119.19,2
1234,22.45,-8.65,-32.99,2
1235,22.46,-27.12,-48.03,2
1236,22.48,-58.86,-118.31,2
1237,22.49,-70.99,-134.22,2
1238,22.5,-31.99,-97.29,2
1239,22.52,5.05,-80.04,2
1240,22.53,-5.33,-123.53,2
1241,22.55,-28.7,-177.36,1
1242,22.56,-31.93,-147.53,1
1243,22.57,-12.53,-54.09,1
1244,22.59,18.91,-34.37,1
1245,22.6,30.55,-89.19,1
1246,22.61,14.69,-93.21,1
1247,22.63,3.81,-56.31,1
1248,22.64,9.83,-29.7,1
1249,22.65,7.58,-0.85,1
1250,22.67,-6.64,2.68,1
1251,22.68,0.77,-17.9,1
1252,22.69,21.45,-30.33,1
1253,22.71,12.99,-32.1,1
1254,22.72,-8.04,-1.23,1
1255,22.73,-4.54,47.08,1
1256,22.75,8.89,55.97,1
1257,22.76,8.8,12.18,1
1258,22.77,7.39,-35.06,1
1259,22.79,14.51,-23.68,1
1260,22.8,9.41,17.78,1
1261,22.81,-6.61,20.74,1
1262,22.82,3.31,4.24,1
1263,22.84,23.24,-1.05,1
1264,22.85,4.39,-6.71,1
1265,22.86,-21.36,7.23,1
1266,22.88,-6.66,41.82,1
1267,22.89,15.04,48.8,1
1268,22.9,10.73,39.62,1
1269,22.92,5.6,29.7,1
1270,22.93,10.25,-17.8,1
1271,22.94,-5.96,-34.91,1
1272,22.96,-42.65,45.72,1
1273,22.97,-54.49,82.17,1
1274,22.98,-18.56,-9.66,1
1275,23.0,34.3,-58.67,1
1276,23.01,52.38,38.15,1
1277,23.02,24.82,137.37,1
1278,23.04,-7.81,95.31,1
1279,23.05,-12.43,-8.13,1
1280,23.06,6.58,9.24,1
1281,23.08,21.06,109.41,1
1282,23.09,10.0,96.97,1
1283,23.1,-8.11,-3.41,1
1284,23.12,-11.28,-26.21,1
1285,23.13,-10.71,19.24,1
1286,23.14,-7.7,32.97,1
1287,23.16,5.98,11.17,1
1288,23.17,17.92,-11.14,1
1289,23.19,22.02,-26.0,1
1290,23.2,18.02,-17.04,1
1291,23.21,1.18,24.45,1
1292,23.23,-13.34,48.56,1
1293,23.24,-5.64,18.73,1
1294,23.25,4.96,-7.78,1
1295,23.27,-4.34,10.25,1
1296,23.28,-7.09,39.65,1
1297,23.29,11.82,70.63,1
1298,23.31,16.71,91.18,1
1299,23.32,-5.97,54.02,1
1300,23.33,-17.02,-1.81,1
1301,23.35,6.81,18.33,1
1302,23.36,29.99,65.66,1
1303,23.37,26.62,44.96,1
1304,23.39,16.74,22.43,1
1305,23.4,4.58,55.25,1
1306,23.41,-13.06,75.56,1
1307,23.43,-19.98,52.49,1
1308,23.44,-22.31,27.62,1
1309,23.45,-27.81,35.76,1
1310,23.46,-18.25,48.55,1
1311,23.48,3.64,27.3,1
1312,23.49,17.38,1.31,1
1313,23.5,21.21,-16.23,1
1314,23.52,12.76,-61.99,1
1315,23.53,-0.59,-113.29,1
1316,23.54,7.67,-83.82,1
1317,23.56,24.28,14.48,1
1318,23.57,14.47,58.46,1
1319,23.58,-10.44,30.71,1
1320,23.6,-16.73,20.76,1
1321,23.61,-2.36,34.89,1
1322,23.62,3.96,36.08,1
1323,23.64,-2.12,44.37,1
1324,23.65,4.27,41.13,1
1325,23.67,10.03,-5.86,1
1326,23.68,-15.57,-19.39,1
1327,23.69,-44.13,12.61,1
1328,23.7,-29.87,-8.1,1
1329,23.72,6.32,-31.7,1
1330,23.73,15.92,30.73,1
1331,23.75,3.29,82.1,1
1332,23.76,0.79,41.62,1
1333,23.77,7.62,-7.25,1
1334,23.78,-0.27,-20.42,1
1335,23.8,-22.99,-38.24,1
1336,23.81,-34.03,-29.73,1
1337,23.83,-24.04,12.6,1
1338,23.84,-10.89,7.29,1
1339,23.85,-4.05,-13.27,1
1340,23.87,-3.67,31.39,1
1341,23.88,-15.39,57.5,1
1342,23.89,-25.47,-2.32,1
1343,23.91,-12.7,-36.97,1
1344,23.92,4.55,18.24,1
1345,23.93,1.67,66.34,1
1346,23.95,-8.51,38.35,1
1347,23.96,-5.48,-11.15,1
1348,23.97,5.31,-27.19,1
1349,23.99,6.23,-16.24,1
1350,24.0,1.42,8.39,1
1351,24.01,4.94,-0.87,1
1352,24.03,11.57,-73.03,1
1353,24.04,12.38,-111.72,1
1354,24.05,9.01,-65.16,1
1355,24.07,2.99,-19.79,1
1356,24.08,-5.14,-10.59,1
1357,24.09,-3.94,-2.05,1
1358,24.1,14.53,-3.22,1
1359,24.12,29.35,-29.9,1
1360,24.13,20.26,-42.93,1
1361,24.14,2.95,-13.52,1
1362,24.16,-2.25,17.89,0
1363,24.17,-2.22,13.8,0
1364,24.18,-6.9,-12.53,0
1365,24.2,-7.68,-50.72,0
1366,24.21,6.39,-89.08,0
1367,24.22,22.54,-107.93,0
1368,24.24,19.48,-121.82,0
1369,24.25,-1.12,-139.29,0
1370,24.26,-24.55,-148.73,0
1371,24.28,-34.25,-170.63,0
1372,24.29,-22.66,-206.43,0
1373,24.3,-4.92,-199.3,0
1374,24.32,5.42,-131.54,0
1375,24.33,9.74,-56.57,0
1376,24.34,4.78,-8.05,0
1377,24.36,-7.5,31.56,0
1378,24.37,-8.32,72.5,0
1379,24.38,4.45,93.74,0
1380,24.4,10.61,89.91,0
1381,24.41,6.5,85.48,0
1382,24.42,2.37,90.17,0
1383,24.44,1.34,96.05,0
1384,24.45,5.15,98.38,0
1385,24.46,11.21,95.38,0
1386,24.48,14.56,89.14,0
1387,24.49,15.63,81.69,0
1388,24.51,8.33,67.73,0
1389,24.52,-7.83,53.72,0
1390,24.53,-14.41,58.1,0
1391,24.55,-6.18,68.88,1
1392,24.56,-0.59,60.74,1
1393,24.57,-1.76,48.88,1
1394,24.59,0.47,56.68,1
1395,24.6,1.99,65.67,1
1396,24.61,-3.93,52.15,1
1397,24.63,-8.18,35.41,1
1398,24.64,-1.36,39.46,1
1399,24.65,7.7,45.81,1
1400,24.67,1.4,36.83,1
1401,24.68,-14.33,25.97,1
1402,24.69,-16.27,18.21,1
1403,24.71,-5.06,10.89,1
1404,24.72,2.06,11.93,1
1405,24.73,-1.79,17.75,1
1406,24.75,-6.67,17.04,1
1407,24.76,2.14,11.53,1
1408,24.77,10.61,2.04,1
1409,24.78,-1.13,-11.31,1
1410,24.8,-10.67,-12.72,1
1411,24.81,1.57,3.74,1
1412,24.82,14.81,15.32,1
1413,24.84,11.03,7.43,1
1414,24.85,-3.07,-1.11,1
1415,24.86,-12.48,0.44,1
1416,24.88,-10.73,-7.35,1
1417,24.89,-6.93,-21.99,1
1418,24.9,-8.57,-16.12,1
1419,24.92,-7.52,2.81,1
1420,24.93,1.41,6.54,1
1421,24.94,8.32,-5.98,1
1422,24.96,6.97,-17.83,1
1423,24.97,4.65,-18.36,1
1424,24.98,6.7,-11.19,1
1425,25.0,9.06,-5.93,1
1426,25.01,6.45,-6.9,1
1427,25.02,2.03,-15.0,1
1428,25.04,2.75,-22.19,1
1429,25.05,6.38,-19.38,1
1430,25.06,3.39,-17.59,1
1431,25.08,-5.8,-22.84,1
1432,25.09,-8.89,-19.33,1
1433,25.1,-6.3,-6.48,1
1434,25.12,-6.37,-4.75,1
1435,25.13,1.28,-19.1,1
1436,25.15,19.14,-33.21,1
1437,25.16,21.29,-34.65,1
1438,25.17,3.5,-26.28,1
1439,25.19,-7.35,-19.12,1
1440,25.2,-4.42,-16.74,1
1441,25.21,-0.19,-12.3,1
1442,25.23,0.72,-8.42,1
1443,25.24,1.04,-15.02,1
1444,25.25,5.6,-29.83,1
1445,25.27,8.25,-39.81,1
1446,25.28,-2.44,-35.84,1
1447,25.29,-13.51,-28.26,1
1448,25.31,-6.04,-30.08,1
1449,25.32,6.66,-26.56,1
1450,25.33,9.26,-10.33,1
1451,25.35,10.71,-5.9,1
1452,25.36,9.31,-15.79,1
1453,25.37,-1.18,-17.9,1
1454,25.38,-2.17,-18.24,1
1455,25.4,7.32,-28.71,1
1456,25.41,-0.96,-31.17,1
1457,25.42,-18.52,-18.27,1
1458,25.44,-12.01,-11.4,1
1459,25.45,9.29,-13.79,1
1460,25.46,14.54,-10.28,1
1461,25.48,3.67,-5.26,1
1462,25.49,-5.27,-6.11,1
1463,25.5,-8.28,-2.11,1
1464,25.52,-12.34,5.46,1
1465,25.53,-12.69,-6.78,1
1466,25.54,3.62,-33.64,1
1467,25.56,23.42,-35.55,1
1468,25.57,17.36,-9.55,1
1469,25.58,-6.02,3.14,1
1470,25.6,-12.82,-9.6,1
1471,25.61,1.04,-17.34,1
1472,25.62,13.47,-8.53,1
1473,25.64,15.07,-4.65,1
1474,25.65,13.24,-8.94,1
1475,25.67,10.26,-3.47,1
1476,25.68,2.51,6.32,1
1477,25.69,-4.82,3.73,1
1478,25.7,-5.11,-9.04,1
1479,25.72,-2.75,-17.2,1
1480,25.73,-3.61,-9.22,1
1481,25.75,-5.13,3.85,1
1482,25.76,-4.25,3.47,1
1483,25.77,-1.08,2.47,1
1484,25.79,5.56,11.72,1
1485,25.8,9.36,10.3,1
1486,25.81,1.97,0.55,1
1487,25.83,-7.11,6.53,1
1488,25.84,-7.59,17.6,1
1489,25.85,-6.59,14.1,1
1490,25.87,-4.06,5.55,1
1491,25.88,5.19,3.74,1
1492,25.89,7.61,-0.57,1
1493,25.91,-0.43,-10.29,1
1494,25.92,-1.63,-5.42,1
1495,25.93,0.14,14.99,1
1496,25.95,-7.91,17.39,1
1497,25.96,-12.9,-5.88,1
1498,25.97,-4.99,-15.82,1
1499,25.99,2.93,3.37,1
1500,26.0,-1.64,20.11,1
1501,26.01,-14.51,16.83,1
1502,26.02,-18.7,8.73,1
1503,26.04,-9.58,7.88,1
1504,26.05,-3.6,14.78,1
1505,26.06,-9.11,23.19,1
1506,26.08,-12.46,22.44,1
1507,26.09,-3.63,12.6,1
1508,26.1,7.66,3.88,1
1509,26.12,9.02,3.97,1
1510,26.13,0.11,10.81,1
1511,26.14,-10.99,17.65,1
1512,26.16,-11.15,15.24,0
1513,26.17,6.5,-20.12,0
1514,26.18,22.29,-92.52,0
1515,26.2,13.24,-157.37,0
1516,26.21,-1.58,-182.26,0
1517,26.22,4.64,-176.04,0
1518,26.24,18.76,-148.28,0
1519,26.25,24.61,-110.16,0
1520,26.26,29.7,-87.77,0
1521,26.28,40.64,-86.15,0
1522,26.29,44.61,-78.0,0
1523,26.3,23.73,-48.95,0
1524,26.32,-5.64,-13.57,0
1525,26.33,-10.74,17.7,0
1526,26.34,-1.87,47.88,0
1527,26.36,-10.43,73.72,0
1528,26.37,-31.3,91.08,0
1529,26.38,-40.98,108.29,0
1530,26.4,-33.2,129.55,0
1531,26.41,-17.15,144.17,0
1532,26.43,-5.26,142.86,0
1533,26.44,-4.45,133.04,0
1534,26.45,-13.8,133.88,0
1535,26.47,-25.85,146.77,0
1536,26.48,-30.17,152.57,0
1537,26.49,-21.2,145.44,0
1538,26.51,-6.04,133.37,0
1539,26.52,-0.96,122.16,0
1540,26.53,-8.72,116.28,0
1541,26.55,-13.17,114.51,1
1542,26.56,-7.14,111.28,1
1543,26.57,-0.97,101.27,1
1544,26.59,-0.56,84.72,1
1545,26.6,-1.96,73.39,1
1546,26.61,-1.95,74.85,1
1547,26.63,0.88,79.19,1
1548,26.64,4.46,73.41,1
1549,26.65,1.56,57.29,1
1550,26.67,-5.04,41.01,1
1551,26.68,-2.84,29.41,1
1552,26.69,4.52,17.91,1
1553,26.7,2.83,9.12,1
1554,26.72,-3.97,10.48,1
1555,26.73,-3.45,13.43,1
1556,26.75,0.11,-0.06,1
1557,26.76,-3.43,-23.79,1
1558,26.77,-8.42,-29.73,1
1559,26.78,-7.62,-13.41,1
1560,26.8,-4.77,-2.27,1
1561,26.81,0.44,-13.08,1
1562,26.82,8.49,-31.47,1
1563,26.84,13.59,-37.29,1
1564,26.85,16.88,-35.29,1
1565,26.86,17.21,-40.69,1
1566,26.88,7.93,-47.56,1
1567,26.89,-1.84,-48.34,1
1568,26.9,1.27,-50.89,1
1569,26.92,8.84,-52.14,1
1570,26.93,8.54,-47.27,1
1571,26.94,6.6,-48.11,1
1572,26.96,12.9,-57.41,1
1573,26.97,20.87,-62.61,1
1574,26.98,13.51,-61.13,1
1575,27.0,-7.42,-59.62,1
1576,27.01,-16.0,-56.76,1
1577,27.02,-5.11,-49.87,1
1578,27.04,5.67,-42.84,1
1579,27.05,10.15,-39.44,1
1580,27.065,15.0,-40.87,1
1581,27.08,14.77,-46.74,1
1582,27.09,6.83,-54.93,1
1583,27.11,4.32,-59.51,1
1584,27.12,9.52,-52.09,1
1585,27.13,6.93,-36.67,1
1586,27.15,-5.53,-34.53,1
1587,27.16,-11.88,-51.22,1
1588,27.17,-5.11,-62.24,1
1589,27.19,5.33,-54.19,1
1590,27.2,13.23,-42.41,1
1591,27.21,15.15,-37.13,1
1592,27.23,8.88,-34.21,1
1593,27.24,2.54,-31.75,1
1594,27.25,-0.51,-31.11,1
1595,27.27,-2.51,-32.9,1
1596,27.28,-2.18,-36.74,1
1597,27.29,-3.55,-41.14,1
1598,27.3,-6.15,-44.2,1
1599,27.32,-0.57,-42.32,1
1600,27.33,11.84,-33.99,1
1601,27.34,15.97,-25.05,1
1602,27.36,7.3,-20.54,1
1603,27.37,-0.31,-18.06,1
1604,27.38,0.56,-17.05,1
1605,27.4,0.1,-19.59,1
1606,27.41,-5.29,-20.08,1
1607,27.42,-4.32,-13.44,1
1608,27.44,2.75,-7.1,1
1609,27.45,4.04,-6.86,1
1610,27.46,-0.65,-6.94,1
1611,27.48,-4.07,-4.08,1
1612,27.49,-2.01,-1.16,1
1613,27.5,1.93,-0.08,1
1614,27.52,-2.03,-1.06,1
1615,27.53,-8.65,-3.96,1
1616,27.54,-3.52,-8.12,1
1617,27.56,6.89,-9.55,1
1618,27.57,7.79,-5.43,1
1619,27.58,-1.26,0.31,1
1620,27.6,-11.63,4.87,1
1621,27.61,-13.15,9.15,1
1622,27.62,-3.95,9.39,1
1623,27.64,3.97,5.05,1
1624,27.65,4.64,6.86,1
1625,27.67,3.35,18.6,1
1626,27.68,0.66,25.75,1
1627,27.69,-4.11,19.67,1
1628,27.7,-7.26,11.28,1
1629,27.72,-8.05,9.78,1
1630,27.73,-3.99,13.19,1
1631,27.75,5.36,19.46,1
1632,27.76,8.51,25.41,1
1633,27.77,-0.89,24.44,1
1634,27.79,-9.5,15.31,1
1635,27.8,-3.68,5.54,1
1636,27.81,10.26,4.65,1
1637,27.83,16.37,9.65,1
1638,27.84,9.68,8.83,1
1639,27.85,0.08,6.68,1
1640,27.87,-7.07,13.42,1
1641,27.88,-15.15,19.09,1
1642,27.89,-18.6,16.06,1
1643,27.91,-10.67,15.55,1
1644,27.92,-2.53,21.66,1
1645,27.93,-4.28,22.2,1
1646,27.94,-7.48,14.31,1
1647,27.96,-5.06,11.49,1
1648,27.97,-1.21,19.0,1
1649,27.98,3.89,26.57,1
1650,28.0,8.72,25.42,1
1651,28.01,2.12,16.21,1
1652,28.02,-9.83,10.21,1
1653,28.04,-6.0,18.63,1
1654,28.05,7.07,28.47,1
1655,28.06,4.57,20.16,1
1656,28.08,-12.17,5.87,1
1657,28.09,-17.29,8.89,1
1658,28.1,-5.56,23.02,1
1659,28.12,-2.21,25.11,1
1660,28.13,-12.02,14.07,1
1661,28.14,-12.05,10.21,1
1662,28.16,-2.27,19.61,2
1663,28.17,-1.66,27.69,2
1664,28.18,-2.31,26.44,2
1665,28.2,12.4,20.27,2
1666,28.21,23.92,15.36,2
1667,28.22,10.23,14.31,2
1668,28.24,-9.43,13.87,2
1669,28.25,-9.22,9.26,2
1670,28.26,4.81,4.0,2
1671,28.28,13.27,1.82,2
1672,28.29,9.9,2.5,2
1673,28.3,5.14,6.64,2
1674,28.32,4.95,12.12,2
1675,28.33,3.57,27.34,2
1676,28.34,1.92,83.56,2
1677,28.36,2.28,185.15,2
1678,28.37,-5.37,274.89,2
1679,28.39,-19.53,302.91,2
1680,28.4,-19.22,283.22,2
1681,28.41,-5.13,238.33,2
1682,28.43,-3.57,166.93,2
1683,28.44,-17.6,86.81,2
1684,28.45,-24.18,28.92,2
1685,28.47,-17.7,-10.67,2
1686,28.48,-15.67,-61.44,2
1687,28.49,-22.51,-130.17,2
1688,28.51,-22.8,-187.44,2
1689,28.52,-11.29,-206.44,2
1690,28.53,4.49,-200.28,2
1691,28.55,18.36,-195.33,1
1692,28.56,22.16,-190.91,1
1693,28.57,14.79,-175.76,1
1694,28.58,9.66,-158.24,1
1695,28.6,11.49,-150.45,1
1696,28.61,14.39,-143.16,1
1697,28.62,16.93,-115.1,1
1698,28.64,16.73,-70.61,1
1699,28.65,13.95,-49.04,1
1700,28.67,16.64,-69.27,1
1701,28.68,20.53,-98.28,1
1702,28.69,18.33,-102.93,1
1703,28.7,17.13,-86.25,1
1704,28.72,17.18,-68.96,1
1705,28.73,7.9,-65.24,1
1706,28.75,-7.24,-68.05,1
1707,28.76,-9.94,-59.6,1
1708,28.77,3.15,-39.64,1
1709,28.78,10.87,-25.91,1
1710,28.8,2.95,-25.68,1
1711,28.81,-3.47,-27.79,1
1712,28.82,2.71,-24.6,1
1713,28.84,8.36,-19.13,1
1714,28.85,3.94,-12.31,1
1715,28.86,-4.04,-2.31,1
1716,28.88,-11.27,3.82,1
1717,28.89,-12.06,0.52,1
1718,28.9,-2.56,2.56,1
1719,28.92,2.84,16.84,1
1720,28.93,-0.97,25.29,1
1721,28.94,-4.77,19.21,1
1722,28.96,-10.08,9.19,1
1723,28.97,-9.43,8.56,1
1724,28.98,4.84,20.81,1
1725,29.0,9.11,32.39,1
1726,29.01,-3.96,34.94,1
1727,29.03,-3.31,38.5,1
1728,29.04,12.14,47.52,1
1729,29.05,14.57,51.98,1
1730,29.07,8.14,46.12,1
1731,29.08,6.62,34.09,1
1732,29.09,3.06,28.33,1
1733,29.11,-0.45,38.26,1
1734,29.12,3.03,46.63,1
1735,29.13,0.82,36.57,1
1736,29.15,-10.81,30.41,1
1737,29.16,-11.88,45.98,1
1738,29.17,2.22,59.43,1
1739,29.19,11.02,54.4,1
1740,29.2,6.87,49.04,1
1741,29.21,-0.14,49.65,1
1742,29.22,-6.17,44.86,1
1743,29.24,-11.39,36.49,1
1744,29.25,-11.15,28.81,1
1745,29.26,-4.71,23.26,1
1746,29.28,-0.58,26.74,1
1747,29.29,-3.2,32.28,1
1748,29.3,-7.42,26.45,1
1749,29.32,-11.6,18.49,1
1750,29.33,-11.75,22.0,1
1751,29.34,-2.16,30.42,1
1752,29.36,2.33,30.97,1
1753,29.37,-9.41,28.17,1
1754,29.38,-12.78,33.65,1
1755,29.4,3.44,39.82,1
1756,29.41,7.79,35.47,1
1757,29.42,-7.98,26.45,1
1758,29.44,-14.5,22.15,1
1759,29.45,-3.92,26.67,1
1760,29.46,4.71,34.57,1
1761,29.48,1.32,34.32,1
1762,29.49,-2.84,25.71,1
1763,29.5,3.7,16.06,1
1764,29.52,9.03,5.31,1
1765,29.53,-1.2,1.56,1
1766,29.54,-15.92,14.37,1
1767,29.56,-13.98,25.85,1
1768,29.57,2.3,16.74,1
1769,29.58,11.21,1.2,1
1770,29.6,8.38,-3.37,1
1771,29.61,5.07,-0.6,1
1772,29.62,2.28,5.21,1
1773,29.64,-3.2,12.55,1
1774,29.65,-7.83,15.95,1
1775,29.67,-6.86,11.69,1
1776,29.68,-2.66,-3.27,1
1777,29.69,-0.48,-21.3,1
1778,29.71,2.43,-24.58,1
1779,29.72,5.6,-12.06,1
1780,29.73,2.69,1.44,1
1781,29.75,-2.29,8.4,1
1782,29.76,-2.7,8.09,1
1783,29.77,1.24,1.88,1
1784,29.79,4.66,-1.58,1
1785,29.8,2.15,1.03,1
1786,29.81,-2.82,-1.12,1
1787,29.83,-1.7,-8.02,1
1788,29.84,5.56,-7.04,1
1789,29.85,9.95,-5.67,1
1790,29.86,5.54,-16.52,1
1791,29.88,-0.94,-25.19,1
1792,29.89,-2.0,-21.81,1
1793,29.9,-2.3,-19.8,1
1794,29.92,-6.78,-19.94,1
1795,29.93,-10.35,-14.83,1
1796,29.94,-8.74,-14.6,1
1797,29.96,-3.19,-18.47,1
1798,29.97,3.03,-14.2,1
1799,29.98,3.19,-11.0,1
1800,30.0,-7.48,-16.81,1
1801,30.01,-17.99,-21.48,1
1802,30.02,-11.78,-20.28,1
1803,30.04,0.51,-18.77,1
1804,30.05,-2.16,-20.96,1
1805,30.06,-9.57,-22.55,1
1806,30.08,-2.29,-17.46,1
1807,30.09,11.14,-12.77,1
1808,30.1,12.49,-14.58,1
1809,30.12,5.8,-14.06,1
1810,30.13,2.81,-10.06,1
1811,30.14,3.59,-18.04,1
1812,30.16,8.41,-38.24,2
1813,30.17,12.28,-48.57,2
1814,30.18,4.7,-33.0,2
1815,30.2,-6.85,16.18,2
1816,30.21,-4.81,91.57,2
1817,30.22,11.33,144.81,2
1818,30.24,20.18,148.29,2
1819,30.25,5.78,131.46,2
1820,30.26,-16.21,129.17,2
1821,30.28,-17.6,166.6,2
1822,30.29,2.21,170.28,2
1823,30.3,8.25,40.14,2
1824,30.32,-15.56,-124.46,2
1825,30.33,-41.31,-163.0,2
1826,30.35,-40.22,-65.55,2
1827,30.36,-6.07,77.56,2
1828,30.37,39.39,161.58,2
1829,30.39,54.74,131.21,2
1830,30.4,29.76,44.73,2
1831,30.41,6.19,-4.74,2
1832,30.43,10.46,-17.05,2
1833,30.44,15.92,-43.49,2
1834,30.45,5.99,-118.61,2
1835,30.47,3.93,-191.12,2
1836,30.48,17.29,-166.08,2
1837,30.49,10.4,-99.73,2
1838,30.5,-25.01,-124.4,2
1839,30.52,-34.33,-213.19,2
1840,30.53,-3.2,-221.76,2
1841,30.54,13.38,-139.23,2
1842,30.56,-2.23,-99.72,1
1843,30.57,-18.91,-130.03,1
1844,30.58,-24.62,-154.15,1
1845,30.6,-20.7,-135.07,1
1846,30.61,-10.36,-75.09,1
1847,30.62,-9.48,-51.63,1
1848,30.64,-15.33,-120.62,1
1849,30.65,-0.41,-147.71,1
1850,30.67,36.43,-39.81,1
1851,30.68,49.95,37.35,1
1852,30.69,15.28,-24.48,1
1853,30.7,-15.98,-88.81,1
1854,30.72,-9.19,-71.08,1
1855,30.73,-0.9,-50.11,1
1856,30.75,-0.55,-42.91,1
1857,30.76,8.28,-3.05,1
1858,30.77,11.96,26.53,1
1859,30.78,13.81,7.79,1
1860,30.8,30.71,-24.43,1
1861,30.81,41.17,-33.55,1
1862,30.82,24.73,-4.27,1
1863,30.84,-0.19,34.12,1
1864,30.85,-12.03,52.24,1
1865,30.86,-11.08,64.99,1
1866,30.88,-8.95,70.43,1
1867,30.89,-11.94,60.17,1
1868,30.9,-11.37,55.75,1
1869,30.92,-3.64,56.14,1
1870,30.93,1.54,38.49,1
1871,30.94,0.96,25.44,1
1872,30.96,-2.97,42.43,1
1873,30.97,-6.81,59.26,1
1874,30.99,-9.33,61.72,1
1875,31.0,-15.32,59.97,1
1876,31.01,-19.22,37.01,1
1877,31.03,-12.88,3.1,1
1878,31.04,-3.59,17.28,1
1879,31.05,3.65,75.35,1
1880,31.07,8.1,76.4,1
1881,31.08,0.51,6.23,1
1882,31.09,-15.15,-22.46,1
1883,31.11,-14.71,15.59,1
1884,31.12,0.24,34.31,1
1885,31.13,-0.83,11.69,1
1886,31.14,-8.36,8.39,1
1887,31.16,5.56,43.15,1
1888,31.17,16.4,67.58,1
1889,31.18,4.94,59.86,1
1890,31.2,-4.25,41.46,1
1891,31.21,-6.76,28.8,1
1892,31.22,-10.85,30.32,1
1893,31.24,-5.29,50.31,1
1894,31.25,8.2,68.44,1
1895,31.26,17.57,58.71,1
1896,31.28,20.51,52.92,1
1897,31.29,14.37,81.0,1
1898,31.3,-5.31,77.2,1
1899,31.32,-26.35,13.85,1
1900,31.33,-21.02,-8.27,1
1901,31.34,7.35,32.59,1
1902,31.36,19.95,34.51,1
1903,31.37,-0.2,-5.28,1
1904,31.38,-27.18,-0.43,1
1905,31.4,-23.09,40.11,1
1906,31.41,4.22,46.71,1
1907,31.42,12.53,32.43,1
1908,31.44,7.85,41.32,1
1909,31.45,18.86,41.64,1
1910,31.46,25.25,1.1,1
1911,31.48,6.96,-26.2,1
1912,31.49,-8.0,7.35,1
1913,31.5,-1.64,45.24,1
1914,31.52,-1.14,34.42,1
1915,31.53,-13.89,27.24,1
1916,31.54,-5.14,54.52,1
1917,31.56,17.05,47.52,1
1918,31.57,7.43,-15.16,1
1919,31.58,-13.57,-36.11,1
1920,31.6,-5.99,21.33,1
1921,31.61,1.36,54.35,1
1922,31.63,-8.88,6.2,1
1923,31.64,-7.42,-54.51,1
1924,31.65,1.32,-66.05,1
1925,31.67,-4.34,-49.19,1
1926,31.68,-15.94,-30.35,1
1927,31.69,-15.1,15.03,1
1928,31.71,1.69,71.31,1
1929,31.72,11.58,61.79,1
1930,31.73,2.08,2.09,1
1931,31.75,3.16,-27.07,1
1932,31.76,21.01,-17.29,1
1933,31.77,19.21,11.35,1
1934,31.78,2.96,34.5,1
1935,31.8,6.24,10.59,1
1936,31.81,11.47,-43.88,1
1937,31.82,-8.23,-58.89,1
1938,31.84,-25.13,-15.92,1
1939,31.85,-11.9,22.28,1
1940,31.86,3.54,19.93,1
1941,31.88,-3.69,8.37,1
1942,31.89,-8.22,-0.51,1
1943,31.9,6.15,-12.87,1
1944,31.92,16.54,-23.51,1
1945,31.93,13.46,-33.88,1
1946,31.94,11.57,-25.59,1
1947,31.96,15.22,14.71,1
1948,31.97,23.61,29.44,1
1949,31.98,31.13,-20.87,1
1950,32.0,17.09,-63.04,1
1951,32.01,-12.73,-25.52,1
1952,32.03,-19.0,40.86,1
1953,32.04,-1.23,35.04,1
1954,32.05,-4.22,-39.79,1
1955,32.06,-33.14,-71.31,1
1956,32.08,-37.77,-31.19,1
1957,32.09,-3.85,-16.24,1
1958,32.11,14.5,-57.84,1
1959,32.12,-8.64,-80.57,1
1960,32.13,-22.24,-43.52,1
1961,32.15,3.89,-5.03,1
1962,32.16,18.09,1.29,0
1963,32.17,-7.77,16.12,0
1964,32.19,-23.7,25.86,0
1965,32.2,-10.06,-6.32,0
1966,32.21,0.83,-31.87,0
1967,32.22,3.41,-11.74,0
1968,32.24,6.38,7.11,0
1969,32.25,-1.38,-6.42,0
1970,32.27,-19.68,-14.52,0
1971,32.28,-23.26,-5.97,0
1972,32.29,-5.72,-18.7,0
1973,32.31,9.04,-46.64,0
1974,32.32,10.46,-46.82,0
1975,32.33,5.0,-32.67,0
1976,32.35,-5.14,-67.36,0
1977,32.36,-19.68,-160.22,0
1978,32.37,-34.24,-236.2,0
1979,32.39,-35.23,-236.37,0
1980,32.4,-20.25,-182.03,0
1981,32.41,-7.83,-119.51,0
1982,32.43,-5.55,-70.6,0
1983,32.44,-1.39,-34.39,0
1984,32.45,10.7,0.97,0
1985,32.47,20.34,40.99,0
1986,32.48,17.87,75.05,0
1987,32.49,10.69,89.95,0
1988,32.51,11.56,89.95,0
1989,32.52,18.57,90.47,0
1990,32.53,21.27,90.51,0
1991,32.54,17.79,78.49,0
1992,32.56,7.91,62.67,1
1993,32.57,-4.74,59.54,1
1994,32.59,-5.71,67.41,1
1995,32.6,3.8,73.65,1
1996,32.61,10.13,71.46,1
1997,32.63,15.12,66.45,1
1998,32.64,20.31,65.2,1
1999,32.65,17.12,60.97,1
2000,32.67,9.09,49.15,1
2001,32.68,6.1,44.4,1
2002,32.69,4.32,55.87,1
2003,32.71,-1.16,67.21,1
2004,32.72,-4.32,67.23,1
2005,32.73,-1.46,63.63,1
2006,32.75,4.58,55.16,1
2007,32.76,11.03,38.82,1
2008,32.77,15.58,29.28,1
2009,32.79,14.05,32.83,1
2010,32.8,6.73,34.77,1
2011,32.81,1.78,27.61,1
2012,32.83,1.42,19.85,1
2013,32.84,-0.81,18.08,1
2014,32.85,-4.0,16.82,1
2015,32.87,-3.71,12.63,1
2016,32.88,-3.48,12.52,1
2017,32.89,-5.07,16.34,1
2018,32.9,-3.17,14.14,1
2019,32.92,3.03,5.85,1
2020,32.93,5.5,0.17,1
2021,32.95,-4.62,2.43,1
2022,32.96,-17.79,8.63,1
2023,32.97,-13.49,6.75,1
2024,32.99,1.16,-3.51,1
2025,33.0,0.37,-8.13,1
2026,33.01,-9.41,-4.53,1
2027,33.03,-6.52,-6.12,1
2028,33.04,0.88,-17.15,1
2029,33.05,-3.0,-22.52,1
2030,33.06,-12.02,-16.23,1
2031,33.08,-11.73,-10.86,1
2032,33.09,1.22,-10.5,1
2033,33.11,14.27,-11.46,1
2034,33.12,16.28,-14.38,1
2035,33.13,7.47,-14.95,1
2036,33.15,-8.3,-10.82,1
2037,33.16,-18.28,-13.59,1
2038,33.17,-12.46,-25.47,1
2039,33.19,-2.93,-27.21,1
2040,33.2,-2.33,-15.71,1
2041,33.21,-3.82,-15.63,1
2042,33.22,0.69,-34.36,1
2043,33.24,7.74,-41.6,1
2044,33.25,10.19,-21.16,1
2045,33.27,5.08,-7.34,1
2046,33.28,-0.29,-21.39,1
2047,33.29,4.79,-32.42,1
2048,33.31,13.76,-21.24,1
2049,33.32,10.19,-7.96,1
2050,33.33,0.39,-10.42,1
2051,33.35,1.87,-22.5,1
2052,33.36,3.89,-26.75,1
2053,33.37,-8.73,-18.88,1
2054,33.38,-18.19,-14.65,1
2055,33.4,-7.45,-22.03,1
2056,33.41,2.25,-27.46,1
2057,33.43,-6.79,-23.7,1
2058,33.44,-13.63,-20.53,1
2059,33.45,-7.4,-22.15,1
2060,33.47,-4.09,-18.95,1
2061,33.48,-4.63,-11.38,1
2062,33.49,-1.76,-15.02,1
2063,33.51,0.42,-28.46,1
2064,33.52,1.91,-31.33,1
2065,33.53,4.54,-19.24,1
2066,33.54,3.14,-13.29,1
2067,33.56,-1.65,-23.91,1
2068,33.57,-5.36,-32.39,1
2069,33.59,-8.23,-26.0,1
2070,33.6,-5.53,-11.71,1
2071,33.61,3.92,-1.06,1
2072,33.63,6.47,-5.42,1
2073,33.64,-3.79,-18.4,1
2074,33.65,-11.29,-22.74,1
2075,33.67,-4.97,-18.54,1
2076,33.68,2.75,-14.36,1
2077,33.69,-0.45,-10.85,1
2078,33.71,-1.68,-3.78,1
2079,33.72,9.0,6.31,1
2080,33.73,14.28,5.24,1
2081,33.75,6.93,-10.88,1
2082,33.76,1.74,-19.09,1
2083,33.77,1.76,-9.9,1
2084,33.79,3.91,1.19,1
2085,33.8,8.92,4.91,1
2086,33.81,7.38,-0.21,1
2087,33.83,-3.93,-6.22,1
2088,33.84,-10.29,1.09,1
2089,33.85,-2.6,9.4,1
2090,33.87,7.73,-1.57,1
2091,33.88,3.67,-12.51,1
2092,33.89,-9.83,-1.63,1
2093,33.9,-9.59,11.63,1
2094,33.92,5.38,7.9,1
2095,33.93,8.26,0.25,1
2096,33.95,-4.56,-0.47,1
2097,33.96,-5.64,-0.93,1
2098,33.97,9.18,0.18,1
2099,33.99,14.89,6.23,1
2100,34.0,5.66,8.95,1
2101,34.01,-0.49,5.39,1
2102,34.03,3.8,4.3,1
2103,34.04,4.07,10.14,1
2104,34.05,-7.23,17.69,1
2105,34.06,-14.17,20.34,1
2106,34.08,-10.0,17.36,1
2107,34.09,-9.38,13.92,1
2108,34.11,-11.57,11.6,1
2109,34.12,-6.61,10.29,1
2110,34.13,-6.11,11.82,1
2111,34.15,-11.01,9.05,1
2112,34.16,-3.03,-3.62,0
2113,34.17,11.24,-30.45,0
2114,34.19,14.12,-88.6,0
2115,34.2,12.2,-163.25,0
2116,34.21,18.94,-188.78,0
2117,34.23,27.47,-139.02,0
2118,34.24,26.19,-73.63,0
2119,34.25,19.35,-43.08,0
2120,34.27,14.58,-33.27,0
2121,34.28,12.29,-29.09,0
2122,34.29,11.66,-35.04,0
2123,34.31,11.44,-38.16,0
2124,34.32,5.33,-26.66,0
2125,34.33,-8.69,-10.52,0
2126,34.35,-19.43,5.92,0
2127,34.36,-17.74,26.67,0
2128,34.37,-12.69,45.89,0
2129,34.38,-16.28,58.58,0
2130,34.4,-22.14,68.68,0
2131,34.41,-17.56,80.22,0
2132,34.43,-6.4,93.53,0
2133,34.44,-0.95,105.99,0
2134,34.45,-8.03,113.34,0
2135,34.47,-23.23,112.97,0
2136,34.48,-28.68,110.77,0
2137,34.49,-17.03,116.09,0
2138,34.51,-9.71,129.06,0
2139,34.52,-15.03,145.02,0
2140,34.53,-13.67,152.63,0
2141,34.54,-7.51,142.39,0
2142,34.56,-7.21,127.28,1
2143,34.57,-3.1,119.62,1
2144,34.59,5.08,110.47,1
2145,34.6,3.81,97.43,1
2146,34.61,-6.17,87.99,1
2147,34.63,-10.09,80.24,1
2148,34.64,-5.53,69.64,1
2149,34.65,-4.41,54.15,1
2150,34.67,-5.44,36.39,1
2151,34.68,0.82,27.72,1
2152,34.69,9.42,28.19,1
2153,34.71,10.36,24.57,1
2154,34.72,4.79,16.93,1
2155,34.73,2.1,11.83,1
2156,34.75,6.61,4.54,1
2157,34.76,8.97,-3.84,1
2158,34.77,6.28,-2.42,1
2159,34.79,7.68,2.14,1
2160,34.8,7.66,-6.97,1
2161,34.81,-2.63,-19.67,1
2162,34.83,-7.72,-21.92,1
2163,34.84,4.27,-24.21,1
2164,34.85,15.75,-29.47,1
2165,34.87,12.92,-33.03,1
2166,34.88,10.59,-39.79,1
2167,34.89,18.22,-39.91,1
2168,34.91,19.08,-27.07,1
2169,34.92,5.45,-25.15,1
2170,34.93,-4.4,-45.46,1
2171,34.95,-2.91,-63.86,1
2172,34.96,-2.25,-60.64,1
2173,34.97,-3.81,-48.09,1
2174,34.99,0.71,-44.96,1
2175,35.0,6.93,-46.54,1
2176,35.01,3.14,-42.32,1
2177,35.03,-9.89,-39.5,1
2178,35.04,-18.25,-46.24,1
2179,35.05,-15.01,-50.38,1
2180,35.06,-3.49,-45.01,1
2181,35.08,9.67,-44.56,1
2182,35.09,13.98,-49.18,1
2183,35.11,11.32,-46.59,1
2184,35.12,12.47,-44.57,1
2185,35.13,13.06,-50.19,1
2186,35.15,4.71,-50.24,1
2187,35.16,-6.46,-41.98,1
2188,35.17,-10.71,-41.13,1
2189,35.19,-6.97,-49.49,1
2190,35.2,-0.52,-51.04,1
2191,35.21,3.04,-40.69,1
2192,35.22,6.81,-29.62,1
2193,35.24,14.76,-30.04,1
2194,35.25,16.56,-38.66,1
2195,35.27,8.63,-38.43,1
2196,35.28,7.67,-30.28,1
2197,35.29,16.32,-31.03,1
2198,35.31,17.74,-34.46,1
2199,35.32,9.9,-27.31,1
2200,35.33,3.22,-21.63,1
2201,35.35,-0.26,-29.64,1
2202,35.36,-1.7,-39.37,1
2203,35.37,0.66,-36.25,1
2204,35.38,4.79,-26.4,1
2205,35.4,5.1,-24.72,1
2206,35.41,-2.83,-27.24,1
2207,35.43,-12.38,-21.65,1
2208,35.44,-8.31,-12.54,1
2209,35.45,6.33,-11.59,1
2210,35.47,11.65,-18.87,1
2211,35.48,5.31,-21.64,1
2212,35.49,-2.06,-10.94,1
2213,35.51,-8.08,2.31,1
2214,35.52,-10.18,3.34,1
2215,35.53,-7.73,-2.09,1
2216,35.55,-6.84,-1.32,1
2217,35.56,-3.5,3.46,1
2218,35.57,8.59,4.51,1
2219,35.59,15.89,2.1,1
2220,35.6,3.68,0.43,1
2221,35.61,-15.68,-0.28,1
2222,35.63,-19.52,-1.46,1
2223,35.64,-6.9,-0.59,1
2224,35.65,6.79,7.07,1
2225,35.67,12.89,20.83,1
2226,35.68,11.46,28.39,1
2227,35.69,4.88,20.24,1
2228,35.71,-1.08,6.99,1
2229,35.72,-1.41,4.08,1
2230,35.73,-1.86,10.74,1
2231,35.75,-5.41,16.01,1
2232,35.76,-4.1,15.89,1
2233,35.77,-0.66,11.59,1
2234,35.79,-4.26,3.54,1
2235,35.8,-9.88,0.97,1
2236,35.81,-13.27,10.53,1
2237,35.83,-17.0,20.34,1
2238,35.84,-14.96,21.16,1
2239,35.85,-5.15,15.83,1
2240,35.87,1.21,7.37,1
2241,35.88,2.48,6.07,1
2242,35.89,7.29,19.34,1
2243,35.9,8.56,29.92,1
2244,35.92,-3.46,24.93,1
2245,35.93,-11.37,19.27,1
2246,35.95,-1.35,19.78,1
2247,35.96,5.05,15.65,1
2248,35.97,-6.44,12.18,1
2249,35.99,-14.76,20.23,1
2250,36.0,-6.05,25.5,1
2251,36.01,2.56,16.03,1
2252,36.03,-0.22,9.45,1
2253,36.04,-2.73,18.19,1
2254,36.05,0.22,25.71,1
2255,36.06,-0.01,17.71,1
2256,36.08,-4.49,6.05,1
2257,36.09,-6.76,7.36,1
2258,36.11,-2.33,15.77,1
2259,36.12,3.92,17.4,1
2260,36.13,1.65,17.7,1
2261,36.15,-3.12,25.52,1
2262,36.16,6.52,30.49,2
2263,36.17,19.16,31.35,2
2264,36.19,6.35,39.73,2
2265,36.2,-20.08,40.34,2
2266,36.21,-19.32,25.26,2
2267,36.23,4.83,39.67,2
2268,36.24,11.38,115.1,2
2269,36.25,-2.04,211.23,2
2270,36.27,-4.13,274.21,2
2271,36.28,9.81,291.8,2
2272,36.29,20.31,268.19,2
2273,36.31,14.95,208.39,2
2274,36.32,-4.14,136.51,2
2275,36.33,-16.99,70.59,2
2276,36.35,-11.85,4.78,2
2277,36.36,-10.6,-58.38,2
2278,36.37,-22.17,-111.23,2
2279,36.38,-22.98,-163.45,2
2280,36.4,-11.98,-211.13,2
2281,36.41,-9.98,-225.23,2
2282,36.43,-13.09,-202.91,2
2283,36.44,-10.29,-178.51,2
2284,36.45,-8.32,-168.52,2
2285,36.47,-7.45,-158.22,2
2286,36.48,-1.5,-143.63,2
2287,36.49,2.61,-134.32,2
2288,36.51,2.34,-128.63,2
2289,36.52,7.89,-119.88,2
2290,36.53,16.06,-105.07,2
2291,36.54,13.65,-89.97,2
2292,36.56,4.47,-82.92,1
2293,36.57,-1.18,-71.7,1
2294,36.59,-4.75,-49.48,1
2295,36.6,-4.65,-44.72,1
2296,36.61,4.65,-63.19,1
2297,36.63,12.6,-66.86,1
2298,36.64,7.34,-46.99,1
2299,36.65,-0.58,-35.14,1
2300,36.67,1.52,-36.94,1
2301,36.68,7.62,-32.34,1
2302,36.69,8.08,-20.13,1
2303,36.71,7.6,-10.83,1
2304,36.72,13.98,-8.45,1
2305,36.73,17.16,-11.22,1
2306,36.75,9.06,-11.58,1
2307,36.76,2.72,-2.99,1
2308,36.77,6.88,11.02,1
2309,36.79,9.63,22.49,1
2310,36.8,1.8,25.04,1
2311,36.81,-5.66,19.65,1
2312,36.83,-2.39,17.67,1
2313,36.84,1.98,22.73,1
2314,36.85,-0.67,24.06,1
2315,36.87,-1.39,24.12,1
2316,36.88,6.22,34.94,1
2317,36.89,12.41,44.35,1
2318,36.9,6.44,36.41,1
2319,36.92,-5.75,26.44,1
2320,36.93,-10.91,32.76,1
2321,36.95,-4.46,47.68,1
2322,36.96,8.56,52.83,1
2323,36.97,14.35,46.2,1
2324,36.99,4.72,44.17,1
2325,37.0,-8.1,47.96,1
2326,37.01,-9.0,40.33,1
2327,37.03,0.63,28.96,1
2328,37.04,6.82,34.58,1
2329,37.05,0.46,43.12,1
2330,37.06,-8.02,39.26,1
2331,37.08,-5.04,40.95,1
2332,37.09,5.52,51.95,1
2333,37.11,10.11,54.37,1
2334,37.12,3.24,48.5,1
2335,37.13,-7.05,43.6,1
2336,37.15,-11.71,38.23,1
2337,37.16,-10.35,29.69,1
2338,37.17,-3.77,24.14,1
2339,37.19,5.55,29.09,1
2340,37.2,13.05,42.12,1
2341,37.21,16.7,49.33,1
2342,37.22,14.52,38.92,1
2343,37.24,6.19,20.45,1
2344,37.25,-2.36,15.33,1
2345,37.27,0.23,24.17,1
2346,37.28,10.56,27.83,1
2347,37.29,7.67,18.52,1
2348,37.31,-7.76,9.65,1
2349,37.32,-10.77,11.87,1
2350,37.33,1.26,15.01,1
2351,37.35,8.4,12.9,1
2352,37.36,4.36,18.46,1
2353,37.37,-0.03,28.65,1
2354,37.38,0.59,24.24,1
2355,37.4,-1.93,11.23,1
2356,37.41,-11.81,8.57,1
2357,37.43,-16.37,10.88,1
2358,37.44,-5.79,8.13,1
2359,37.45,5.32,10.49,1
2360,37.47,3.21,18.97,1
2361,37.48,-1.32,16.19,1
2362,37.49,-1.61,2.44,1
2363,37.51,-5.08,-1.87,1
2364,37.52,-11.55,1.09,1
2365,37.53,-16.87,-5.55,1
2366,37.54,-18.19,-12.44,1
2367,37.56,-9.9,-4.6,1
2368,37.57,2.22,6.97,1
2369,37.59,6.05,10.0,1
2370,37.6,4.63,9.25,1
2371,37.61,5.65,4.45,1
2372,37.63,3.88,-9.74,1
2373,37.64,-4.25,-20.73,1
2374,37.65,-6.93,-16.35,1
2375,37.67,-3.93,-8.07,1
2376,37.68,-10.07,-8.47,1
2377,37.69,-17.95,-11.34,1
2378,37.71,-10.74,-6.32,1
2379,37.72,1.36,-0.64,1
2380,37.73,4.09,-10.06,1
2381,37.75,2.04,-25.49,1
2382,37.76,1.61,-23.72,1
2383,37.77,1.91,-12.64,1
2384,37.79,2.26,-14.2,1
2385,37.8,-0.09,-18.96,1
2386,37.81,-3.12,-13.64,1
2387,37.83,4.2,-14.21,1
2388,37.84,15.94,-24.68,1
2389,37.85,10.55,-20.9,1
2390,37.87,-7.48,-5.83,1
2391,37.88,-13.29,-7.46,1
2392,37.89,-3.55,-20.65,1
2393,37.9,4.62,-23.28,1
2394,37.92,2.12,-21.97,1
2395,37.93,-3.5,-25.42,1
2396,37.95,0.72,-21.84,1
2397,37.96,9.5,-13.33,1
2398,37.97,1.9,-15.87,1
2399,37.99,-14.98,-20.56,1
2400,38.0,-11.15,-13.5,1
2401,38.01,9.98,-9.86,1
2402,38.03,14.86,-16.5,1
2403,38.04,-3.63,-14.84,1
2404,38.05,-14.67,-4.27,1
2405,38.06,-0.65,-2.52,1
2406,38.08,15.03,-9.81,1
2407,38.09,8.7,-14.87,1
2408,38.11,-6.89,-14.87,1
2409,38.12,-8.11,-17.09,1
2410,38.13,0.56,-32.87,1
2411,38.15,0.9,-62.68,1
2412,38.16,-5.3,-74.02,2
2413,38.17,-5.99,-49.57,2
2414,38.19,6.55,-27.66,2
2415,38.2,32.31,30.87,2
2416,38.21,52.5,169.65,2
2417,38.22,42.86,224.48,2
2418,38.24,9.82,117.44,2
2419,38.25,-4.86,27.05,2
2420,38.27,11.21,-3.08,2
2421,38.28,6.95,-46.57,2
2422,38.29,-23.97,-10.83,2
2423,38.31,-21.47,131.8,2
2424,38.32,10.41,167.73,2
2425,38.33,21.31,18.27,2
2426,38.35,13.6,-48.33,2
2427,38.36,6.85,83.54,2
2428,38.37,-4.67,122.88,2
2429,38.38,-18.87,-29.7,2
2430,38.4,-29.41,-102.8,2
2431,38.41,-37.13,-26.42,2
2432,38.43,-30.52,4.17,2
2433,38.44,-16.29,-71.34,2
2434,38.45,-19.17,-144.01,2
2435,38.47,-29.69,-122.26,2
2436,38.48,-30.96,-41.59,2
2437,38.49,-29.79,-22.23,2
2438,38.51,-18.01,-71.89,2
2439,38.52,16.41,-64.12,2
2440,38.53,31.06,5.27,2
2441,38.54,-2.27,-8.97,2
2442,38.56,-22.22,-95.7,1
2443,38.57,5.07,-96.98,1
2444,38.59,22.11,-35.89,1
2445,38.6,2.42,-42.52,1
2446,38.61,-8.19,-73.28,1
2447,38.63,7.48,-48.13,1
2448,38.64,11.93,-46.06,1
2449,38.65,-6.96,-107.58,1
2450,38.67,-14.36,-108.77,1
2451,38.68,5.19,-19.14,1
2452,38.69,19.75,19.97,1
2453,38.71,14.08,-18.01,1
2454,38.72,11.81,-21.04,1
2455,38.73,11.65,2.03,1
2456,38.75,-3.3,-23.2,1
2457,38.76,-8.17,-41.5,1
2458,38.77,12.69,5.15,1
2459,38.79,16.52,49.43,1
2460,38.8,-9.4,39.1,1
2461,38.81,-14.66,16.55,1
2462,38.83,8.39,15.6,1
2463,38.84,15.12,6.16,1
2464,38.85,1.03,-30.66,1
2465,38.87,-0.85,-58.27,1
2466,38.88,10.64,-45.15,1
2467,38.89,4.54,-6.23,1
2468,38.9,-20.22,12.04,1
2469,38.92,-26.69,-6.71,1
2470,38.93,-4.35,-14.4,1
2471,38.95,16.38,14.86,1
2472,38.96,16.0,39.47,1
2473,38.97,6.7,23.45,1
2474,38.99,-1.98,-9.09,1
2475,39.0,-14.83,-16.28,1
2476,39.01,-22.92,3.41,1
2477,39.03,-13.69,19.37,1
2478,39.04,-0.03,-15.85,1
2479,39.05,0.56,-97.59,1
2480,39.06,-2.59,-108.13,1
2481,39.08,7.79,-13.21,1
2482,39.09,19.63,36.38,1
2483,39.11,13.85,-6.05,1
2484,39.12,4.85,-21.32,1
2485,39.13,12.17,14.44,1
2486,39.15,26.91,27.92,1
2487,39.16,27.46,14.73,1
2488,39.17,12.7,24.35,1
2489,39.19,6.71,39.57,1
2490,39.2,7.49,19.13,1
2491,39.21,-7.99,16.12,1
2492,39.22,-20.79,58.99,1
2493,39.24,-8.51,70.48,1
2494,39.25,5.91,36.71,1
2495,39.27,1.91,11.38,1
2496,39.28,-6.19,0.43,1
2497,39.29,2.16,2.48,1
2498,39.31,17.09,22.01,1
2499,39.32,14.91,49.57,1
2500,39.33,-2.58,67.17,1
2501,39.35,-16.02,56.13,1
2502,39.36,-7.25,43.78,1
2503,39.37,15.15,59.67,1
2504,39.38,14.4,84.62,1
2505,39.4,-11.08,103.16,1
2506,39.41,-26.94,104.29,1
2507,39.43,-22.58,78.27,1
2508,39.44,-7.07,35.34,1
2509,39.45,6.76,-11.82,1
2510,39.47,4.81,-22.8,1
2511,39.48,-6.83,25.78,1
2512,39.49,-13.3,61.54,1
2513,39.51,-13.32,35.14,1
2514,39.52,-12.23,15.04,1
2515,39.53,-9.96,47.5,1
2516,39.54,-1.81,56.51,1
2517,39.56,5.01,-4.92,1
2518,39.57,6.73,-31.89,1
2519,39.59,16.01,40.21,1
2520,39.6,22.41,90.71,1
2521,39.61,16.15,57.13,1
2522,39.63,18.83,29.52,1
2523,39.64,23.51,22.19,1
2524,39.65,9.58,13.12,1
2525,39.67,-2.66,32.74,1
2526,39.68,5.57,30.95,1
2527,39.69,22.04,-37.15,1
2528,39.71,20.71,-87.85,1
2529,39.72,-9.14,-47.28,1
2530,39.73,-30.87,45.38,1
2531,39.75,-14.51,78.25,1
2532,39.76,5.41,34.09,1
2533,39.77,-2.85,24.92,1
2534,39.79,-17.48,49.42,1
2535,39.8,-15.82,15.9,1
2536,39.81,-4.47,-27.4,1
2537,39.83,-1.36,3.61,1
2538,39.84,-8.81,38.97,1
2539,39.85,-1.96,-8.5,1
2540,39.87,23.63,-61.35,1
2541,39.88,32.54,-21.38,1
2542,39.89,15.6,47.16,1
2543,39.9,-2.17,38.82,1
2544,39.92,-18.7,-23.11,1
2545,39.93,-32.07,-39.19,1
2546,39.95,-20.28,-1.72,1
2547,39.96,-5.44,5.99,1
2548,39.97,-12.61,-29.86,1
2549,39.99,-5.73,-69.19,1
2550,40.0,17.82,-93.25,1
2551,40.01,18.35,-69.1,1
2552,40.03,5.2,-13.01,1
2553,40.04,0.81,-9.45,1
2554,40.05,-7.5,-64.62,1
2555,40.065,-21.63,-75.04,1
2556,40.08,-17.42,8.83,1
2557,40.09,0.44,70.58,1
2558,40.11,3.31,7.57,1
2559,40.12,1.15,-74.4,1
2560,40.13,4.94,-47.29,1
2561,40.15,-2.87,24.07,1
2562,40.16,-8.91,32.14,0
2563,40.17,5.01,0.59,0
2564,40.19,9.83,-29.99,0
2565,40.2,-11.32,-83.95,0
2566,40.21,-28.72,-132.18,0
2567,40.22,-25.68,-119.76,0
2568,40.24,-25.79,-99.38,0
2569,40.25,-35.91,-143.83,0
2570,40.27,-27.28,-216.27,0
2571,40.28,-1.03,-231.22,0
2572,40.29,10.11,-170.01,0
2573,40.31,7.23,-89.18,0
2574,40.32,16.15,-36.96,0
2575,40.33,32.02,-6.53,0
2576,40.35,27.34,23.92,0
2577,40.36,3.57,54.52,0
2578,40.37,-7.5,77.65,0
2579,40.38,2.46,93.12,0
2580,40.4,7.17,100.26,0
2581,40.41,-1.21,94.73,0
2582,40.43,-1.57,80.46,0
2583,40.44,9.26,72.1,0
2584,40.45,12.08,75.66,0
2585,40.47,2.18,75.96,0
2586,40.48,-2.8,66.91,0
2587,40.49,4.62,63.12,0
2588,40.51,6.35,64.96,0
2589,40.52,-0.18,60.71,0
2590,40.53,2.86,54.17,0
2591,40.54,7.5,52.1,0
2592,40.56,-2.96,49.53,1
2593,40.57,-15.43,41.17,1
2594,40.59,-14.25,34.72,1
2595,40.6,-5.14,42.76,1
2596,40.61,2.33,55.43,1
2597,40.63,10.18,49.64,1
2598,40.64,22.19,31.59,1
2599,40.65,31.22,25.73,1
2600,40.67,28.87,31.2,1
2601,40.68,13.44,28.83,1
2602,40.69,-7.2,19.31,1
2603,40.71,-16.04,19.34,1
2604,40.72,-8.7,27.32,1
2605,40.73,-0.2,27.47,1
2606,40.75,-0.89,15.28,1
2607,40.76,-9.03,0.2,1
2608,40.77,-14.94,-2.52,1
2609,40.79,-9.45,5.82,1
2610,40.8,1.01,7.64,1
2611,40.81,4.72,3.64,1
2612,40.83,4.95,4.52,1
2613,40.84,7.67,3.62,1
2614,40.85,9.3,-2.53,1
2615,40.87,5.04,-5.9,1
2616,40.88,-5.12,-10.83,1
2617,40.89,-12.97,-21.52,1
2618,40.9,-9.42,-22.03,1
2619,40.92,1.62,-9.58,1
2620,40.93,5.48,-6.2,1
2621,40.95,-0.78,-18.68,1
2622,40.96,-0.61,-29.07,1
2623,40.97,8.25,-23.76,1
2624,40.99,6.95,-15.29,1
2625,41.0,-3.08,-24.45,1
2626,41.01,-3.54,-39.78,1
2627,41.03,7.15,-33.78,1
2628,41.04,12.4,-15.46,1
2629,41.05,0.87,-5.15,1
2630,41.06,-9.74,0.76,1
2631,41.08,0.65,0.68,1
2632,41.09,8.81,-11.37,1
2633,41.11,-7.2,-25.66,1
2634,41.12,-18.93,-38.14,1
2635,41.13,-5.33,-46.16,1
2636,41.15,3.81,-34.67,1
2637,41.16,-9.28,-12.45,1
2638,41.17,-13.64,-9.44,1
2639,41.19,2.59,-22.75,1
2640,41.2,10.73,-23.81,1
2641,41.21,4.82,-12.45,1
2642,41.22,-0.67,-11.33,1
2643,41.24,-1.05,-19.51,1
2644,41.25,7.24,-20.12,1
2645,41.27,15.92,-12.5,1
2646,41.28,11.24,-5.31,1
2647,41.29,0.87,-5.67,1
2648,41.31,-4.52,-15.77,1
2649,41.32,-4.34,-22.99,1
2650,41.33,1.32,-20.0,1
2651,41.35,1.8,-19.23,1
2652,41.36,-8.27,-24.19,1
2653,41.37,-11.33,-22.1,1
2654,41.38,-5.68,-11.26,1
2655,41.4,-5.57,-4.6,1
2656,41.41,-3.52,-6.95,1
2657,41.43,4.04,-10.31,1
2658,41.44,2.96,-10.46,1
2659,41.45,-2.85,-10.42,1
2660,41.47,1.28,-11.04,1
2661,41.48,11.06,-9.28,1
2662,41.49,14.64,-5.51,1
2663,41.51,12.03,-5.91,1
2664,41.52,11.63,-13.05,1
2665,41.53,12.79,-22.41,1
2666,41.54,4.42,-23.65,1
2667,41.56,-12.27,-7.05,1
2668,41.57,-20.39,12.24,1
2669,41.59,-14.85,4.37,1
2670,41.6,-9.7,-19.07,1
2671,41.61,-7.76,-20.2,1
2672,41.63,1.76,-3.5,1
2673,41.64,12.58,0.46,1
2674,41.65,9.14,-10.49,1
2675,41.67,-5.33,-18.29,1
2676,41.68,-10.76,-11.31,1
2677,41.69,-0.28,6.15,1
2678,41.71,9.18,16.34,1
2679,41.72,5.72,13.98,1
2680,41.73,0.2,12.66,1
2681,41.75,-1.28,12.67,1
2682,41.76,-7.78,2.94,1
2683,41.77,-13.37,-6.94,1
2684,41.79,-3.83,-5.92,1
2685,41.8,13.17,-0.72,1
2686,41.81,21.16,5.33,1
2687,41.83,11.99,8.72,1
2688,41.84,-9.17,0.37,1
2689,41.85,-22.69,-11.94,1
2690,41.87,-20.14,-10.98,1
2691,41.88,-10.34,3.07,1
2692,41.89,6.1,13.86,1
2693,41.9,23.16,12.04,1
2694,41.92,16.85,8.72,1
2695,41.93,-7.71,14.26,1
2696,41.95,-15.6,16.27,1
2697,41.96,-9.5,8.35,1
2698,41.97,-16.16,7.84,1
2699,41.99,-25.91,18.27,1
2700,42.0,-13.71,21.8,1
2701,42.01,13.38,16.51,1
2702,42.03,27.75,11.7,1
2703,42.04,21.0,3.03,1
2704,42.05,11.92,-5.89,1
2705,42.06,10.79,-1.22,1
2706,42.08,3.61,7.85,1
2707,42.09,-8.54,7.18,1
2708,42.11,-7.87,6.45,1
2709,42.12,0.04,12.83,1
2710,42.13,-0.0,15.51,1
2711,42.15,-6.67,6.77,1
2712,42.16,-9.0,-0.16,0
2713,42.17,-3.06,8.22,0
2714,42.19,1.68,10.06,0
2715,42.2,-1.01,-21.65,0
2716,42.21,-7.62,-66.84,0
2717,42.22,-11.17,-93.0,0
2718,42.24,-0.84,-105.51,0
2719,42.25,17.83,-113.32,0
2720,42.27,21.81,-105.31,0
2721,42.28,20.0,-94.94,0
2722,42.29,32.39,-103.29,0
2723,42.31,36.04,-110.22,0
2724,42.32,16.33,-95.43,0
2725,42.33,-3.66,-73.98,0
2726,42.35,-13.46,-56.52,0
2727,42.36,-16.81,-35.63,0
2728,42.37,-8.0,-7.87,0
2729,42.38,6.56,21.57,0
2730,42.4,5.47,45.64,0
2731,42.41,-5.6,62.87,0
2732,42.43,-4.25,76.56,0
2733,42.44,2.0,91.36,0
2734,42.45,-2.67,107.11,0
2735,42.47,-12.81,115.03,0
2736,42.48,-21.55,112.6,0
2737,42.49,-22.93,112.69,0
2738,42.51,-19.45,123.72,0
2739,42.52,-24.91,135.6,0
2740,42.53,-28.07,137.57,0
2741,42.54,-13.39,132.41,0
2742,42.56,1.24,124.59,1
2743,42.57,5.13,119.77,1
2744,42.59,7.74,124.62,1
2745,42.6,4.0,129.73,1
2746,42.61,-8.44,120.84,1
2747,42.63,-11.58,103.98,1
2748,42.64,-2.54,96.27,1
2749,42.65,1.67,97.13,1
2750,42.66,-1.32,88.07,1
2751,42.68,-5.28,68.77,1
2752,42.69,-10.29,57.8,1
2753,42.71,-11.51,52.8,1
2754,42.72,-5.11,39.05,1
2755,42.73,2.23,24.95,1
2756,42.75,0.78,25.02,1
2757,42.76,-6.88,29.12,1
2758,42.77,-2.66,17.19,1
2759,42.79,9.93,-5.91,1
2760,42.8,6.49,-16.1,1
2761,42.81,-3.42,-14.23,1
2762,42.83,2.17,-15.83,1
2763,42.84,8.65,-15.72,1
2764,42.85,4.03,-12.25,1
2765,42.87,5.4,-16.45,1
2766,42.88,13.21,-25.87,1
2767,42.89,9.83,-31.67,1
2768,42.9,-0.78,-33.32,1
2769,42.92,-1.97,-34.38,1
2770,42.93,5.6,-37.28,1
2771,42.95,11.23,-42.0,1
2772,42.96,12.31,-44.49,1
2773,42.97,8.23,-43.58,1
2774,42.99,-1.58,-46.24,1
2775,43.0,-6.96,-53.76,1
2776,43.01,-0.92,-56.89,1
2777,43.03,4.82,-53.09,1
2778,43.04,1.06,-52.06,1
2779,43.05,-3.09,-57.87,1
2780,43.06,2.02,-60.52,1
2781,43.08,13.07,-54.72,1
2782,43.09,20.07,-51.72,1
2783,43.11,14.87,-58.97,1
2784,43.12,0.13,-65.07,1
2785,43.13,-9.32,-61.56,1
2786,43.15,-3.34,-56.85,1
2787,43.16,8.84,-57.21,1
2788,43.17,11.44,-62.43,1
2789,43.19,4.91,-67.52,1
2790,43.2,0.95,-59.28,1
2791,43.21,0.98,-42.92,1
2792,43.22,-3.49,-39.34,1
2793,43.24,-10.63,-43.58,1
2794,43.25,-5.66,-40.86,1
2795,43.27,9.55,-37.79,1
2796,43.28,11.77,-39.92,1
2797,43.29,1.53,-38.27,1
2798,43.3,1.04,-31.41,1
2799,43.32,1.62,-27.73,1
2800,43.33,-10.63,-28.56,1
2801,43.35,-12.3,-28.15,1
2802,43.36,4.48,-23.29,1
2803,43.37,10.9,-18.92,1
2804,43.38,-0.31,-19.63,1
2805,43.4,-10.18,-23.1,1
2806,43.41,-14.38,-28.85,1
2807,43.43,-22.2,-34.36,1
2808,43.44,-27.38,-30.13,1
2809,43.45,-13.6,-17.76,1
2810,43.47,4.51,-12.48,1
2811,43.48,-1.27,-15.72,1
2812,43.49,-12.83,-16.12,1
2813,43.51,1.3,-13.23,1
2814,43.52,19.65,-13.12,1
2815,43.53,16.87,-14.23,1
2816,43.54,7.7,-10.62,1
2817,43.56,5.68,-3.47,1
2818,43.57,10.5,-0.33,1
2819,43.59,15.36,-2.52,1
2820,43.6,8.18,-5.99,1
2821,43.61,-3.74,-6.77,1
2822,43.63,-3.97,-1.24,1
2823,43.64,-1.12,8.38,1
2824,43.65,-7.36,13.47,1
2825,43.67,-10.65,8.81,1
2826,43.68,0.46,1.43,1
2827,43.69,13.24,1.15,1
2828,43.71,11.56,4.34,1
2829,43.72,-1.14,5.35,1
2830,43.73,-9.14,5.97,1
2831,43.75,-5.19,9.35,1
2832,43.76,3.8,17.14,1
2833,43.77,9.26,23.41,1
2834,43.79,9.97,20.13,1
2835,43.8,7.68,12.99,1
2836,43.81,2.19,11.22,1
2837,43.83,-1.82,10.31,1
2838,43.84,4.52,6.59,1
2839,43.85,16.9,9.22,1
2840,43.87,20.44,19.42,1
2841,43.88,12.39,23.61,1
2842,43.89,2.44,20.66,1
2843,43.9,-4.98,21.42,1
2844,43.92,-11.64,23.1,1
2845,43.93,-15.11,22.67,1
2846,43.94,-11.78,23.67,1
2847,43.96,-2.73,19.8,1
2848,43.97,5.09,13.52,1
2849,43.99,6.12,18.85,1
2850,44.0,2.8,28.42,1
2851,44.01,-2.05,24.21,1
2852,44.03,-5.37,14.12,1
2853,44.04,-3.15,16.4,1
2854,44.05,-0.05,21.81,1
2855,44.06,-4.54,12.51,1
2856,44.08,-10.26,2.6,1
2857,44.09,-1.57,12.92,1
2858,44.11,13.44,26.16,1
2859,44.12,8.04,23.07,1
2860,44.13,-12.24,23.41,1
2861,44.15,-14.38,34.64,1
2862,44.16,2.45,32.65,2
2863,44.17,7.91,22.1,2
2864,44.19,-5.34,44.92,2
2865,44.2,-11.14,127.04,2
2866,44.21,1.82,236.47,2
2867,44.22,3.97,302.27,2
2868,44.24,-20.14,295.95,2
2869,44.25,-36.92,252.41,2
2870,44.27,-25.05,203.29,2
2871,44.28,-10.47,147.82,2
2872,44.29,-12.19,81.39,2
2873,44.31,-14.47,10.69,2
2874,44.32,-2.84,-50.32,2
2875,44.33,11.7,-92.68,2
2876,44.35,14.45,-124.06,2
2877,44.36,13.34,-159.28,2
2878,44.37,18.68,-195.15,2
2879,44.38,19.67,-210.14,2
2880,44.4,10.78,-195.62,2
2881,44.41,5.33,-170.85,2
2882,44.43,3.89,-151.58,2
2883,44.44,-2.02,-133.42,2
2884,44.45,-3.87,-117.36,2
2885,44.47,3.53,-113.15,2
2886,44.48,6.73,-115.47,2
2887,44.49,-1.18,-110.85,2
2888,44.51,-9.28,-98.22,2
2889,44.52,-7.03,-85.18,2
2890,44.53,0.23,-78.63,2
2891,44.54,2.61,-78.62,2
2892,44.56,3.67,-76.57,1
2893,44.57,6.47,-66.39,1
2894,44.58,0.92,-51.62,1
2895,44.6,-11.37,-40.49,1
2896,44.61,-9.73,-36.23,1
2897,44.63,6.28,-31.72,1
2898,44.64,14.64,-20.26,1
2899,44.65,10.71,-6.62,1
2900,44.67,3.85,-2.98,1
2901,44.68,-7.27,-8.64,1
2902,44.69,-23.19,-8.76,1
2903,44.71,-33.03,-0.93,1
2904,44.72,-26.31,2.76,1
2905,44.73,-4.48,1.9,1
2906,44.75,13.2,7.43,1
2907,44.76,11.87,19.34,1
2908,44.77,2.62,26.58,1
2909,44.79,-0.07,27.66,1
2910,44.8,4.64,30.98,1
2911,44.81,7.89,35.27,1
2912,44.83,4.2,34.81,1
2913,44.84,2.19,33.32,1
2914,44.85,6.67,34.61,1
2915,44.87,9.0,37.61,1
2916,44.88,8.75,42.57,1
2917,44.89,11.7,47.69,1
2918,44.9,10.11,45.53,1
2919,44.92,0.18,38.77,1
2920,44.93,-5.08,40.77,1
2921,44.95,0.68,51.51,1
2922,44.96,10.57,55.62,1
2923,44.97,19.7,47.72,1
2924,44.99,19.77,38.1,1
2925,45.0,4.74,35.25,1
2926,45.01,-8.65,39.14,1
2927,45.03,-6.18,42.75,1
2928,45.04,-1.21,39.67,1
2929,45.05,-1.89,34.71,1
2930,45.06,-1.36,37.22,1
2931,45.08,-1.84,42.05,1
2932,45.09,-5.31,38.82,1
2933,45.11,-5.66,33.53,1
2934,45.12,-1.48,33.56,1
2935,45.13,5.5,30.9,1
2936,45.15,7.45,23.65,1
2937,45.16,-1.87,23.52,1
2938,45.17,-6.58,34.5,1
2939,45.19,1.49,40.9,1
2940,45.2,0.12,28.35,1
2941,45.21,-11.64,11.35,1
2942,45.22,-8.52,8.38,1
2943,45.24,0.01,13.39,1
2944,45.25,-10.15,17.98,1
2945,45.26,-23.14,21.55,1
2946,45.28,-14.19,18.6,1
2947,45.29,6.42,8.3,1
2948,45.31,12.19,4.62,1
2949,45.32,-0.04,14.23,1
2950,45.33,-5.28,17.45,1
2951,45.35,7.0,2.64,1
2952,45.36,11.89,-11.78,1
2953,45.37,-1.64,-6.18,1
2954,45.38,-7.38,13.61,1
2955,45.4,4.0,22.3,1
2956,45.41,8.44,10.49,1
2957,45.43,-0.99,-2.73,1
2958,45.44,-5.69,-6.25,1
2959,45.45,1.63,-5.59,1
2960,45.47,9.2,0.19,1
2961,45.48,4.96,10.5,1
2962,45.49,-7.91,14.17,1
2963,45.51,-13.57,4.73,1
2964,45.52,-7.39,-7.99,1
2965,45.53,-1.56,-7.05,1
2966,45.54,-1.18,2.12,1
2967,45.56,0.88,1.72,1
2968,45.57,5.19,-0.61,1
2969,45.59,3.54,5.23,1
2970,45.6,-4.65,5.07,1
2971,45.61,-7.81,-8.18,1
2972,45.63,-2.29,-20.46,1
2973,45.64,1.97,-19.88,1
2974,45.65,2.84,-7.48,1
2975,45.67,7.21,6.34,1
2976,45.68,7.13,7.44,1
2977,45.69,-6.34,-5.72,1
2978,45.71,-14.33,-19.22,1
2979,45.72,-3.16,-22.71,1
2980,45.73,2.19,-17.9,1
2981,45.75,-11.87,-8.92,1
2982,45.76,-20.61,-1.26,1
2983,45.77,-11.29,-3.59,1
2984,45.79,0.2,-13.21,1
2985,45.8,4.59,-21.33,1
2986,45.81,9.55,-29.16,1
2987,45.83,13.22,-35.83,1
2988,45.84,7.29,-31.29,1
2989,45.85,2.4,-18.9,1
2990,45.86,7.24,-13.73,1
2991,45.88,10.81,-15.32,1
2992,45.89,7.05,-16.68,1
2993,45.9,2.22,-20.09,1
2994,45.92,-2.45,-26.05,1
2995,45.93,-9.02,-28.47,1
2996,45.95,-11.88,-22.55,1
2997,45.96,-4.38,-12.27,1
2998,45.97,6.14,-6.19,1
2999,45.99,8.77,-5.84,1
3000,46.0,3.15,-6.13,1
3001,46.01,-5.87,-2.33,1
3002,46.03,-6.94,-0.33,1
3003,46.04,4.0,-10.95,1
3004,46.05,6.88,-23.92,1
3005,46.06,-7.1,-22.38,1
3006,46.08,-18.13,-12.86,1
3007,46.09,-16.98,-6.88,1
3008,46.11,-11.58,-8.08,1
3009,46.12,-4.33,-18.53,1
3010,46.13,3.89,-29.23,1
3011,46.15,7.51,-40.83,1
3012,46.16,5.67,-72.69,2
3013,46.17,6.96,-80.19,2
3014,46.19,12.07,19.7,2
3015,46.2,8.89,136.4,2
3016,46.21,3.56,81.79,2
3017,46.22,19.65,-54.32,2
3018,46.24,49.14,-32.44,2
3019,46.25,53.71,120.72,2
3020,46.27,20.45,237.61,2
3021,46.28,-23.18,231.96,2
3022,46.29,-43.08,118.15,2
3023,46.31,-33.85,22.89,2
3024,46.32,-25.45,-20.88,2
3025,46.33,-29.75,-78.71,2
3026,46.35,-21.41,-60.95,2
3027,46.36,-1.31,40.31,2
3028,46.37,12.33,14.18,2
3029,46.38,21.71,-98.08,2
3030,46.4,14.84,-61.23,2
3031,46.41,-10.51,40.14,2
3032,46.43,-16.41,-4.81,2
3033,46.44,3.97,-136.46,2
3034,46.45,16.33,-164.55,2
3035,46.47,10.14,-41.99,2
3036,46.48,-3.63,82.97,2
3037,46.49,-13.42,48.52,2
3038,46.5,-12.75,-80.99,2
3039,46.52,-4.18,-111.13,2
3040,46.53,10.89,-38.07,2
3041,46.54,16.32,3.14,2
3042,46.56,2.44,-2.9,1
3043,46.57,0.09,4.82,1
3044,46.59,14.7,20.42,1
3045,46.6,19.74,-1.56,1
3046,46.61,21.02,-60.14,1
3047,46.63,21.17,-91.88,1
3048,46.64,1.96,-63.8,1
3049,46.65,-22.28,-23.1,1
3050,46.67,-24.37,-10.92,1
3051,46.68,-13.85,-38.21,1
3052,46.69,-12.32,-89.51,1
3053,46.71,-14.97,-92.3,1
3054,46.72,-7.7,-34.18,1
3055,46.73,6.3,-7.42,1
3056,46.75,12.32,-20.86,1
3057,46.76,5.68,-0.27,1
3058,46.77,-1.69,28.57,1
3059,46.79,-1.57,5.32,1
3060,46.8,-2.54,-28.26,1
3061,46.81,-12.2,-30.29,1
3062,46.83,-22.7,-21.14,1
3063,46.84,-16.41,-7.83,1
3064,46.85,4.98,3.27,1
3065,46.87,11.36,3.43,1
3066,46.88,-4.23,5.52,1
3067,46.89,-13.27,-3.56,1
3068,46.9,-5.51,-24.6,1
3069,46.92,7.83,-28.3,1
3070,46.93,18.31,-21.65,1
3071,46.95,19.19,-12.69,1
3072,46.96,11.83,-21.46,1
3073,46.97,2.1,-67.83,1
3074,46.99,-6.95,-71.93,1
3075,47.0,-4.6,6.71,1
3076,47.01,10.14,51.58,1
3077,47.03,13.34,16.87,1
3078,47.04,3.45,6.22,1
3079,47.05,4.36,38.51,1
3080,47.06,7.32,40.19,1
3081,47.08,-4.25,11.8,1
3082,47.09,-3.9,6.58,1
3083,47.11,21.94,41.5,1
3084,47.12,30.11,64.53,1
3085,47.13,5.67,28.52,1
3086,47.14,-5.04,-20.99,1
3087,47.16,3.41,-15.01,1
3088,47.17,-1.29,37.84,1
3089,47.18,-6.03,78.22,1
3090,47.2,6.8,72.6,1
3091,47.21,17.16,38.0,1
3092,47.22,7.36,18.61,1
3093,47.24,-11.82,27.94,1
3094,47.25,-15.44,39.69,1
3095,47.27,-3.24,46.66,1
3096,47.28,-1.78,53.81,1
3097,47.29,-17.24,46.58,1
3098,47.31,-25.13,25.77,1
3099,47.32,-6.74,8.49,1
3100,47.33,22.29,-1.96,1
3101,47.35,25.48,3.22,1
3102,47.36,2.31,27.5,1
3103,47.37,-8.8,31.22,1
3104,47.38,-4.38,7.1,1
3105,47.4,-7.05,18.07,1
3106,47.41,-9.34,47.08,1
3107,47.43,-6.96,19.16,1
3108,47.44,-13.7,-2.35,1
3109,47.45,-18.86,39.24,1
3110,47.47,-15.8,47.26,1
3111,47.48,-15.37,19.71,1
3112,47.49,-7.31,54.53,1
3113,47.51,10.53,82.66,1
3114,47.52,15.3,4.38,1
3115,47.53,2.52,-74.45,1
3116,47.54,-6.37,-33.17,1
3117,47.56,2.39,52.74,1
3118,47.57,14.79,56.56,1
3119,47.59,9.1,-5.88,1
3120,47.6,-9.25,-33.98,1
3121,47.61,-14.99,-2.85,1
3122,47.63,-2.9,23.93,1
3123,47.64,8.95,17.56,1
3124,47.65,11.74,13.29,1
3125,47.67,12.48,8.64,1
3126,47.68,10.42,-20.24,1
3127,47.69,2.6,-32.41,1
3128,47.71,1.07,-1.03,1
3129,47.72,3.62,22.83,1
3130,47.73,-4.16,12.48,1
3131,47.75,-8.79,-0.64,1
3132,47.76,-3.01,-7.1,1
3133,47.77,-3.97,-15.85,1
3134,47.78,-5.02,-9.4,1
3135,47.8,4.26,4.65,1
3136,47.81,3.24,-7.31,1
3137,47.82,-11.44,-20.47,1
3138,47.84,-14.68,9.11,1
3139,47.85,-3.11,59.12,1
3140,47.86,3.93,53.43,1
3141,47.88,-7.07,-18.25,1
3142,47.89,-24.53,-46.98,1
3143,47.9,-17.92,1.45,1
3144,47.92,11.44,19.2,1
3145,47.93,29.74,-13.07,1
3146,47.95,26.71,-1.85,1
3147,47.96,16.86,41.8,1
3148,47.97,6.03,31.64,1
3149,47.99,-3.83,3.61,1
3150,48.0,-4.62,33.65,1
3151,48.01,3.43,63.31,1
3152,48.03,6.32,30.07,1
3153,48.04,0.2,-7.95,1
3154,48.05,-2.48,-4.27,1
3155,48.06,-3.32,-1.25,1
3156,48.08,-16.32,-35.41,1
3157,48.09,-26.04,-71.37,1
3158,48.11,-9.99,-70.14,1
3159,48.12,5.4,-40.19,1
3160,48.13,-0.31,-1.53,1
3161,48.15,3.43,21.66,1
3162,48.16,18.55,20.11,0
3163,48.17,16.12,9.75,0
3164,48.19,0.97,-8.74,0
3165,48.2,-17.27,-36.4,0
3166,48.21,-25.54,-50.52,0
3167,48.22,-4.71,-57.43,0
3168,48.24,14.03,-101.84,0
3169,48.25,3.92,-180.34,0
3170,48.27,-10.55,-237.9,0
3171,48.28,-24.09,-245.93,0
3172,48.29,-42.51,-211.39,0
3173,48.31,-44.29,-154.9,0
3174,48.32,-24.19,-103.26,0
3175,48.33,-0.35,-62.14,0
3176,48.35,21.63,-16.23,0
3177,48.36,39.02,32.76,0
3178,48.37,40.54,71.16,0
3179,48.38,28.96,102.79,0
3180,48.4,18.07,127.49,0
3181,48.41,17.04,131.32,0
3182,48.42,24.2,120.6,0
3183,48.44,20.22,116.05,0
3184,48.45,3.33,115.82,0
3185,48.46,-1.05,105.26,0
3186,48.48,8.84,89.29,0
3187,48.49,13.53,80.95,0
3188,48.5,7.05,76.61,0
3189,48.52,-4.9,70.01,0
3190,48.53,-12.1,63.88,0
3191,48.54,-9.83,58.91,0
3192,48.56,-6.47,55.42,1
3193,48.57,-7.38,51.16,1
3194,48.59,-5.94,41.11,1
3195,48.6,-1.69,31.04,1
3196,48.61,-5.91,27.9,1
3197,48.63,-14.77,28.79,1
3198,48.64,-10.02,28.42,1
3199,48.65,6.16,24.95,1
3200,48.67,13.71,25.6,1
3201,48.68,7.32,33.63,1
3202,48.69,1.11,31.57,1
3203,48.71,5.59,13.55,1
3204,48.72,17.17,1.07,1
3205,48.73,25.06,2.79,1
3206,48.75,21.78,4.78,1
3207,48.76,9.44,-0.73,1
3208,48.77,-5.57,-8.64,1
3209,48.79,-17.42,-7.66,1
3210,48.8,-16.5,4.2,1
3211,48.81,-0.96,6.99,1
3212,48.83,10.58,-4.3,1
3213,48.84,2.93,-7.56,1
3214,48.85,-12.61,-4.23,1
3215,48.87,-20.84,-11.52,1
3216,48.88,-19.16,-19.78,1
3217,48.89,-8.68,-20.8,1
3218,48.9,2.93,-24.34,1
3219,48.92,2.42,-26.42,1
3220,48.93,-6.57,-20.52,1
3221,48.95,-5.99,-20.62,1
3222,48.96,3.2,-29.91,1
3223,48.97,1.55,-31.14,1
3224,48.99,-10.22,-22.89,1
3225,49.0,-11.16,-22.37,1
3226,49.01,-1.13,-33.77,1
3227,49.03,1.36,-44.14,1
3228,49.04,-5.93,-44.53,1
3229,49.05,-10.95,-35.36,1
3230,49.06,-8.79,-18.91,1
3231,49.08,-7.56,-3.49,1
3232,49.09,-12.08,-4.33,1
3233,49.1,-13.84,-20.8,1
3234,49.12,-11.83,-29.06,1
3235,49.13,-10.87,-20.03,1
3236,49.14,-1.61,-13.67,1
3237,49.16,14.22,-21.22,1
3238,49.17,15.35,-29.13,1
3239,49.19,2.02,-27.2,1
3240,49.2,-5.42,-21.69,1
3241,49.21,-2.55,-15.99,1
3242,49.22,2.86,-12.94,1
3243,49.24,8.63,-21.37,1
3244,49.25,11.4,-30.82,1
3245,49.27,4.37,-23.08,1
3246,49.28,-8.36,-8.69,1
3247,49.29,-13.68,-8.01,1
3248,49.31,-9.59,-19.14,1
3249,49.32,-5.21,-27.52,1
3250,49.33,-1.61,-30.01,1
3251,49.35,4.29,-29.79,1
3252,49.36,5.16,-24.1,1
3253,49.37,-1.1,-16.02,1
3254,49.38,-4.29,-13.67,1
3255,49.4,-2.79,-18.58,1
3256,49.41,0.68,-23.7,1
3257,49.43,5.97,-19.87,1
3258,49.44,5.66,-10.92,1
3259,49.45,1.16,-5.53,1
3260,49.47,4.26,-4.99,1
3261,49.48,8.1,-9.84,1
3262,49.49,1.25,-15.95,1
3263,49.51,-4.05,-13.04,1
3264,49.52,6.01,-0.78,1
3265,49.53,16.5,6.38,1
3266,49.54,7.13,0.41,1
3267,49.56,-7.98,-6.55,1
3268,49.57,-4.56,-5.78,1
3269,49.59,6.29,-4.36,1
3270,49.6,4.87,-2.97,1
3271,49.61,1.57,5.08,1
3272,49.63,7.65,16.6,1
3273,49.64,11.29,19.06,1
3274,49.65,4.29,9.02,1
3275,49.67,-2.63,2.06,1
3276,49.68,-0.67,6.44,1
3277,49.69,5.29,8.15,1
3278,49.7,5.94,2.47,1
3279,49.72,-1.01,4.44,1
3280,49.73,-3.72,13.81,1
3281,49.74,7.23,12.47,1
3282,49.76,16.65,0.19,1
3283,49.77,6.71,-3.87,1
3284,49.78,-10.0,8.11,1
3285,49.8,-10.3,19.25,1
3286,49.81,0.18,12.4,1
3287,49.825,1.09,-2.81,1
3288,49.84,-7.76,-6.3,1
3289,49.85,-11.0,2.17,1
3290,49.87,-2.01,7.37,1
3291,49.88,9.19,3.14,1
3292,49.89,10.37,2.71,1
3293,49.9,4.74,13.45,1
3294,49.92,3.25,21.09,1
3295,49.93,3.76,16.22,1
3296,49.95,-2.18,8.3,1
3297,49.96,-6.41,9.72,1
3298,49.97,1.79,19.97,1
3299,49.99,14.39,27.29,1
3300,50.0,20.85,26.25,1
3301,50.01,19.87,17.74,1
3302,50.03,13.06,6.92,1
3303,50.04,3.98,4.76,1
3304,50.05,-2.78,10.31,1
3305,50.06,-8.5,12.48,1
3306,50.08,-14.35,12.36,1
3307,50.09,-16.69,11.54,1
3308,50.11,-17.45,-1.21,1
3309,50.12,-17.28,-18.11,1
3310,50.13,-11.03,-9.72,1
3311,50.15,-3.51,17.71,1
3312,50.16,-1.41,16.41,0
3313,50.17,1.92,-41.16,0
3314,50.19,7.98,-121.16,0
3315,50.2,9.41,-157.49,0
3316,50.21,11.37,-134.87,0
3317,50.22,18.09,-97.35,0
3318,50.24,16.14,-71.81,0
3319,50.25,5.1,-55.25,0
3320,50.27,3.19,-47.28,0
3321,50.28,9.35,-47.92,0
3322,50.29,11.01,-48.78,0
3323,50.31,11.42,-39.29,0
3324,50.32,14.63,-19.03,0
3325,50.33,10.1,-1.29,0
3326,50.34,-6.46,5.91,0
3327,50.36,-20.01,13.12,0
3328,50.37,-16.42,30.48,0
3329,50.38,-2.26,51.97,0
3330,50.4,4.01,67.34,0
3331,50.41,-2.61,78.6,0
3332,50.42,-11.52,93.17,0
3333,50.44,-13.49,102.18,0
3334,50.45,-5.27,98.48,0
3335,50.46,4.67,98.89,0
3336,50.48,2.8,112.44,0
3337,50.49,-6.02,123.82,0
3338,50.51,-11.69,123.87,0
3339,50.52,-15.59,123.09,0
3340,50.53,-16.36,129.59,0
3341,50.54,-9.75,132.31,0
3342,50.56,-0.36,120.07,1
3343,50.57,0.95,103.06,1
3344,50.59,-9.21,94.82,1
3345,50.6,-17.73,90.57,1
3346,50.61,-13.21,80.7,1
3347,50.63,-0.99,71.53,1
3348,50.64,6.67,65.68,1
3349,50.65,3.08,49.77,1
3350,50.67,-5.59,28.58,1
3351,50.68,-10.11,24.47,1
3352,50.69,-9.88,31.56,1
3353,50.71,-5.58,27.31,1
3354,50.72,3.04,16.63,1
3355,50.73,7.95,13.13,1
3356,50.75,1.54,10.39,1
3357,50.76,-5.43,0.82,1
3358,50.77,-1.67,-8.83,1
3359,50.79,2.79,-12.91,1
3360,50.8,0.48,-16.86,1
3361,50.81,0.36,-25.22,1
3362,50.83,5.69,-34.59,1
3363,50.84,4.34,-39.11,1
3364,50.85,-7.85,-37.2,1
3365,50.87,-12.93,-33.3,1
3366,50.88,-5.52,-33.25,1
3367,50.89,-4.27,-40.92,1
3368,50.9,-7.14,-51.56,1
3369,50.92,-0.29,-54.15,1
3370,50.93,7.86,-49.02,1
3371,50.95,6.15,-47.49,1
3372,50.96,-4.18,-53.92,1
3373,50.97,-10.72,-60.56,1
3374,50.98,-3.91,-57.41,1
3375,51.0,2.95,-46.99,1
3376,51.01,2.28,-41.65,1
3377,51.02,8.13,-43.73,1
3378,51.04,16.75,-45.0,1
3379,51.05,12.73,-43.4,1
3380,51.06,-2.65,-44.77,1
3381,51.08,-17.03,-50.93,1
3382,51.09,-12.21,-54.1,1
3383,51.1,5.47,-48.47,1
3384,51.12,8.05,-43.06,1
3385,51.13,3.56,-43.7,1
3386,51.15,13.82,-43.21,1
3387,51.16,19.81,-44.28,1
3388,51.17,6.43,-53.08,1
3389,51.19,-3.99,-57.46,1
3390,51.2,-1.21,-49.56,1
3391,51.21,1.36,-40.13,1
3392,51.22,1.38,-35.98,1
3393,51.24,1.96,-30.17,1
3394,51.25,0.08,-20.8,1
3395,51.27,-4.39,-21.6,1
3396,51.28,-7.57,-33.87,1
3397,51.29,-6.2,-35.72,1
3398,51.31,-1.45,-23.16,1
3399,51.32,3.13,-17.77,1
3400,51.33,3.74,-25.25,1
3401,51.35,-1.58,-31.15,1
3402,51.36,-3.41,-28.06,1
3403,51.37,0.93,-21.34,1
3404,51.38,-0.73,-21.98,1
3405,51.4,-2.37,-26.42,1
3406,51.41,6.95,-17.58,1
3407,51.43,9.54,-2.11,1
3408,51.44,-5.22,1.42,1
3409,51.45,-13.58,0.12,1
3410,51.47,-2.91,-1.86,1
3411,51.48,2.65,-14.05,1
3412,51.49,-4.9,-22.99,1
3413,51.51,0.05,-13.3,1
3414,51.52,17.74,-2.1,1
3415,51.53,23.55,-1.39,1
3416,51.54,20.15,2.87,1
3417,51.56,18.99,10.78,1
3418,51.57,8.56,8.02,1
3419,51.59,-11.91,-0.41,1
3420,51.6,-18.54,-4.15,1
3421,51.61,-4.12,-0.89,1
3422,51.62,11.86,10.56,1
3423,51.64,10.76,17.39,1
3424,51.65,-8.85,6.44,1
3425,51.66,-22.65,-7.63,1
3426,51.68,-8.87,-3.49,1
3427,51.69,11.01,13.81,1
3428,51.7,11.72,24.72,1
3429,51.72,8.86,21.87,1
3430,51.73,16.86,13.19,1
3431,51.74,21.39,11.14,1
3432,51.76,12.0,18.81,1
3433,51.77,-0.07,22.5,1
3434,51.79,-5.29,12.1,1
3435,51.8,-8.66,2.71,1
3436,51.81,-10.91,9.67,1
3437,51.83,-7.79,21.09,1
3438,51.84,-2.94,21.33,1
3439,51.85,3.49,18.66,1
3440,51.87,9.83,25.35,1
3441,51.88,4.47,33.17,1
3442,51.89,-5.86,31.13,1
3443,51.9,0.04,21.72,1
3444,51.92,14.69,11.81,1
3445,51.93,10.28,5.18,1
3446,51.95,-10.45,3.25,1
3447,51.96,-15.9,6.81,1
3448,51.97,-0.04,14.81,1
3449,51.99,12.62,18.6,1
3450,52.0,9.94,13.62,1
3451,52.01,-4.43,11.98,1
3452,52.03,-19.67,17.56,1
3453,52.04,-20.9,16.07,1
3454,52.05,-12.56,7.78,1
3455,52.06,-7.64,9.51,1
3456,52.08,-5.24,19.99,1
3457,52.09,-5.77,20.76,1
3458,52.11,-8.18,9.38,1
3459,52.12,-2.69,4.52,1
3460,52.13,5.94,16.49,1
3461,52.15,6.87,27.79,1
3462,52.16,5.31,18.62,2
3463,52.17,9.8,6.71,2
3464,52.19,16.6,14.77,2
3465,52.2,13.19,21.22,2
3466,52.21,-3.79,8.96,2
3467,52.22,-15.81,5.97,2
3468,52.24,-10.71,22.56,2
3469,52.25,-0.16,26.82,2
3470,52.26,4.98,16.78,2
3471,52.28,1.92,39.7,2
3472,52.29,-6.61,111.11,2
3473,52.3,-12.19,191.5,2
3474,52.32,-10.69,249.81,2
3475,52.33,-8.82,279.24,2
3476,52.34,-9.52,273.1,2
3477,52.36,-7.43,234.35,2
3478,52.37,-6.17,170.23,2
3479,52.38,-7.94,88.99,2
3480,52.4,-4.83,19.59,2
3481,52.41,-1.03,-22.74,2
3482,52.425,-3.65,-63.06,2
3483,52.44,-5.75,-114.74,2
3484,52.45,0.69,-156.45,2
3485,52.47,9.34,-178.24,2
3486,52.48,6.46,-195.32,2
3487,52.49,-8.84,-211.89,2
3488,52.51,-17.72,-213.73,2
3489,52.52,-8.92,-195.65,2
3490,52.53,4.31,-168.99,2
3491,52.54,5.69,-148.64,2
3492,52.56,0.64,-138.4,1
3493,52.57,5.81,-129.55,1
3494,52.59,17.5,-116.81,1
3495,52.6,17.17,-102.22,1
3496,52.61,8.39,-79.12,1
3497,52.63,7.76,-47.4,1
3498,52.64,8.15,-34.04,1
3499,52.65,-0.25,-49.44,1
3500,52.67,1.49,-64.68,1
3501,52.68,16.21,-62.19,1
3502,52.69,13.54,-52.98,1
3503,52.71,-4.01,-47.96,1
3504,52.72,-6.14,-45.07,1
3505,52.73,0.55,-37.41,1
3506,52.75,-3.49,-25.54,1
3507,52.76,-6.46,-12.62,1
3508,52.77,5.17,-1.2,1
3509,52.79,17.3,1.16,1
3510,52.8,12.16,-2.15,1
3511,52.81,-3.0,1.64,1
3512,52.83,-5.31,9.0,1
3513,52.84,5.3,6.18,1
3514,52.85,10.11,-3.34,1
3515,52.87,11.84,-1.44,1
3516,52.88,19.0,15.46,1
3517,52.89,15.07,31.42,1
3518,52.9,-4.15,35.11,1
3519,52.92,-13.77,29.25,1
3520,52.93,-6.94,21.74,1
3521,52.94,-1.57,18.86,1
3522,52.96,-4.04,23.66,1
3523,52.97,-5.4,32.33,1
3524,52.98,-1.64,35.97,1
3525,53.0,-1.19,36.42,1
3526,53.01,-8.21,40.09,1
3527,53.02,-11.16,40.28,1
3528,53.04,-3.0,33.03,1
3529,53.05,2.63,29.57,1
3530,53.06,-0.92,35.0,1
3531,53.08,-2.41,40.46,1
3532,53.09,2.58,42.96,1
3533,53.11,8.13,47.37,1
3534,53.12,6.5,51.03,1
3535,53.13,-2.41,46.71,1
3536,53.15,-3.92,37.69,1
3537,53.16,3.35,39.04,1
3538,53.17,2.58,48.81,1
3539,53.19,-4.99,46.45,1
3540,53.2,-1.91,35.63,1
3541,53.21,8.74,36.9,1
3542,53.22,5.91,44.38,1
3543,53.24,-9.58,46.55,1
3544,53.25,-12.24,49.14,1
3545,53.27,3.95,49.06,1
3546,53.28,13.27,36.28,1
3547,53.29,2.12,20.63,1
3548,53.31,-11.01,17.12,1
3549,53.32,-11.02,18.05,1
3550,53.33,-6.21,13.12,1
3551,53.35,-5.4,12.47,1
3552,53.36,-4.92,22.17,1
3553,53.37,-0.2,28.99,1
3554,53.38,6.31,24.06,1
3555,53.4,8.08,14.82,1
3556,53.41,1.6,12.5,1
3557,53.43,-8.09,17.42,1
3558,53.44,-15.6,23.29,1
3559,53.45,-21.23,22.87,1
3560,53.47,-17.14,15.7,1
3561,53.48,-1.87,10.13,1
3562,53.49,4.65,8.22,1
3563,53.51,-1.69,4.47,1
3564,53.52,-2.89,3.43,1
3565,53.53,4.38,10.47,1
3566,53.54,9.11,13.5,1
3567,53.56,4.56,5.16,1
3568,53.57,-3.8,-0.55,1
3569,53.58,-5.78,2.53,1
3570,53.6,-4.65,2.45,1
3571,53.61,-7.33,-7.25,1
3572,53.62,-6.79,-16.58,1
3573,53.64,0.19,-14.56,1
3574,53.65,2.45,-7.99,1
3575,53.66,-2.49,-6.54,1
3576,53.68,-3.59,-8.07,1
3577,53.69,-0.74,-10.75,1
3578,53.7,-3.44,-10.67,1
3579,53.72,-8.18,-3.7,1
3580,53.73,-6.14,4.43,1
3581,53.75,1.64,10.56,1
3582,53.76,6.51,13.2,1
3583,53.77,2.29,3.52,1
3584,53.79,-2.96,-14.18,1
3585,53.8,2.26,-24.38,1
3586,53.81,9.61,-22.1,1
3587,53.83,7.46,-11.04,1
3588,53.84,5.02,-2.95,1
3589,53.85,9.96,-9.67,1
3590,53.87,8.94,-21.6,1
3591,53.88,-4.15,-26.63,1
3592,53.89,-12.33,-28.87,1
3593,53.9,-8.61,-25.95,1
3594,53.92,-7.49,-16.14,1
3595,53.93,-10.18,-12.51,1
3596,53.95,-3.95,-17.47,1
3597,53.96,2.53,-25.09,1
3598,53.97,-3.13,-32.28,1
3599,53.99,-8.17,-32.69,1
3600,54.0,-1.58,-26.31,1
3601,54.01,7.13,-20.15,1
3602,54.03,8.9,-18.85,1
3603,54.04,4.01,-24.47,1
3604,54.05,-2.27,-26.35,1
3605,54.06,-2.2,-13.12,1
3606,54.08,4.53,-1.43,1
3607,54.09,9.64,-9.06,1
3608,54.11,8.95,-25.69,1
3609,54.12,2.74,-22.52,1
3610,54.13,-5.67,26.65,1
3611,54.15,-7.05,86.65,1
3612,54.16,0.59,94.15,2
3613,54.17,10.14,89.27,2
3614,54.18,25.83,137.24,2
3615,54.2,43.71,148.14,2
3616,54.21,31.3,20.19,2
3617,54.22,-5.93,-136.19,2
3618,54.24,-17.14,-163.31,2
3619,54.25,-3.94,-44.62,2
3620,54.26,-4.01,122.28,2
3621,54.28,-15.92,171.44,2
3622,54.29,-16.97,80.3,2
3623,54.3,5.7,8.5,2
3624,54.32,24.67,-4.83,2
3625,54.33,-4.33,-31.28,2
3626,54.34,-46.5,-34.48,2
3627,54.36,-34.39,32.91,2
3628,54.37,8.07,76.55,2
3629,54.38,23.58,4.85,2
3630,54.4,10.02,-117.01,2
3631,54.41,-12.71,-169.8,2
3632,54.43,-21.93,-124.4,2
3633,54.44,-0.84,-50.49,2
3634,54.45,27.52,-17.37,2
3635,54.47,29.02,-14.93,2
3636,54.48,6.17,-38.79,2
3637,54.49,-21.24,-123.57,2
3638,54.51,-31.77,-187.84,2
3639,54.52,-11.45,-118.07,2
3640,54.53,9.67,-25.82,2
3641,54.54,1.38,-44.05,2
3642,54.56,-11.48,-72.38,1
3643,54.57,-6.26,-44.1,1
3644,54.59,1.4,-37.11,1
3645,54.6,-0.49,-44.14,1
3646,54.61,1.84,-30.16,1
3647,54.63,20.46,-25.12,1
3648,54.64,36.17,0.87,1
3649,54.65,26.21,48.66,1
3650,54.67,9.6,25.42,1
3651,54.68,15.2,-31.42,1
3652,54.69,20.76,-30.88,1
3653,54.71,4.87,-40.57,1
3654,54.72,0.14,-89.46,1
3655,54.73,8.33,-99.42,1
3656,54.75,-3.39,-53.77,1
3657,54.76,-13.32,8.6,1
3658,54.77,0.27,22.83,1
3659,54.79,3.45,-16.51,1
3660,54.8,-9.86,-33.18,1
3661,54.81,-7.64,-23.75,1
3662,54.82,-0.23,-20.66,1
3663,54.84,-8.23,-18.38,1
3664,54.85,-6.95,-33.82,1
3665,54.86,7.44,-53.95,1
3666,54.88,-6.57,-30.47,1
3667,54.89,-31.32,28.92,1
3668,54.9,-8.23,90.15,1
3669,54.92,34.01,127.43,1
3670,54.93,37.46,95.45,1
3671,54.94,13.93,6.0,1
3672,54.96,-13.85,-16.72,1
3673,54.97,-32.56,69.38,1
3674,54.98,-24.7,125.32,1
3675,55.0,-4.79,82.57,1
3676,55.01,6.27,33.7,1
3677,55.03,12.32,8.71,1
3678,55.04,12.75,-24.58,1
3679,55.05,11.97,-19.35,1
3680,55.06,16.59,37.57,1
3681,55.08,3.48,59.96,1
3682,55.09,-22.32,21.87,1
3683,55.11,-14.74,-8.53,1
3684,55.12,15.17,1.15,1
3685,55.13,17.04,10.15,1
3686,55.15,-6.04,-3.14,1
3687,55.16,-16.48,3.38,1
3688,55.17,-10.0,43.23,1
3689,55.19,-13.49,58.35,1
3690,55.2,-22.59,35.53,1
3691,55.21,-12.19,20.22,1
3692,55.22,-1.21,11.34,1
3693,55.24,-13.16,-4.5,1
3694,55.25,-22.15,-8.54,1
3695,55.27,-17.46,-0.53,1
3696,55.28,-21.82,26.99,1
3697,55.29,-25.63,91.58,1
3698,55.31,-5.44,124.4,1
3699,55.32,21.96,52.25,1
3700,55.33,28.47,-35.65,1
3701,55.35,20.21,-26.7,1
3702,55.36,16.39,20.46,1
3703,55.37,15.87,25.48,1
3704,55.38,7.09,37.4,1
3705,55.4,-5.34,74.14,1
3706,55.41,-2.13,46.4,1
3707,55.43,6.45,-31.54,1
3708,55.44,-3.86,-28.0,1
3709,55.45,-14.42,28.2,1
3710,55.46,-3.25,-11.44,1
3711,55.48,7.77,-88.0,1
3712,55.49,0.19,-44.43,1
3713,55.5,-7.78,47.44,1
3714,55.52,-1.37,45.95,1
3715,55.53,5.12,-11.09,1
3716,55.54,-1.15,-47.63,1
3717,55.56,-7.11,-58.69,1
3718,55.57,0.57,-40.28,1
3719,55.58,7.29,6.71,1
3720,55.6,-1.61,40.55,1
3721,55.61,-9.86,30.09,1
3722,55.62,-4.66,18.53,1
3723,55.64,0.52,54.51,1
3724,55.65,-3.61,83.26,1
3725,55.66,-10.77,46.92,1
3726,55.68,-7.7,8.49,1
3727,55.69,6.18,25.04,1
3728,55.71,12.24,49.0,1
3729,55.72,7.19,37.48,1
3730,55.73,8.09,18.41,1
3731,55.75,17.51,15.08,1
3732,55.76,18.68,-13.08,1
3733,55.77,9.65,-81.54,1
3734,55.79,7.7,-111.29,1
3735,55.8,6.1,-60.28,1
3736,55.81,-7.52,16.4,1
3737,55.83,-9.11,64.97,1
3738,55.84,7.04,65.45,1
3739,55.85,5.75,35.7,1
3740,55.87,-11.22,7.93,1
3741,55.88,-11.19,-11.16,1
3742,55.89,3.8,6.38,1
3743,55.9,11.26,47.79,1
3744,55.92,7.37,32.71,1
3745,55.93,9.88,8.7,1
3746,55.95,14.16,37.69,1
3747,55.96,0.92,17.19,1
3748,55.97,-7.86,-41.93,1
3749,55.99,0.48,-30.41,1
3750,56.0,-4.36,-24.72,1
3751,56.01,-23.18,-62.95,1
3752,56.03,-21.81,-39.49,1
3753,56.04,-3.11,6.45,1
3754,56.05,0.22,-5.72,1
3755,56.06,-7.44,-14.6,1
3756,56.08,-7.47,6.63,1
3757,56.09,-6.89,16.82,1
3758,56.1,-0.6,8.61,1
3759,56.12,17.28,-5.77,1
3760,56.13,22.02,-11.74,1
3761,56.14,7.76,-11.43,1
3762,56.16,-0.73,-5.93,0
3763,56.17,-5.05,8.6,0
3764,56.18,-19.3,-2.49,0
3765,56.2,-27.32,-32.91,0
3766,56.21,-15.74,-26.92,0
3767,56.22,-6.23,-17.46,0
3768,56.24,-15.57,-78.58,0
3769,56.25,-18.69,-177.87,0
3770,56.26,2.98,-233.34,0
3771,56.28,16.13,-232.38,0
3772,56.29,-10.21,-210.37,0
3773,56.3,-50.0,-179.78,0
3774,56.32,-59.09,-133.73,0
3775,56.33,-40.82,-77.32,0
3776,56.35,-18.98,-16.17,0
3777,56.36,11.88,45.2,0
3778,56.37,45.22,88.99,0
3779,56.38,50.88,108.46,0
3780,56.4,37.98,117.84,0
3781,56.41,37.37,125.22,0
3782,56.43,40.24,123.6,0
3783,56.44,28.46,104.27,0
3784,56.45,13.43,78.28,0
3785,56.47,7.61,70.86,0
3786,56.48,8.34,78.18,0
3787,56.49,11.46,77.48,0
3788,56.51,13.91,73.47,0
3789,56.52,13.98,77.09,0
3790,56.53,13.49,74.81,0
3791,56.54,12.14,60.92,0
3792,56.56,6.42,54.23,1
3793,56.57,1.76,55.74,1
3794,56.59,4.83,47.92,1
3795,56.6,3.84,39.79,1
3796,56.61,-7.39,43.12,1
3797,56.63,-8.28,38.83,1
3798,56.64,7.95,21.12,1
3799,56.65,16.12,13.81,1
3800,56.67,2.22,22.2,1
3801,56.68,-15.37,27.19,1
3802,56.69,-16.56,22.97,1
3803,56.71,-5.37,20.09,1
3804,56.72,1.05,21.63,1
3805,56.73,-2.01,23.75,1
3806,56.74,-5.2,23.97,1
3807,56.76,0.04,13.7,1
3808,56.77,15.83,-4.57,1
3809,56.78,29.46,-6.18,1
3810,56.8,22.27,8.0,1
3811,56.81,-0.04,8.21,1
3812,56.82,-14.71,-6.91,1
3813,56.84,-16.08,-16.48,1
3814,56.85,-13.2,-14.3,1
3815,56.86,-6.26,-7.69,1
3816,56.88,2.73,-7.34,1
3817,56.89,-0.25,-15.62,1
3818,56.9,-10.92,-21.98,1
3819,56.92,-10.18,-19.93,1
3820,56.93,-3.01,-17.87,1
3821,56.94,-4.14,-20.22,1
3822,56.96,-8.45,-21.17,1
3823,56.97,-10.71,-22.06,1
3824,56.99,-13.98,-21.96,1
3825,57.0,-14.77,-15.13,1
3826,57.01,-12.74,-9.1,1
3827,57.03,-14.81,-11.19,1
3828,57.04,-18.53,-18.38,1
3829,57.05,-12.83,-25.29,1
3830,57.06,1.96,-27.81,1
3831,57.08,9.83,-31.7,1
3832,57.09,5.54,-38.86,1
3833,57.11,2.24,-37.0,1
3834,57.12,0.67,-26.13,1
3835,57.13,-7.36,-18.22,1
3836,57.15,-11.69,-16.01,1
3837,57.16,-5.09,-18.13,1
3838,57.17,-1.24,-22.69,1
3839,57.19,-8.72,-19.92,1
3840,57.2,-18.47,-11.47,1
3841,57.21,-16.97,-18.38,1
3842,57.22,-3.99,-36.59,1
3843,57.24,6.31,-37.05,1
3844,57.25,8.29,-22.56,1
3845,57.27,5.42,-18.32,1
3846,57.28,-3.26,-28.28,1
3847,57.29,-11.28,-35.44,1
3848,57.31,-10.67,-26.19,1
3849,57.32,-5.99,-13.46,1
3850,57.33,0.68,-14.62,1
3851,57.35,7.89,-18.92,1
3852,57.36,6.43,-18.7,1
3853,57.37,-0.28,-21.81,1
3854,57.38,0.03,-19.28,1
3855,57.4,6.27,-7.65,1
3856,57.41,10.62,-6.29,1
3857,57.42,7.73,-13.99,1
3858,57.44,0.66,-11.79,1
3859,57.45,-0.95,-2.95,1
3860,57.46,0.56,-1.38,1
3861,57.48,0.4,-7.65,1
3862,57.49,3.64,-13.42,1
3863,57.5,7.41,-13.59,1
3864,57.52,4.98,-8.76,1
3865,57.53,-0.38,-2.81,1
3866,57.54,-7.48,-0.1,1
3867,57.56,-13.5,0.25,1
3868,57.57,-6.2,-2.17,1
3869,57.58,10.65,-9.4,1
3870,57.6,14.21,-16.42,1
3871,57.61,5.07,-17.54,1
3872,57.63,5.39,-10.1,1
3873,57.64,13.32,-3.55,1
3874,57.65,11.91,-10.27,1
3875,57.67,4.75,-14.61,1
3876,57.68,4.52,-3.62,1
3877,57.69,9.79,2.34,1
3878,57.71,10.22,-3.08,1
3879,57.72,1.88,-4.42,1
3880,57.73,-4.69,-2.77,1
3881,57.75,-3.14,-2.5,1
3882,57.76,-0.03,5.06,1
3883,57.77,3.23,15.94,1
3884,57.79,5.29,18.11,1
3885,57.8,0.99,17.1,1
3886,57.81,-3.8,16.75,1
3887,57.83,-2.53,8.77,1
3888,57.84,-1.85,-1.15,1
3889,57.85,-4.39,2.58,1
3890,57.87,-1.24,14.2,1
3891,57.88,6.56,13.05,1
3892,57.89,7.77,1.54,1
3893,57.9,2.37,-1.05,1
3894,57.92,-2.72,5.29,1
3895,57.93,-5.74,6.71,1
3896,57.95,-6.97,1.02,1
3897,57.96,-5.21,1.09,1
3898,57.97,3.38,12.37,1
3899,57.99,11.13,20.07,1
3900,58.0,3.07,12.26,1
3901,58.01,-13.5,0.2,1
3902,58.02,-18.85,-1.59,1
3903,58.04,-11.14,2.35,1
3904,58.05,0.65,4.27,1
3905,58.06,5.13,7.7,1
3906,58.08,-1.41,13.13,1
3907,58.09,-1.65,12.94,1
3908,58.1,11.22,8.44,1
3909,58.12,18.07,13.49,1
3910,58.13,13.62,28.05,1
3911,58.14,5.69,31.0,1
3912,58.16,-2.88,15.61,0
3913,58.17,-4.09,8.52,0
3914,58.18,1.93,26.17,0
3915,58.2,1.76,34.86,0
3916,58.21,0.79,-10.72,0
3917,58.22,11.68,-90.49,0
3918,58.24,16.94,-135.45,0
3919,58.25,0.95,-129.11,0
3920,58.26,-9.87,-116.4,0
3921,58.28,4.07,-123.54,0
3922,58.29,18.6,-134.52,0
3923,58.31,20.03,-132.06,0
3924,58.32,29.01,-123.73,0
3925,58.33,47.47,-113.24,0
3926,58.35,46.79,-81.34,0
3927,58.36,18.54,-25.88,0
3928,58.37,-7.81,21.92,0
3929,58.38,-11.21,46.32,0
3930,58.4,-8.05,62.8,0
3931,58.41,-14.73,76.45,0
3932,58.43,-17.67,79.71,0
3933,58.44,-6.81,84.95,0
3934,58.45,1.33,102.11,0
3935,58.47,-5.35,117.08,0
3936,58.48,-20.18,123.45,0
3937,58.49,-38.16,131.19,0
3938,58.51,-50.98,142.61,0
3939,58.52,-47.26,151.54,0
3940,58.53,-35.7,155.94,0
3941,58.54,-26.8,151.1,0
3942,58.56,-15.88,126.01,1
3943,58.57,-8.36,92.74,1
3944,58.59,-15.43,84.61,1
3945,58.6,-31.04,98.45,1
3946,58.61,-41.05,99.91,1
3947,58.63,-36.25,86.92,1
3948,58.64,-20.5,78.3,1
3949,58.65,-8.54,74.05,1
3950,58.66,-3.9,69.2,1
3951,58.68,1.04,64.49,1
3952,58.69,5.67,55.35,1
3953,58.7,5.97,39.14,1
3954,58.72,8.55,24.07,1
3955,58.73,18.76,18.04,1
3956,58.74,24.03,17.81,1
3957,58.76,16.04,18.51,1
3958,58.77,5.98,16.12,1
3959,58.78,5.78,1.94,1
3960,58.8,13.45,-14.97,1
3961,58.81,16.02,-13.4,1
3962,58.82,9.23,-3.23,1
3963,58.84,6.04,-5.92,1
3964,58.85,8.41,-14.2,1
3965,58.86,5.0,-19.02,1
3966,58.88,4.59,-24.93,1
3967,58.89,16.03,-29.71,1
3968,58.9,16.25,-32.23,1
3969,58.92,-0.84,-37.43,1
3970,58.93,-1.88,-43.66,1
3971,58.95,14.64,-45.21,1
3972,58.96,13.04,-41.24,1
3973,58.97,-3.28,-38.82,1
3974,58.99,-4.16,-45.0,1
3975,59.0,10.78,-54.71,1
3976,59.01,23.27,-57.75,1
3977,59.03,17.83,-52.63,1
3978,59.04,-1.56,-46.01,1
3979,59.05,-7.73,-41.63,1
3980,59.06,3.77,-39.08,1
3981,59.08,9.48,-41.71,1
3982,59.09,5.84,-50.89,1
3983,59.11,4.89,-58.44,1
3984,59.12,8.4,-56.28,1
3985,59.13,10.04,-49.05,1
3986,59.15,3.24,-48.32,1
3987,59.16,-4.46,-54.2,1
3988,59.17,-2.72,-57.88,1
3989,59.19,-2.57,-56.38,1
3990,59.2,-10.29,-52.76,1
3991,59.21,-12.37,-48.63,1
3992,59.22,-5.28,-44.69,1
3993,59.24,1.66,-44.63,1
3994,59.25,4.86,-50.43,1
3995,59.27,3.76,-51.78,1
3996,59.28,1.72,-41.12,1
3997,59.29,5.71,-31.42,1
3998,59.3,12.04,-31.81,1
3999,59.32,13.53,-31.39,1
4000,59.33,12.69,-26.04,1
4001,59.34,8.11,-22.81,1
4002,59.36,-1.9,-19.83,1
4003,59.37,-6.11,-14.53,1
4004,59.38,-6.24,-14.02,1
4005,59.4,-15.66,-21.15,1
4006,59.41,-19.83,-30.19,1
4007,59.42,-3.19,-33.35,1
4008,59.44,12.89,-27.17,1
4009,59.45,11.83,-15.9,1
4010,59.46,5.72,-2.6,1
4011,59.48,1.63,5.57,1
4012,59.49,-1.15,-3.31,1
4013,59.5,1.22,-17.77,1
4014,59.52,5.7,-16.28,1
4015,59.53,5.44,-5.92,1
4016,59.54,-1.85,0.46,1
4017,59.56,-8.23,5.66,1
4018,59.57,-6.18,5.67,1
4019,59.59,-4.65,-1.71,1
4020,59.6,-9.19,-5.37,1
4021,59.61,-11.01,-5.43,1
4022,59.63,-9.29,-8.44,1
4023,59.64,-6.82,-7.17,1
4024,59.65,1.96,-0.41,1
4025,59.67,12.84,3.09,1
4026,59.68,10.43,4.52,1
4027,59.69,-1.71,9.84,1
4028,59.71,-5.01,17.36,1
4029,59.72,1.56,20.06,1
4030,59.73,5.42,14.61,1
4031,59.75,1.34,9.45,1
4032,59.76,-7.9,14.47,1
4033,59.77,-14.47,21.01,1
4034,59.79,-9.81,14.19,1
4035,59.8,2.98,1.14,1
4036,59.81,9.55,-1.95,1
4037,59.83,5.85,7.19,1
4038,59.84,0.37,19.0,1
4039,59.85,-6.0,19.76,1
4040,59.87,-13.14,11.12,1
4041,59.88,-12.12,9.35,1
4042,59.89,-3.75,14.09,1
4043,59.9,0.85,16.06,1
4044,59.92,-3.66,20.66,1
4045,59.93,-12.57,29.31,1
4046,59.94,-12.36,32.82,1
4047,59.96,1.46,30.8,1
4048,59.97,12.28,25.1,1
4049,59.98,7.82,15.02,1
4050,60.0,-2.68,9.8,1
4051,60.01,-1.95,14.53,1
4052,60.02,13.52,18.24,1
4053,60.04,22.52,19.59,1
4054,60.05,10.92,23.86,1
4055,60.06,-2.93,20.09,1
4056,60.08,-5.64,9.96,1
4057,60.09,-6.16,13.43,1
4058,60.1,-6.77,25.53,1
4059,60.12,0.73,26.77,1
4060,60.13,7.2,20.74,1
4061,60.14,-3.11,21.24,1
4062,60.16,-16.48,24.11,2
4063,60.17,-15.53,20.24,2
4064,60.18,-8.05,14.13,2
4065,60.2,-0.84,12.19,2
4066,60.21,4.76,20.22,2
4067,60.22,1.41,58.23,2
4068,60.24,-6.22,142.46,2
4069,60.25,-1.04,250.49,2
4070,60.27,16.54,327.2,2
4071,60.28,32.93,336.06,2
4072,60.29,44.79,291.68,2
4073,60.31,51.56,225.15,2
4074,60.32,46.4,148.52,2
4075,60.33,26.88,64.57,2
4076,60.35,-2.53,-18.04,2
4077,60.36,-38.31,-86.15,2
4078,60.37,-71.3,-136.21,2
4079,60.38,-84.65,-177.65,2
4080,60.4,-77.76,-214.16,2
4081,60.41,-65.82,-230.87,2
4082,60.43,-52.7,-218.23,2
4083,60.44,-32.94,-191.12,2
4084,60.45,-11.14,-168.26,2
4085,60.47,3.38,-154.06,2
4086,60.48,11.11,-145.25,2
4087,60.49,17.36,-137.38,2
4088,60.51,23.4,-128.71,2
4089,60.52,23.8,-119.01,2
4090,60.53,14.3,-106.72,2
4091,60.54,5.6,-96.18,2
4092,60.56,9.28,-93.61,1
4093,60.57,14.36,-89.11,1
4094,60.58,12.42,-74.91,1
4095,60.6,16.21,-65.72,1
4096,60.61,25.35,-68.55,1
4097,60.62,33.76,-65.99,1
4098,60.64,47.26,-50.17,1
4099,60.65,52.07,-34.93,1
4100,60.66,31.12,-25.32,1
4101,60.68,1.88,-17.81,1
4102,60.69,-11.47,-13.9,1
4103,60.7,-10.95,-8.21,1
4104,60.72,-8.65,3.89,1
4105,60.73,-3.97,13.7,1
4106,60.74,4.11,16.21,1
4107,60.76,4.13,14.15,1
4108,60.77,-4.99,7.01,1
4109,60.78,-7.42,1.41,1
4110,60.8,-0.2,10.3,1
4111,60.81,3.03,27.86,1
4112,60.82,-1.98,35.25,1
4113,60.84,-8.08,33.03,1
4114,60.85,-11.08,31.82,1
4115,60.86,-9.36,30.31,1
4116,60.88,-3.97,28.71,1
4117,60.89,-3.3,34.13,1
4118,60.9,-11.32,44.61,1
4119,60.92,-12.27,49.1,1
4120,60.93,3.92,41.95,1
4121,60.95,16.8,31.27,1
4122,60.96,10.25,32.04,1
4123,60.97,-0.08,44.02,1
4124,60.99,1.5,49.71,1
4125,61.0,5.78,43.33,1
4126,61.01,2.22,35.56,1
4127,61.03,-4.94,32.44,1
4128,61.04,-8.53,34.14,1
4129,61.05,-5.13,40.26,1
4130,61.06,1.44,47.69,1
4131,61.08,2.61,48.08,1
4132,61.09,0.08,39.38,1
4133,61.11,1.26,34.81,1
4134,61.12,3.08,38.82,1
4135,61.13,-2.34,41.24,1
4136,61.15,-10.75,42.48,1
4137,61.16,-9.82,46.98,1
4138,61.17,1.97,51.33,1
4139,61.19,9.43,51.07,1
4140,61.2,0.71,39.93,1
4141,61.21,-10.66,21.27,1
4142,61.22,-6.96,16.8,1
4143,61.24,1.47,27.91,1
4144,61.25,1.08,31.04,1
4145,61.26,2.73,26.36,1
4146,61.28,7.77,26.62,1
4147,61.29,0.29,25.49,1
4148,61.3,-11.71,15.91,1
4149,61.32,-9.13,7.96,1
4150,61.33,0.38,10.91,1
4151,61.34,0.07,16.65,1
4152,61.36,-5.48,15.0,1
4153,61.37,-3.48,14.0,1
4154,61.38,3.29,20.94,1
4155,61.4,5.52,22.22,1
4156,61.41,2.05,11.56,1
4157,61.42,-2.25,5.91,1
4158,61.44,-0.32,8.37,1
4159,61.45,6.55,3.12,1
4160,61.46,7.2,-6.05,1
4161,61.48,1.68,-6.76,1
4162,61.49,1.25,-6.63,1
4163,61.5,4.57,-7.74,1
4164,61.52,0.5,-1.12,1
4165,61.53,-6.51,3.05,1
4166,61.54,-4.16,-5.82,1
4167,61.56,1.43,-7.12,1
4168,61.57,0.07,9.07,1
4169,61.59,-4.19,13.58,1
4170,61.6,-4.4,-3.22,1
4171,61.61,3.83,-13.09,1
4172,61.63,14.31,-9.89,1
4173,61.64,9.75,-11.89,1
4174,61.65,-3.46,-13.1,1
4175,61.67,-4.26,-3.99,1
4176,61.68,2.28,0.13,1
4177,61.69,3.99,-2.39,1
4178,61.71,4.27,-2.88,1
4179,61.72,6.06,-8.6,1
4180,61.73,8.41,-14.41,1
4181,61.75,8.9,-11.49,1
4182,61.76,3.54,-10.42,1
4183,61.77,-7.32,-14.33,1
4184,61.79,-17.96,-18.04,1
4185,61.8,-18.08,-20.41,1
4186,61.81,-5.92,-17.61,1
4187,61.83,2.88,-11.4,1
4188,61.84,-0.15,-11.64,1
4189,61.85,-5.03,-18.16,1
4190,61.86,-4.26,-17.77,1
4191,61.88,1.04,-11.79,1
4192,61.89,5.85,-16.29,1
4193,61.9,5.38,-27.56,1
4194,61.92,-1.95,-27.37,1
4195,61.93,-14.09,-19.83,1
4196,61.94,-21.84,-19.83,1
4197,61.96,-21.24,-17.7,1
4198,61.97,-18.25,-4.67,1
4199,61.98,-10.83,-0.53,1
4200,62.0,5.21,-11.95,1
4201,62.01,17.68,-19.22,1
4202,62.02,10.48,-16.52,1
4203,62.04,-6.26,-16.46,1
4204,62.05,-9.23,-19.19,1
4205,62.06,-0.28,-16.43,1
4206,62.08,4.25,-15.47,1
4207,62.09,5.0,-23.3,1
4208,62.1,9.62,-26.72,1
4209,62.12,9.09,-19.92,1
4210,62.13,-2.79,-13.9,1
4211,62.14,-7.23,-9.03,1
4212,62.16,2.0,28.2,2
4213,62.17,6.64,109.37,2
4214,62.19,2.87,152.67,2
4215,62.2,-0.35,123.09,2
4216,62.21,9.09,116.39,2
4217,62.22,38.35,145.01,2
4218,62.24,59.09,114.62,2
4219,62.25,39.09,31.71,2
4220,62.27,0.84,-24.64,2
4221,62.28,-16.29,-65.92,2
4222,62.29,-14.99,-117.84,2
4223,62.31,-13.24,-111.09,2
4224,62.32,-12.55,-51.92,2
4225,62.33,-11.73,-28.09,2
4226,62.35,-10.61,-14.67,2
4227,62.36,-13.72,17.28,2
4228,62.37,-24.9,5.71,2
4229,62.38,-25.22,-50.51,2
4230,62.4,-6.74,-90.51,2
4231,62.41,1.78,-115.69,2
4232,62.43,-11.34,-127.55,2
4233,62.44,-22.32,-78.33,2
4234,62.45,-16.17,-17.35,2
4235,62.47,-3.34,-37.46,2
4236,62.48,0.66,-68.89,2
4237,62.49,0.67,-38.15,2
4238,62.5,12.98,-25.09,2
4239,62.52,24.34,-56.01,2
4240,62.53,10.36,-59.39,2
4241,62.54,-12.7,-50.37,2
4242,62.56,-13.5,-93.07,1
4243,62.57,4.62,-130.8,1
4244,62.58,14.36,-94.71,1
4245,62.6,7.84,-74.93,1
4246,62.61,8.04,-94.29,1
4247,62.62,17.35,-46.45,1
4248,62.64,9.43,13.04,1
4249,62.65,-5.95,-7.82,1
4250,62.66,-4.44,-45.13,1
4251,62.68,-1.97,-49.7,1
4252,62.69,-8.72,-41.06,1
4253,62.7,-6.94,-27.1,1
4254,62.72,6.32,-5.81,1
4255,62.73,18.14,2.25,1
4256,62.74,21.13,3.15,1
4257,62.76,10.45,24.51,1
4258,62.77,-9.23,37.49,1
4259,62.78,-17.5,43.79,1
4260,62.8,-6.87,66.6,1
4261,62.81,5.82,54.22,1
4262,62.83,2.34,15.66,1
4263,62.84,-7.33,25.09,1
4264,62.85,8.41,57.94,1
4265,62.87,35.18,63.19,1
4266,62.88,22.82,66.28,1
4267,62.89,-12.26,86.17,1
4268,62.9,-19.66,83.86,1
4269,62.92,-10.57,33.03,1
4270,62.93,-7.59,-22.86,1
4271,62.95,-3.21,-15.9,1
4272,62.96,-2.41,48.0,1
4273,62.97,-8.59,90.21,1
4274,62.99,-7.85,71.77,1
4275,63.0,-0.77,30.02,1
4276,63.01,5.5,17.5,1
4277,63.03,15.81,38.17,1
4278,63.04,20.44,52.4,1
4279,63.05,7.42,59.79,1
4280,63.06,-2.62,61.09,1
4281,63.08,1.47,15.25,1
4282,63.09,1.74,-25.53,1
4283,63.11,-3.0,9.15,1
4284,63.12,0.03,51.75,1
4285,63.13,7.19,62.48,1
4286,63.14,10.28,73.83,1
4287,63.16,7.87,46.8,1
4288,63.17,-3.03,-25.85,1
4289,63.18,-20.88,-47.64,1
4290,63.2,-26.11,-12.74,1
4291,63.21,-6.11,1.24,1
4292,63.22,13.42,7.32,1
4293,63.24,4.33,30.85,1
4294,63.25,-8.75,42.01,1
4295,63.26,4.56,44.01,1
4296,63.28,19.71,43.03,1
4297,63.29,11.36,16.35,1
4298,63.3,-6.32,-11.33,1
4299,63.32,-14.23,4.99,1
4300,63.33,-1.0,24.05,1
4301,63.34,19.05,-6.49,1
4302,63.36,13.23,-26.01,1
4303,63.37,-8.8,0.04,1
4304,63.38,-11.46,1.05,1
4305,63.4,2.01,-29.76,1
4306,63.41,8.23,-42.32,1
4307,63.42,10.95,-36.04,1
4308,63.44,16.36,-14.24,1
4309,63.45,5.2,29.16,1
4310,63.46,-17.45,68.69,1
4311,63.48,-20.33,56.41,1
4312,63.49,-10.78,-4.37,1
4313,63.51,-10.82,-33.93,1
4314,63.52,-10.9,-3.41,1
4315,63.53,0.39,18.85,1
4316,63.54,11.55,-10.37,1
4317,63.56,8.22,-51.76,1
4318,63.57,-7.24,-39.6,1
4319,63.59,-24.37,19.81,1
4320,63.6,-30.25,44.06,1
4321,63.61,-16.95,12.51,1
4322,63.63,-4.19,-15.4,1
4323,63.64,-8.91,-16.74,1
4324,63.65,-7.99,-0.7,1
4325,63.67,6.87,20.6,1
4326,63.68,8.49,20.84,1
4327,63.69,1.48,15.75,1
4328,63.71,7.66,29.7,1
4329,63.72,12.91,28.98,1
4330,63.73,5.44,11.38,1
4331,63.75,-4.02,15.28,1
4332,63.76,-7.81,21.06,1
4333,63.77,3.12,-2.18,1
4334,63.78,26.09,-21.5,1
4335,63.8,33.53,-2.14,1
4336,63.81,12.24,17.62,1
4337,63.82,-10.01,-8.35,1
4338,63.84,-3.0,-44.7,1
4339,63.85,13.55,-46.76,1
4340,63.86,3.79,-32.55,1
4341,63.88,-16.05,-26.37,1
4342,63.89,-13.63,-30.28,1
4343,63.9,-0.58,-32.83,1
4344,63.92,3.61,-22.55,1
4345,63.93,3.29,-17.92,1
4346,63.94,3.35,-22.28,1
4347,63.96,1.15,-2.25,1
4348,63.97,-8.8,16.99,1
4349,63.98,-25.83,-14.02,1
4350,64.0,-31.24,-50.09,1
4351,64.01,-9.3,-40.49,1
4352,64.02,16.15,-14.47,1
4353,64.04,7.84,-7.15,1
4354,64.05,-16.47,-18.79,1
4355,64.06,-13.76,-21.11,1
4356,64.08,3.55,-2.35,1
4357,64.09,6.04,11.62,1
4358,64.1,3.41,14.37,1
4359,64.12,4.42,10.53,1
4360,64.13,3.67,9.73,1
4361,64.14,2.5,31.03,1
4362,64.16,3.33,44.5,0
4363,64.17,7.82,21.69,0
4364,64.18,10.31,3.52,0
4365,64.2,7.77,6.77,0
4366,64.21,8.54,-29.65,0
4367,64.22,3.31,-123.9,0
4368,64.24,-12.95,-182.83,0
4369,64.25,-13.39,-152.04,0
4370,64.26,4.47,-104.8,0
4371,64.28,8.3,-112.32,0
4372,64.29,-1.88,-152.05,0
4373,64.3,0.45,-162.57,0
4374,64.32,8.14,-122.8,0
4375,64.33,-0.79,-61.53,0
4376,64.34,-16.57,-9.79,0
4377,64.36,-19.28,27.67,0
4378,64.37,-6.65,55.93,0
4379,64.38,10.44,76.1,0
4380,64.4,16.46,91.65,0
4381,64.41,10.8,102.8,0
4382,64.42,7.08,105.06,0
4383,64.44,7.74,104.52,0
4384,64.45,7.62,107.29,0
4385,64.46,4.54,103.72,0
4386,64.48,1.31,95.92,0
4387,64.49,3.8,102.02,0
4388,64.5,8.92,109.76,0
4389,64.52,9.31,91.58,0
4390,64.53,3.16,61.41,0
4391,64.54,-5.73,47.29,0
4392,64.56,-10.22,45.27,1
4393,64.57,-7.43,46.61,1
4394,64.58,-3.55,51.74,1
4395,64.6,-6.47,49.41,1
4396,64.61,-10.86,34.6,1
4397,64.62,-7.12,24.98,1
4398,64.64,-0.27,30.38,1
4399,64.65,6.13,38.93,1
4400,64.66,13.5,38.0,1
4401,64.68,9.16,27.98,1
4402,64.69,-8.32,21.35,1
4403,64.7,-12.43,22.3,1
4404,64.72,2.16,21.55,1
4405,64.73,10.34,21.65,1
4406,64.74,4.62,25.36,1
4407,64.76,-2.43,19.4,1
4408,64.77,-5.13,5.08,1
4409,64.79,-7.03,-3.2,1
4410,64.8,-8.35,-7.94,1
4411,64.81,-5.49,-12.81,1
4412,64.82,0.78,-12.63,1
4413,64.84,4.96,-11.49,1
4414,64.85,4.38,-13.08,1
4415,64.86,1.37,-12.79,1
4416,64.88,-2.86,-12.18,1
4417,64.89,-6.18,-13.42,1
4418,64.9,-3.07,-17.33,1
4419,64.92,4.29,-29.41,1
4420,64.93,5.23,-38.67,1
4421,64.94,-1.43,-26.24,1
4422,64.96,0.05,-6.67,1
4423,64.97,13.12,-8.21,1
4424,64.98,14.82,-23.18,1
4425,65.0,1.1,-26.89,1
4426,65.01,-4.6,-18.04,1
4427,65.02,-3.41,-13.67,1
4428,65.04,-10.71,-20.68,1
4429,65.05,-15.52,-27.99,1
4430,65.06,-5.26,-29.04,1
4431,65.08,8.4,-27.68,1
4432,65.09,12.77,-27.56,1
4433,65.1,4.39,-34.25,1
4434,65.12,-9.79,-38.59,1
4435,65.13,-15.03,-27.39,1
4436,65.14,-9.02,-19.88,1
4437,65.16,0.23,-27.64,1
4438,65.17,7.73,-25.96,1
4439,65.18,7.79,-11.64,1
4440,65.2,-2.94,-14.67,1
4441,65.21,-14.02,-36.98,1
4442,65.22,-9.68,-40.82,1
4443,65.24,3.3,-18.72,1
4444,65.25,8.84,-8.25,1
4445,65.26,8.95,-19.97,1
4446,65.28,5.88,-28.61,1
4447,65.29,0.74,-26.91,1
4448,65.3,0.44,-26.07,1
4449,65.32,-2.6,-25.62,1
4450,65.33,-13.67,-20.17,1
4451,65.34,-14.84,-15.82,1
4452,65.36,0.43,-20.4,1
4453,65.37,11.97,-22.09,1
4454,65.38,10.08,-8.58,1
4455,65.4,6.04,2.34,1
4456,65.41,4.12,-3.35,1
4457,65.43,1.25,-10.43,1
4458,65.44,0.65,-6.44,1
4459,65.45,3.88,2.7,1
4460,65.46,5.63,4.49,1
4461,65.48,1.5,-5.17,1
4462,65.49,-2.0,-14.14,1
4463,65.5,2.6,-10.6,1
4464,65.52,7.07,-1.09,1
4465,65.53,3.0,-0.09,1
4466,65.54,-2.97,-5.68,1
4467,65.56,-4.44,-4.32,1
4468,65.57,-1.36,1.2,1
4469,65.58,3.09,0.56,1
4470,65.6,1.25,-0.92,1
4471,65.61,-7.29,-0.19,1
4472,65.62,-7.55,-5.23,1
4473,65.64,7.24,-9.59,1
4474,65.65,19.94,-3.56,1
4475,65.66,16.71,2.86,1
4476,65.68,3.62,0.8,1
4477,65.69,-6.11,-3.95,1
4478,65.7,-5.53,-1.9,1
4479,65.72,-1.9,12.36,1
4480,65.73,-3.59,25.59,1
4481,65.74,-8.13,17.89,1
4482,65.76,-10.99,4.78,1
4483,65.77,-8.05,14.19,1
4484,65.78,0.03,31.13,1
4485,65.8,0.74,29.24,1
4486,65.81,-6.01,17.26,1
4487,65.82,-4.08,7.39,1
4488,65.84,2.08,-0.16,1
4489,65.85,-2.76,2.26,1
4490,65.86,-8.92,11.46,1
4491,65.88,-2.9,9.86,1
4492,65.89,8.34,0.1,1
4493,65.9,10.97,-3.09,1
4494,65.92,1.25,-3.03,1
4495,65.93,-9.79,-2.89,1
4496,65.94,-9.11,7.02,1
4497,65.96,-0.18,21.79,1
4498,65.97,2.63,22.16,1
4499,65.98,-1.24,6.78,1
4500,66.0,0.45,-7.48,1
4501,66.01,6.89,-9.11,1
4502,66.02,9.79,-3.11,1
4503,66.04,8.73,-1.0,1
4504,66.05,5.35,-0.44,1
4505,66.06,0.96,5.96,1
4506,66.08,-5.41,10.78,1
4507,66.09,-12.49,6.94,1
4508,66.11,-10.61,1.72,1
4509,66.12,-5.42,0.3,1
4510,66.13,-11.92,2.68,1
4511,66.14,-18.97,10.59,1
4512,66.16,-14.31,17.18,0
4513,66.17,-9.27,12.49,0
4514,66.18,-4.86,-2.89,0
4515,66.2,8.32,-39.95,0
4516,66.21,20.06,-103.2,0
4517,66.22,15.21,-150.18,0
4518,66.24,3.61,-149.11,0
4519,66.25,6.52,-128.04,0
4520,66.26,18.76,-113.95,0
4521,66.28,21.59,-101.49,0
4522,66.29,23.46,-83.06,0
4523,66.3,33.66,-58.54,0
4524,66.32,33.12,-38.18,0
4525,66.33,12.38,-30.53,0
4526,66.34,-8.96,-24.07,0
4527,66.36,-14.85,-10.06,0
4528,66.37,-11.91,5.46,0
4529,66.38,-12.45,21.67,0
4530,66.4,-13.82,43.5,0
4531,66.41,-13.66,68.48,0
4532,66.42,-18.35,87.43,0
4533,66.44,-22.87,101.44,0
4534,66.45,-22.09,115.52,0
4535,66.46,-19.35,118.32,0
4536,66.48,-10.91,110.33,0
4537,66.49,0.16,110.89,0
4538,66.5,0.74,116.82,0
4539,66.52,-10.89,113.52,0
4540,66.53,-18.3,111.0,0
4541,66.54,-6.02,125.11,0
4542,66.56,9.03,142.36,1
4543,66.57,4.16,134.88,1
4544,66.58,-5.57,108.95,1
4545,66.6,-0.24,99.78,1
4546,66.61,12.87,108.1,1
4547,66.62,16.77,99.06,1
4548,66.64,5.92,71.56,1
4549,66.65,-6.91,57.24,1
4550,66.66,-4.53,58.4,1
4551,66.68,9.89,54.32,1
4552,66.69,13.93,44.28,1
4553,66.7,0.11,37.14,1
4554,66.72,-12.44,28.82,1
4555,66.73,-9.52,17.13,1
4556,66.75,2.63,8.03,1
4557,66.76,8.7,0.23,1
4558,66.77,1.34,-9.48,1
4559,66.79,0.39,-14.32,1
4560,66.8,22.75,-10.17,1
4561,66.81,34.35,-5.1,1
4562,66.82,5.26,-7.92,1
4563,66.84,-26.95,-12.29,1
4564,66.85,-22.87,-10.32,1
4565,66.86,-0.98,-13.51,1
4566,66.88,6.03,-29.27,1
4567,66.89,-1.03,-41.56,1
4568,66.9,-4.0,-42.28,1
4569,66.92,-0.18,-44.53,1
4570,66.93,2.49,-50.21,1
4571,66.94,4.1,-47.9,1
4572,66.96,6.25,-41.16,1
4573,66.97,2.95,-39.7,1
4574,66.98,-6.47,-41.89,1
4575,67.0,-6.28,-44.68,1
4576,67.01,12.26,-48.99,1
4577,67.02,27.49,-54.82,1
4578,67.04,19.2,-60.59,1
4579,67.05,1.14,-64.37,1
4580,67.06,-9.12,-61.57,1
4581,67.08,-14.77,-50.16,1
4582,67.09,-15.6,-41.63,1
4583,67.1,-4.63,-43.0,1
4584,67.12,9.65,-42.69,1
4585,67.13,13.37,-37.85,1
4586,67.14,6.65,-39.41,1
4587,67.16,0.36,-45.68,1
4588,67.17,2.53,-48.6,1
4589,67.18,7.08,-49.61,1
4590,67.2,6.12,-48.31,1
4591,67.21,1.73,-40.15,1
4592,67.22,-2.65,-32.95,1
4593,67.24,-1.64,-36.07,1
4594,67.25,5.15,-38.24,1
4595,67.26,5.63,-28.42,1
4596,67.28,-2.47,-19.56,1
4597,67.29,-4.82,-23.77,1
4598,67.3,3.34,-31.16,1
4599,67.32,8.84,-30.12,1
4600,67.33,3.48,-28.45,1
4601,67.34,-3.01,-33.96,1
4602,67.36,-4.68,-34.38,1
4603,67.37,-6.87,-22.99,1
4604,67.38,-6.83,-15.67,1
4605,67.4,-3.13,-22.01,1
4606,67.41,-5.9,-31.02,1
4607,67.43,-10.8,-28.1,1
4608,67.44,-5.1,-15.15,1
4609,67.45,0.54,-7.74,1
4610,67.46,-4.0,-8.45,1
4611,67.48,-5.52,-9.31,1
4612,67.49,-0.92,-12.14,1
4613,67.5,0.29,-15.48,1
4614,67.52,2.71,-10.36,1
4615,67.53,5.81,1.02,1
4616,67.54,-1.45,8.34,1
4617,67.56,-10.65,3.92,1
4618,67.57,-9.73,-7.99,1
4619,67.58,-2.19,-8.76,1
4620,67.6,6.15,3.46,1
4621,67.61,13.13,4.91,1
4622,67.62,15.43,-3.9,1
4623,67.64,6.26,0.06,1
4624,67.65,-8.23,9.71,1
4625,67.66,-9.42,9.35,1
4626,67.68,2.76,7.77,1
4627,67.69,12.55,9.09,1
4628,67.7,12.37,8.88,1
4629,67.72,5.3,13.43,1
4630,67.73,-1.06,21.22,1
4631,67.74,-5.26,16.17,1
4632,67.76,-10.07,2.5,1
4633,67.77,-9.03,3.0,1
4634,67.78,-2.38,17.56,1
4635,67.8,-2.21,27.22,1
4636,67.81,-4.42,23.34,1
4637,67.82,-1.3,11.91,1
4638,67.84,-1.43,6.26,1
4639,67.85,-5.8,11.07,1
4640,67.86,-5.56,17.66,1
4641,67.88,-1.32,17.01,1
4642,67.89,0.07,9.48,1
4643,67.9,-1.95,5.79,1
4644,67.92,-0.6,10.14,1
4645,67.93,-0.34,11.18,1
4646,67.94,-8.19,7.68,1
4647,67.96,-10.07,10.88,1
4648,67.97,-0.43,19.73,1
4649,67.98,1.6,22.48,1
4650,68.0,-5.94,15.71,1
4651,68.01,-7.32,9.36,1
4652,68.02,-1.59,13.67,1
4653,68.04,-1.22,23.38,1
4654,68.05,-7.58,26.9,1
4655,68.06,-6.36,23.65,1
4656,68.08,1.31,20.05,1
4657,68.09,0.9,18.68,1
4658,68.11,-2.1,17.63,1
4659,68.12,1.37,15.59,1
4660,68.13,5.55,15.83,1
4661,68.14,6.81,18.19,1
4662,68.16,7.8,19.32,2
4663,68.17,3.37,20.7,2
4664,68.18,-11.3,19.24,2
4665,68.2,-17.95,12.4,2
4666,68.21,-3.1,14.11,2
4667,68.22,12.04,44.66,2
4668,68.24,12.26,114.87,2
4669,68.25,7.86,210.58,2
4670,68.26,4.64,286.49,2
4671,68.28,2.51,303.72,2
4672,68.29,4.38,267.33,2
4673,68.3,11.28,205.4,2
4674,68.32,13.73,138.89,2
4675,68.33,3.55,79.49,2
4676,68.34,-4.45,26.65,2
4677,68.36,-1.51,-23.56,2
4678,68.37,-4.72,-73.06,2
4679,68.38,-16.57,-126.67,2
4680,68.4,-20.53,-177.16,2
4681,68.41,-14.27,-205.79,2
4682,68.42,-7.55,-206.38,2
4683,68.44,-4.81,-190.05,2
4684,68.45,-4.02,-174.9,2
4685,68.46,-1.02,-162.24,2
4686,68.48,1.79,-142.13,2
4687,68.49,-0.99,-125.11,2
4688,68.5,-2.18,-123.95,2
4689,68.52,6.04,-122.61,2
4690,68.53,12.63,-105.03,2
4691,68.54,8.96,-87.75,2
4692,68.56,5.07,-88.35,1
4693,68.57,9.58,-88.11,1
4694,68.58,17.06,-71.26,1
4695,68.6,16.87,-59.49,1
4696,68.61,7.84,-65.11,1
4697,68.62,1.99,-68.4,1
4698,68.64,3.49,-56.04,1
4699,68.65,4.26,-36.52,1
4700,68.66,5.75,-23.76,1
4701,68.68,6.84,-20.84,1
4702,68.69,-1.03,-17.1,1
4703,68.7,-8.15,-5.51,1
4704,68.72,-5.07,0.26,1
4705,68.73,0.8,-9.23,1
4706,68.75,6.71,-12.8,1
4707,68.76,12.49,4.18,1
4708,68.77,13.35,18.78,1
4709,68.79,8.06,14.37,1
4710,68.8,3.64,7.76,1
4711,68.81,9.85,12.37,1
4712,68.82,20.92,21.88,1
4713,68.84,21.24,31.31,1
4714,68.85,10.35,37.24,1
4715,68.86,-1.38,35.01,1
4716,68.88,-7.81,32.08,1
4717,68.89,-7.68,36.95,1
4718,68.9,-3.67,41.53,1
4719,68.92,-0.31,35.88,1
4720,68.93,-1.74,24.45,1
4721,68.94,-6.05,19.51,1
4722,68.96,-7.1,27.93,1
4723,68.97,-6.61,40.58,1
4724,68.98,-8.49,39.68,1
4725,69.0,-7.49,29.27,1
4726,69.01,-3.26,32.84,1
4727,69.02,-6.27,49.97,1
4728,69.04,-16.31,56.14,1
4729,69.05,-20.64,43.95,1
4730,69.06,-14.39,27.63,1
4731,69.08,-2.06,16.86,1
4732,69.09,10.03,19.42,1
4733,69.1,13.78,36.67,1
4734,69.12,7.06,48.28,1
4735,69.13,-6.5,43.88,1
4736,69.14,-20.2,37.28,1
4737,69.16,-20.63,33.48,1
4738,69.17,-6.01,29.49,1
4739,69.18,2.01,28.63,1
4740,69.2,-7.78,31.63,1
4741,69.21,-14.5,38.35,1
4742,69.22,-2.87,45.96,1
4743,69.24,6.82,43.06,1
4744,69.25,0.57,28.27,1
4745,69.26,0.21,21.73,1
4746,69.28,9.85,33.32,1
4747,69.29,2.65,38.84,1
4748,69.3,-16.75,21.81,1
4749,69.32,-20.33,10.86,1
4750,69.33,-8.45,24.79,1
4751,69.34,3.61,31.65,1
4752,69.36,10.14,12.19,1
4753,69.37,11.45,-4.83,1
4754,69.38,6.7,-0.37,1
4755,69.4,-2.3,9.29,1
4756,69.41,-6.76,11.11,1
4757,69.43,-6.82,9.54,1
4758,69.44,-9.31,7.15,1
4759,69.45,-3.99,5.8,1
4760,69.46,15.93,10.11,1
4761,69.48,27.27,11.82,1
4762,69.49,12.91,-0.13,1
4763,69.5,-10.26,-12.09,1
4764,69.52,-18.45,-2.09,1
4765,69.53,-11.42,16.31,1
4766,69.54,-6.39,14.5,1
4767,69.56,-9.17,-2.59,1
4768,69.57,-9.87,-9.78,1
4769,69.58,-5.98,-2.48,1
4770,69.6,-1.07,4.44,1
4771,69.61,4.23,2.71,1
4772,69.62,9.17,-0.42,1
4773,69.64,15.37,0.46,1
4774,69.65,18.49,0.38,1
4775,69.66,8.51,-4.05,1
4776,69.68,-9.65,-11.77,1
4777,69.69,-16.24,-20.36,1
4778,69.7,-3.66,-22.06,1
4779,69.72,12.3,-15.17,1
4780,69.73,21.68,-12.9,1
4781,69.74,29.23,-16.02,1
4782,69.76,24.82,-11.05,1
4783,69.77,0.99,-5.27,1
4784,69.78,-12.29,-8.29,1
4785,69.8,4.17,-11.23,1
4786,69.81,14.37,-15.9,1
4787,69.82,-7.46,-26.75,1
4788,69.84,-28.73,-31.72,1
4789,69.85,-20.52,-25.79,1
4790,69.86,0.01,-17.16,1
4791,69.88,11.16,-9.22,1
4792,69.89,14.19,-2.21,1
4793,69.9,13.67,-1.9,1
4794,69.92,5.8,-10.64,1
4795,69.93,-4.02,-20.05,1
4796,69.94,-4.6,-23.7,1
4797,69.96,0.62,-26.45,1
4798,69.97,8.09,-31.7,1
4799,69.98,17.32,-27.92,1
4800,70.0,14.71,-11.07,1
4801,70.01,-1.2,-2.85,1
4802,70.02,-5.52,-12.07,1
4803,70.04,5.24,-15.35,1
4804,70.05,2.84,-3.01,1
4805,70.06,-13.83,1.64,1
4806,70.08,-16.46,-10.79,1
4807,70.09,-6.11,-18.5,1
4808,70.11,-6.66,-14.95,1
4809,70.12,-15.84,-17.79,1
4810,70.13,-13.58,-23.1,1
4811,70.14,2.57,-6.53,1
4812,70.16,14.59,28.67,2
4813,70.17,8.85,59.18,2
4814,70.18,-2.42,76.75,2
4815,70.2,-2.78,67.29,2
4816,70.21,-1.19,52.7,2
4817,70.22,-2.36,95.46,2
4818,70.24,5.16,143.44,2
4819,70.25,8.76,81.03,2
4820,70.26,-3.49,-56.16,2
4821,70.28,-1.26,-112.39,2
4822,70.29,22.75,-25.15,2
4823,70.3,24.1,62.5,2
4824,70.32,-3.22,12.54,2
4825,70.33,-12.92,-82.31,2
4826,70.34,6.95,-70.68,2
4827,70.36,20.64,4.44,2
4828,70.37,15.94,-4.07,2
4829,70.38,10.76,-62.99,2
4830,70.4,7.99,-35.75,2
4831,70.41,2.49,21.1,2
4832,70.42,-0.5,-1.81,2
4833,70.44,1.63,-55.26,2
4834,70.45,-1.69,-80.31,2
4835,70.46,-12.96,-81.4,2
4836,70.48,-16.11,-65.03,2
4837,70.49,-19.33,-55.23,2
4838,70.5,-35.51,-68.49,2
4839,70.52,-37.88,-72.56,2
4840,70.53,-16.45,-45.25,2
4841,70.54,0.85,-24.04,2
4842,70.56,-0.54,-55.54,1
4843,70.57,-13.39,-104.85,1
4844,70.58,-21.38,-95.25,1
4845,70.6,-10.75,-49.28,1
4846,70.61,4.98,-48.0,1
4847,70.62,3.16,-71.55,1
4848,70.64,-4.42,-53.66,1
4849,70.65,-0.11,-25.23,1
4850,70.66,2.64,-31.6,1
4851,70.68,-7.21,-39.77,1
4852,70.69,-15.36,-23.6,1
4853,70.7,-4.87,16.56,1
4854,70.72,14.35,53.24,1
4855,70.73,16.07,28.27,1
4856,70.75,1.75,-15.9,1
