,Timestamp,Data1,Data2,Label
0,6.0,4.86,-4.31,1
1,6.01,-1.82,-2.77,1
2,6.03,-4.65,1.84,1
3,6.04,-10.75,-0.06,1
4,6.05,-10.27,0.22,1
5,6.07,0.36,5.94,1
6,6.08,2.49,7.43,1
7,6.09,-3.24,8.9,1
8,6.11,-0.04,10.74,1
9,6.12,2.07,7.01,1
10,6.13,-9.12,5.66,1
11,6.15,-14.5,10.56,2
12,6.16,-2.63,12.98,2
13,6.17,12.75,5.21,2
14,6.19,18.29,-21.68,2
15,6.2,14.73,-48.23,2
16,6.21,17.88,-10.76,2
17,6.23,21.02,88.05,2
18,6.24,3.47,150.64,2
19,6.25,7.7,156.93,2
20,6.265,63.28,184.43,2
21,6.28,82.68,244.74,2
22,6.29,11.96,247.18,2
23,6.31,-49.61,119.15,2
24,6.32,-8.21,-2.48,2
25,6.33,58.69,107.46,2
26,6.35,21.28,268.63,2
27,6.36,-66.21,126.45,2
28,6.37,-56.96,-67.65,2
29,6.39,1.23,88.16,2
30,6.4,-26.84,302.04,2
31,6.41,-85.62,224.12,2
32,6.43,-69.08,75.75,2
33,6.44,-22.67,71.21,2
34,6.45,-11.02,93.15,2
35,6.47,-11.34,49.95,2
36,6.48,1.06,-16.58,2
37,6.49,11.64,-86.76,2
38,6.51,4.29,-145.11,2
39,6.52,-18.23,-187.91,2
40,6.53,-33.95,-239.7,2
41,6.55,-31.14,-272.04,2
42,6.56,-19.45,-296.89,1
43,6.57,2.22,-348.39,1
44,6.59,30.04,-344.45,1
45,6.6,44.39,-242.16,1
46,6.61,33.79,-187.11,1
47,6.63,-6.74,-281.02,1
48,6.64,-45.82,-333.25,1
49,6.65,-31.56,-186.35,1
50,6.67,8.91,-55.67,1
51,6.68,13.56,-129.48,1
52,6.69,4.42,-239.12,1
53,6.71,22.55,-215.49,1
54,6.72,29.52,-142.48,1
55,6.73,-1.27,-133.21,1
56,6.75,-16.21,-167.31,1
57,6.76,0.71,-162.75,1
58,6.77,-4.29,-87.99,1
59,6.79,-27.85,-2.96,1
60,6.8,-15.74,20.8,1
61,6.81,21.1,-12.69,1
62,6.82,26.89,-54.2,1
63,6.84,-4.45,-70.09,1
64,6.85,-31.57,-57.87,1
65,6.86,-28.92,-57.52,1
66,6.88,-12.44,-75.83,1
67,6.89,-1.31,-51.07,1
68,6.91,4.48,6.87,1
69,6.92,-4.73,21.26,1
70,6.93,-21.52,-2.04,1
71,6.95,-14.79,-8.25,1
72,6.96,6.25,-2.0,1
73,6.97,13.8,-8.23,1
74,6.99,10.84,-14.09,1
75,7.0,11.39,7.16,1
76,7.01,20.66,57.12,1
77,7.03,26.01,72.82,1
78,7.04,9.93,28.88,1
79,7.05,-10.17,27.99,1
80,7.07,-7.33,95.46,1
81,7.08,0.38,77.43,1
82,7.09,1.1,-44.26,1
83,7.11,15.14,-41.62,1
84,7.12,24.04,103.48,1
85,7.13,-0.19,128.51,1
86,7.15,-21.21,42.53,1
87,7.16,-8.11,53.13,1
88,7.17,6.7,109.01,1
89,7.19,2.97,101.85,1
90,7.2,4.61,85.05,1
91,7.21,21.81,75.83,1
92,7.23,38.36,66.74,1
93,7.24,37.2,117.3,1
94,7.25,10.49,195.99,1
95,7.27,-21.24,172.86,1
96,7.28,-25.4,52.61,1
97,7.29,-9.38,-14.33,1
98,7.31,-1.31,17.21,1
99,7.32,-1.2,64.72,1
100,7.33,9.1,103.38,1
101,7.35,28.06,122.18,1
102,7.36,36.46,85.03,1
103,7.37,30.38,68.31,1
104,7.39,17.3,132.14,1
105,7.4,-2.15,156.79,1
106,7.41,-14.72,83.24,1
107,7.43,-2.69,27.39,1
108,7.44,14.75,60.35,1
109,7.45,14.14,107.99,1
110,7.47,6.24,60.89,1
111,7.48,-7.5,-32.15,1
112,7.49,-24.27,-9.06,1
113,7.51,-20.67,87.55,1
114,7.52,-14.14,73.8,1
115,7.53,-25.16,9.8,1
116,7.55,-16.68,70.01,1
117,7.56,17.66,169.3,1
118,7.57,31.99,139.95,1
119,7.59,24.19,36.2,1
120,7.6,19.47,-6.66,1
121,7.61,10.45,14.61,1
122,7.63,0.44,36.84,1
123,7.64,5.73,39.88,1
124,7.65,9.14,21.94,1
125,7.67,10.98,6.64,1
126,7.68,26.66,54.92,1
127,7.69,24.31,149.01,1
128,7.71,2.27,156.26,1
129,7.72,0.59,24.79,1
130,7.73,4.61,-84.21,1
131,7.75,-15.71,-34.86,1
132,7.76,-45.63,47.86,1
133,7.77,-50.09,18.8,1
134,7.79,-18.7,-21.08,1
135,7.8,2.42,15.72,1
136,7.81,-22.99,15.72,1
137,7.83,-46.39,-34.9,1
138,7.84,-24.93,-37.57,1
139,7.85,4.98,-28.15,1
140,7.87,9.96,-33.07,1
141,7.88,2.71,-13.59,1
142,7.89,-0.02,-36.68,1
143,7.91,-0.59,-95.47,1
144,7.92,-7.18,-46.23,1
145,7.93,-9.15,57.24,1
146,7.95,2.9,41.28,1
147,7.96,15.73,-38.07,1
148,7.97,11.26,-25.55,1
149,7.99,-12.15,38.69,1
150,8.0,-25.57,15.99,1
151,8.01,-13.54,-65.67,1
152,8.03,-2.29,-68.86,1
153,8.04,-5.35,5.94,1
154,8.05,-13.37,41.13,1
155,8.07,-16.96,-4.55,1
156,8.08,-6.26,-48.48,1
157,8.09,17.03,-28.82,1
158,8.1,41.58,-9.12,1
159,8.12,60.37,-17.51,1
160,8.13,61.44,29.92,1
161,8.15,33.18,82.03,0
162,8.16,-9.2,-11.04,0
163,8.17,-34.02,-132.42,0
164,8.19,-28.36,-75.22,0
165,8.2,-10.77,25.76,0
166,8.21,1.28,-19.0,0
167,8.23,14.08,-79.72,0
168,8.24,23.55,-36.88,0
169,8.25,13.63,-2.89,0
170,8.27,-2.41,-32.71,0
171,8.28,-3.65,-82.09,0
172,8.29,3.81,-161.97,0
173,8.31,3.35,-244.96,0
174,8.32,-5.66,-255.54,0
175,8.33,-8.01,-203.89,0
176,8.35,1.94,-165.14,0
177,8.36,12.65,-176.39,0
178,8.37,15.25,-193.4,0
179,8.39,9.82,-159.73,0
180,8.4,1.31,-91.47,0
181,8.41,-6.6,-27.18,0
182,8.43,-14.43,24.53,0
183,8.44,-20.57,50.37,0
184,8.45,-21.51,48.82,0
185,8.47,-15.61,50.96,0
186,8.48,-4.6,61.62,0
187,8.49,0.82,65.79,0
188,8.51,-4.49,71.91,0
189,8.52,-8.44,75.09,0
190,8.53,-3.1,63.0,0
191,8.55,0.96,53.49,1
192,8.56,-3.2,53.26,1
193,8.57,-0.79,43.21,1
194,8.59,9.76,23.25,1
195,8.6,5.98,12.92,1
196,8.61,-7.51,22.57,1
197,8.63,-8.26,41.85,1
198,8.64,-2.01,50.16,1
199,8.65,-1.44,45.69,1
200,8.67,-3.14,45.21,1
201,8.68,-5.91,49.66,1
202,8.69,-11.3,51.8,1
203,8.71,-12.91,52.7,1
204,8.72,-9.23,46.52,1
205,8.73,-5.78,40.11,1
206,8.75,-1.66,48.09,1
207,8.76,2.61,49.43,1
208,8.77,1.52,30.31,1
209,8.78,-4.72,22.63,1
210,8.8,-11.51,34.87,1
211,8.81,-12.36,38.76,1
212,8.82,-3.34,31.86,1
213,8.84,5.84,27.81,1
214,8.85,4.67,24.02,1
215,8.864999999999998,-2.44,19.06,1
216,8.88,-6.71,17.09,1
217,8.89,-5.33,22.28,1
218,8.91,-5.24,37.51,1
219,8.92,-10.89,45.0,1
220,8.93,-10.25,28.8,1
221,8.95,1.13,12.02,1
222,8.96,5.6,13.48,1
223,8.97,-0.48,14.82,1
224,8.99,0.66,3.1,1
225,9.0,11.54,-9.5,1
226,9.01,12.44,-8.29,1
227,9.03,-5.11,2.34,1
228,9.04,-20.74,-0.03,1
229,9.05,-16.36,-16.09,1
230,9.07,-2.58,-21.62,1
231,9.08,5.69,-15.47,1
232,9.09,9.38,-10.17,1
233,9.11,9.6,-4.2,1
234,9.12,3.57,0.21,1
235,9.13,-2.02,2.04,1
236,9.15,-2.0,5.84,1
237,9.16,-3.98,0.2,1
238,9.17,-8.99,-17.45,1
239,9.19,-8.55,-25.44,1
240,9.2,-1.91,-22.92,1
241,9.21,6.65,-24.33,1
242,9.23,11.34,-22.87,1
243,9.24,3.86,-18.53,1
244,9.25,-8.2,-19.88,1
245,9.27,-3.94,-15.37,1
246,9.28,11.13,-8.12,1
247,9.29,13.63,-15.73,1
248,9.31,3.65,-21.26,1
249,9.32,-6.22,-11.69,1
250,9.33,-8.8,-7.34,1
251,9.35,-1.04,-10.56,1
252,9.36,5.29,-10.57,1
253,9.37,0.86,-9.99,1
254,9.39,-2.31,-8.61,1
255,9.4,3.34,-13.86,1
256,9.41,11.56,-28.4,1
257,9.43,13.51,-30.2,1
258,9.44,6.0,-24.71,1
259,9.45,1.87,-31.82,1
260,9.47,9.36,-33.37,1
261,9.48,11.98,-24.69,1
262,9.49,3.49,-24.38,1
263,9.51,1.05,-22.95,1
264,9.52,3.99,-15.41,1
265,9.53,-0.36,-14.71,1
266,9.55,-5.2,-13.33,1
267,9.56,-0.28,-9.34,1
268,9.57,8.79,-13.03,1
269,9.59,10.54,-11.7,1
270,9.6,6.38,-5.07,1
271,9.61,5.86,-9.41,1
272,9.63,6.54,-14.12,1
273,9.64,1.65,-15.0,1
274,9.65,-0.46,-20.41,1
275,9.67,5.93,-18.22,1
276,9.68,5.95,-13.25,1
277,9.69,-2.91,-19.24,1
278,9.71,-0.09,-16.07,1
279,9.72,11.52,0.33,1
280,9.73,9.1,1.89,1
281,9.75,-2.98,-9.04,1
282,9.76,-6.65,-7.63,1
283,9.77,-3.64,2.54,1
284,9.79,-1.34,2.82,1
285,9.8,0.39,-10.87,1
286,9.81,0.54,-26.58,1
287,9.83,-0.82,-25.15,1
288,9.84,-2.38,-9.88,1
289,9.85,-2.3,-3.9,1
290,9.87,2.59,-6.65,1
291,9.88,4.24,-6.8,1
292,9.89,-2.86,-6.59,1
293,9.91,-4.86,-7.04,1
294,9.92,2.59,-9.35,1
295,9.93,7.2,-12.3,1
296,9.95,4.88,-8.39,1
297,9.96,-1.56,-1.69,1
298,9.97,-6.36,-0.22,1
299,9.99,-2.26,0.51,1
300,10.0,3.63,1.14,1
301,10.01,2.77,-3.79,1
302,10.02,1.77,-8.71,1
303,10.04,3.02,-6.46,1
304,10.05,3.73,-1.74,1
305,10.06,7.03,1.77,1
306,10.08,9.06,6.78,1
307,10.09,3.36,11.69,1
308,10.1,-3.36,13.0,1
309,10.12,-4.65,11.81,1
310,10.13,-2.3,10.25,1
311,10.15,-0.14,5.85,0
312,10.16,0.71,-10.72,0
313,10.17,5.62,-32.6,0
314,10.19,12.15,-25.19,0
315,10.2,7.8,7.62,0
316,10.21,-1.3,8.33,0
317,10.23,-0.62,-41.68,0
318,10.24,2.29,-105.1,0
319,10.25,2.51,-141.77,0
320,10.27,12.16,-137.16,0
321,10.28,28.24,-120.14,0
322,10.29,41.56,-123.17,0
323,10.31,48.59,-129.64,0
324,10.32,38.13,-115.23,0
325,10.33,18.11,-91.6,0
326,10.35,18.3,-70.23,0
327,10.36,34.2,-44.29,0
328,10.37,26.55,-13.9,0
329,10.39,-10.91,15.64,0
330,10.4,-37.11,37.29,0
331,10.41,-23.22,44.86,0
332,10.43,7.44,57.48,0
333,10.44,6.15,90.44,0
334,10.45,-27.49,121.3,0
335,10.47,-44.83,140.93,0
336,10.48,-35.03,159.03,0
337,10.49,-25.75,163.72,0
338,10.51,-28.9,163.14,0
339,10.52,-38.52,180.13,0
340,10.53,-41.63,190.37,0
341,10.55,-37.04,174.3,1
342,10.56,-39.58,156.61,1
343,10.57,-49.92,145.53,1
344,10.59,-47.63,133.99,1
345,10.6,-30.46,124.85,1
346,10.61,-21.63,110.95,1
347,10.63,-23.66,93.64,1
348,10.64,-18.96,85.43,1
349,10.65,-12.53,80.01,1
350,10.67,-15.94,72.03,1
351,10.68,-20.77,62.25,1
352,10.69,-18.42,45.4,1
353,10.71,-10.38,30.5,1
354,10.72,-5.33,27.26,1
355,10.73,-4.67,24.75,1
356,10.75,-0.15,17.48,1
357,10.76,1.79,13.33,1
358,10.77,-4.95,12.91,1
359,10.78,-5.82,10.27,1
360,10.8,1.28,-0.11,1
361,10.81,4.57,-19.56,1
362,10.83,7.72,-29.65,1
363,10.84,13.16,-18.39,1
364,10.85,12.67,-13.77,1
365,10.87,9.35,-29.99,1
366,10.88,6.06,-39.08,1
367,10.89,-2.42,-30.71,1
368,10.91,-6.48,-22.31,1
369,10.92,3.5,-23.45,1
370,10.93,16.07,-32.82,1
371,10.95,21.33,-39.9,1
372,10.96,20.98,-42.71,1
373,10.97,16.01,-52.5,1
374,10.99,10.29,-59.14,1
375,11.0,12.66,-49.82,1
376,11.01,21.63,-42.65,1
377,11.03,21.22,-47.38,1
378,11.04,5.38,-51.94,1
379,11.05,-8.14,-51.21,1
380,11.07,-3.63,-42.31,1
381,11.08,7.43,-30.66,1
382,11.09,9.45,-36.19,1
383,11.11,6.92,-53.78,1
384,11.12,6.24,-60.57,1
385,11.13,9.29,-56.58,1
386,11.15,17.38,-48.9,1
387,11.16,23.26,-43.22,1
388,11.17,20.04,-48.47,1
389,11.19,13.83,-50.74,1
390,11.2,9.62,-36.76,1
391,11.21,6.12,-28.49,1
392,11.23,5.84,-34.16,1
393,11.24,8.5,-35.51,1
394,11.25,11.19,-35.33,1
395,11.27,14.8,-38.51,1
396,11.28,15.97,-31.99,1
397,11.29,12.45,-21.61,1
398,11.31,8.38,-22.92,1
399,11.32,5.06,-29.87,1
400,11.33,5.57,-34.88,1
401,11.35,8.69,-37.69,1
402,11.36,5.51,-33.67,1
403,11.37,1.98,-26.04,1
404,11.39,8.05,-23.33,1
405,11.4,11.74,-24.06,1
406,11.41,4.85,-23.87,1
407,11.43,1.48,-19.37,1
408,11.44,7.15,-13.53,1
409,11.45,7.98,-18.18,1
410,11.47,-1.86,-26.13,1
411,11.48,-9.68,-17.49,1
412,11.49,-4.3,-0.06,1
413,11.51,6.7,4.81,1
414,11.52,5.79,-6.01,1
415,11.53,-4.25,-18.99,1
416,11.55,-2.55,-17.12,1
417,11.56,9.49,-7.84,1
418,11.57,14.7,-10.35,1
419,11.59,12.47,-9.15,1
420,11.6,7.42,9.57,1
421,11.61,3.94,18.06,1
422,11.63,10.13,6.51,1
423,11.64,13.98,-1.5,1
424,11.65,1.7,-3.47,1
425,11.67,-7.09,-6.13,1
426,11.68,-2.04,-3.48,1
427,11.69,-5.94,-1.63,1
428,11.71,-22.1,-1.97,1
429,11.72,-26.59,10.08,1
430,11.73,-12.34,21.06,1
431,11.75,1.0,11.91,1
432,11.76,-0.83,3.28,1
433,11.77,-5.69,8.79,1
434,11.79,-3.7,14.03,1
435,11.8,-4.02,15.55,1
436,11.81,-9.19,14.49,1
437,11.83,-10.29,13.12,1
438,11.84,-5.96,22.95,1
439,11.85,-3.9,34.02,1
440,11.87,-8.66,30.77,1
441,11.88,-16.34,27.22,1
442,11.89,-17.17,28.21,1
443,11.91,-6.29,20.08,1
444,11.92,5.58,10.71,1
445,11.93,7.02,12.04,1
446,11.94,0.75,17.21,1
447,11.96,-6.84,19.75,1
448,11.97,-8.24,17.86,1
449,11.98,-1.59,16.83,1
450,12.0,-0.98,23.22,1
451,12.01,-7.14,24.04,1
452,12.02,-2.62,13.45,1
453,12.04,5.01,10.28,1
454,12.05,0.42,14.45,1
455,12.06,-5.58,14.5,1
456,12.08,-4.86,18.5,1
457,12.09,-0.65,20.43,1
458,12.1,4.86,9.59,1
459,12.12,3.2,7.15,1
460,12.13,-4.73,16.58,1
461,12.15,-3.25,15.01,2
462,12.16,5.35,19.67,2
463,12.17,2.23,69.05,2
464,12.19,-16.86,159.06,2
465,12.2,-38.42,250.57,2
466,12.21,-49.04,309.94,2
467,12.23,-46.06,329.51,2
468,12.24,-37.65,314.61,2
469,12.25,-31.22,263.54,2
470,12.27,-26.14,178.11,2
471,12.28,-22.81,76.26,2
472,12.29,-19.66,-19.09,2
473,12.31,-11.82,-89.3,2
474,12.32,-3.51,-131.01,2
475,12.33,2.86,-169.65,2
476,12.35,12.9,-219.94,2
477,12.36,22.4,-250.36,2
478,12.37,24.09,-240.63,2
479,12.39,21.88,-214.84,2
480,12.4,20.26,-192.78,2
481,12.41,20.07,-174.97,2
482,12.43,24.71,-161.46,2
483,12.44,28.18,-151.8,2
484,12.45,21.98,-145.86,2
485,12.47,17.69,-133.25,2
486,12.48,24.13,-105.05,2
487,12.49,25.51,-85.55,2
488,12.51,17.18,-90.76,2
489,12.52,21.07,-95.46,2
490,12.53,36.88,-86.2,2
491,12.55,34.63,-77.57,1
492,12.56,15.14,-73.47,1
493,12.57,8.82,-63.4,1
494,12.59,16.23,-44.5,1
495,12.6,16.21,-28.45,1
496,12.61,8.12,-21.3,1
497,12.63,0.99,-11.06,1
498,12.64,-4.55,4.92,1
499,12.65,-7.94,9.93,1
500,12.67,-5.31,2.9,1
501,12.68,-0.75,7.33,1
502,12.69,-1.83,20.89,1
503,12.71,-6.72,16.24,1
504,12.72,-13.6,7.47,1
505,12.73,-22.31,22.66,1
506,12.75,-19.96,41.29,1
507,12.76,-2.03,37.15,1
508,12.77,9.39,24.73,1
509,12.79,3.26,28.89,1
510,12.8,-4.01,46.29,1
511,12.81,-0.79,51.41,1
512,12.83,4.73,42.66,1
513,12.84,-0.51,43.58,1
514,12.85,-11.94,54.14,1
515,12.87,-13.0,56.25,1
516,12.88,-4.04,50.76,1
517,12.89,2.01,45.47,1
518,12.91,5.14,38.27,1
519,12.92,8.42,34.78,1
520,12.93,5.33,39.59,1
521,12.95,-2.23,41.41,1
522,12.96,-7.74,40.97,1
523,12.97,-13.79,48.12,1
524,12.99,-17.51,54.38,1
525,13.0,-12.46,53.92,1
526,13.01,-5.54,48.44,1
527,13.03,-5.6,37.98,1
528,13.04,-9.59,34.52,1
529,13.05,-10.72,38.49,1
530,13.07,-8.3,34.2,1
531,13.08,-5.38,31.2,1
532,13.09,-6.16,39.59,1
533,13.11,-8.31,40.55,1
534,13.12,-4.38,31.23,1
535,13.13,0.18,27.14,1
536,13.15,-4.99,27.81,1
537,13.16,-14.64,34.51,1
538,13.17,-14.17,40.16,1
539,13.19,-1.99,21.29,1
540,13.2,6.06,0.58,1
541,13.21,3.02,16.6,1
542,13.23,-0.76,39.26,1
543,13.24,-2.1,31.56,1
544,13.25,-5.18,16.01,1
545,13.27,-5.4,20.6,1
546,13.28,-1.3,34.01,1
547,13.29,0.4,28.26,1
548,13.31,-0.36,4.48,1
549,13.32,-1.53,-5.01,1
550,13.33,-6.04,7.79,1
551,13.35,-8.31,17.72,1
552,13.36,-4.4,16.19,1
553,13.37,-4.85,8.25,1
554,13.39,-10.66,-3.1,1
555,13.4,-10.29,-2.18,1
556,13.41,-1.49,13.93,1
557,13.43,8.11,19.52,1
558,13.44,9.53,6.47,1
559,13.45,1.04,-6.88,1
560,13.47,-6.19,-11.69,1
561,13.48,-2.81,-6.36,1
562,13.49,8.07,4.95,1
563,13.51,17.15,3.96,1
564,13.52,16.94,-9.35,1
565,13.53,7.72,-19.07,1
566,13.55,-2.47,-22.5,1
567,13.56,-7.38,-17.34,1
568,13.57,-6.62,-12.19,1
569,13.59,-4.34,-20.46,1
570,13.6,-3.72,-22.09,1
571,13.61,-0.02,-6.64,1
572,13.63,9.69,-1.02,1
573,13.64,13.28,-7.63,1
574,13.65,2.67,-6.22,1
575,13.67,-6.31,-2.02,1
576,13.68,-0.87,-0.58,1
577,13.69,8.43,4.35,1
578,13.71,11.74,-0.12,1
579,13.72,10.49,-17.21,1
580,13.73,7.95,-23.37,1
581,13.75,6.26,-18.62,1
582,13.76,2.86,-18.16,1
583,13.77,0.74,-16.5,1
584,13.79,7.66,-13.27,1
585,13.8,11.51,-13.3,1
586,13.81,-1.85,-11.27,1
587,13.83,-14.6,-11.73,1
588,13.84,-9.47,-16.74,1
589,13.85,-1.01,-20.88,1
590,13.86,-5.06,-27.46,1
591,13.88,-12.09,-28.53,1
592,13.89,-3.46,-16.84,1
593,13.9,16.17,-9.6,1
594,13.92,21.91,-12.53,1
595,13.93,7.07,-12.5,1
596,13.94,-9.33,-11.77,1
597,13.96,-10.74,-13.98,1
598,13.97,3.19,-14.82,1
599,13.98,19.65,-22.82,1
600,14.0,22.21,-32.78,1
601,14.01,7.48,-25.79,1
602,14.02,-10.89,-10.91,1
603,14.04,-18.09,-1.28,1
604,14.05,-12.01,3.19,1
605,14.07,-0.53,-6.33,1
606,14.08,8.29,-20.99,1
607,14.09,11.63,-19.34,1
608,14.11,15.07,-16.31,1
609,14.12,20.45,-24.19,1
610,14.13,15.93,-22.53,1
611,14.15,3.52,-11.45,2
612,14.16,-0.38,-11.21,2
613,14.17,-2.61,-21.53,2
614,14.19,-12.07,-19.55,2
615,14.2,-3.79,15.3,2
616,14.21,24.88,59.18,2
617,14.23,23.68,94.99,2
618,14.24,-18.71,147.1,2
619,14.25,-46.14,177.76,2
620,14.27,-30.46,133.02,2
621,14.28,-8.28,86.78,2
622,14.29,-15.13,107.75,2
623,14.31,-29.06,82.08,2
624,14.32,-10.57,-25.98,2
625,14.33,22.61,-30.77,2
626,14.35,33.37,79.13,2
627,14.36,25.55,115.44,2
628,14.37,10.64,40.71,2
629,14.39,-2.14,-35.39,2
630,14.4,2.42,-25.85,2
631,14.41,10.58,23.6,2
632,14.43,-1.25,2.18,2
633,14.44,-18.03,-68.93,2
634,14.45,-13.95,-97.52,2
635,14.47,5.79,-109.59,2
636,14.48,15.21,-153.04,2
637,14.49,-2.8,-153.42,2
638,14.51,-33.06,-90.65,2
639,14.52,-39.56,-72.23,2
640,14.53,-10.05,-100.64,2
641,14.55,26.77,-89.87,1
642,14.56,39.35,-53.43,1
643,14.57,28.7,-51.85,1
644,14.59,12.88,-90.36,1
645,14.6,0.28,-126.06,1
646,14.61,-5.19,-116.29,1
647,14.63,0.11,-60.06,1
648,14.64,4.44,1.34,1
649,14.65,-0.69,8.94,1
650,14.67,2.13,-45.01,1
651,14.68,10.88,-77.7,1
652,14.69,2.47,-56.26,1
653,14.71,-7.02,-51.37,1
654,14.72,-1.44,-65.73,1
655,14.73,-1.67,-42.97,1
656,14.75,-6.96,-13.52,1
657,14.76,2.83,-34.27,1
658,14.77,17.44,-89.66,1
659,14.79,15.72,-127.63,1
660,14.8,4.38,-94.29,1
661,14.81,5.44,-9.82,1
662,14.83,18.96,22.63,1
663,14.84,15.09,-3.24,1
664,14.85,-5.84,-10.9,1
665,14.87,1.44,-16.81,1
666,14.88,23.87,-53.35,1
667,14.89,6.7,-59.64,1
668,14.91,-19.46,-17.45,1
669,14.92,-5.59,-4.46,1
670,14.93,7.89,-21.36,1
671,14.95,-12.37,8.66,1
672,14.96,-27.92,70.51,1
673,14.97,-18.94,93.89,1
674,14.99,-14.12,80.59,1
675,15.0,-25.98,62.45,1
676,15.01,-31.68,39.14,1
677,15.03,-16.15,13.7,1
678,15.04,-2.95,2.38,1
679,15.05,-13.02,13.66,1
680,15.07,-17.35,46.78,1
681,15.08,1.92,73.84,1
682,15.09,16.66,61.07,1
683,15.11,15.91,18.64,1
684,15.12,8.76,-1.92,1
685,15.13,-2.88,18.68,1
686,15.15,-9.78,24.34,1
687,15.16,-6.08,7.0,1
688,15.17,2.86,27.27,1
689,15.19,8.21,64.12,1
690,15.2,0.57,65.39,1
691,15.21,-10.27,45.0,1
692,15.23,-9.39,27.51,1
693,15.24,-0.74,38.53,1
694,15.25,14.03,75.4,1
695,15.27,25.38,101.66,1
696,15.28,13.55,108.54,1
697,15.29,-3.72,70.79,1
698,15.31,-6.82,-0.98,1
699,15.32,-16.1,-3.37,1
700,15.33,-28.79,71.27,1
701,15.35,-15.29,107.89,1
702,15.36,14.45,59.74,1
703,15.37,27.07,-6.54,1
704,15.39,10.41,-12.88,1
705,15.4,-18.45,21.91,1
706,15.41,-21.83,41.44,1
707,15.43,-0.47,67.61,1
708,15.44,-3.52,111.99,1
709,15.45,-22.77,98.53,1
710,15.47,-8.37,12.21,1
711,15.48,5.79,-39.32,1
712,15.49,-18.87,-16.96,1
713,15.51,-24.55,10.13,1
714,15.52,9.37,32.67,1
715,15.53,23.63,64.51,1
716,15.55,6.6,56.84,1
717,15.56,-12.17,25.69,1
718,15.57,-16.87,42.35,1
719,15.59,0.63,65.49,1
720,15.6,16.47,41.56,1
721,15.61,5.83,16.51,1
722,15.63,-9.13,-0.59,1
723,15.64,-9.17,-35.62,1
724,15.65,4.81,-63.74,1
725,15.67,27.85,-55.49,1
726,15.68,32.13,-31.6,1
727,15.69,6.17,-22.17,1
728,15.71,-11.67,8.06,1
729,15.72,4.91,60.24,1
730,15.73,21.43,52.2,1
731,15.75,3.35,-11.08,1
732,15.76,-18.3,-38.25,1
733,15.77,-7.76,-3.33,1
734,15.78,17.44,45.15,1
735,15.8,22.71,61.88,1
736,15.81,-3.63,48.26,1
737,15.82,-27.28,22.83,1
738,15.84,-11.0,-12.34,1
739,15.85,18.24,-33.4,1
740,15.86,20.33,-12.11,1
741,15.88,3.29,16.77,1
742,15.89,-7.48,22.87,1
743,15.9,2.53,5.7,1
744,15.92,22.85,-39.29,1
745,15.93,21.41,-60.99,1
746,15.94,-3.98,-18.67,1
747,15.96,-17.75,34.45,1
748,15.97,-9.22,44.78,1
749,15.98,-4.53,18.32,1
750,16.0,-4.23,-12.87,1
751,16.01,10.33,-39.86,1
752,16.03,15.04,-64.51,1
753,16.04,-4.7,-66.64,1
754,16.05,-10.64,-43.5,1
755,16.07,-2.28,-44.73,1
756,16.08,-12.43,-76.95,1
757,16.09,-20.49,-65.57,1
758,16.11,0.01,-27.15,1
759,16.12,23.94,-27.67,1
760,16.13,27.42,-12.31,1
761,16.15,19.67,34.87,1
762,16.16,9.91,27.62,0
763,16.17,-6.63,-15.34,0
764,16.19,-20.15,-0.17,0
765,16.2,-11.6,41.19,0
766,16.21,5.58,-6.2,0
767,16.23,4.67,-130.25,0
768,16.24,-7.6,-196.96,0
769,16.25,-11.29,-165.65,0
770,16.27,-3.66,-141.73,0
771,16.28,6.05,-195.73,0
772,16.29,11.21,-253.8,0
773,16.31,19.06,-231.92,0
774,16.32,29.57,-162.78,0
775,16.33,20.47,-95.48,0
776,16.35,-6.77,-23.95,0
777,16.36,-21.1,38.09,0
778,16.37,-18.99,64.56,0
779,16.39,-17.78,72.24,0
780,16.4,-17.23,82.71,0
781,16.41,-12.71,91.83,0
782,16.42,-8.64,93.62,0
783,16.44,-9.49,91.7,0
784,16.45,-15.77,96.17,0
785,16.46,-19.05,108.27,0
786,16.48,-14.32,108.58,0
787,16.49,-9.65,90.34,0
788,16.5,-3.42,73.6,0
789,16.52,9.72,64.02,0
790,16.53,12.13,55.88,0
791,16.54,-2.05,57.13,0
792,16.56,-7.24,59.75,1
793,16.57,2.59,49.18,1
794,16.58,3.81,41.47,1
795,16.6,-5.34,50.68,1
796,16.61,-4.13,56.78,1
797,16.62,4.42,42.44,1
798,16.64,3.52,23.53,1
799,16.65,1.01,23.3,1
800,16.67,10.92,37.69,1
801,16.68,17.39,43.79,1
802,16.69,3.25,36.99,1
803,16.71,-10.4,29.52,1
804,16.72,-5.46,22.6,1
805,16.73,-1.1,16.54,1
806,16.75,-5.52,16.84,1
807,16.76,-1.27,17.37,1
808,16.77,7.54,14.95,1
809,16.79,4.7,15.63,1
810,16.8,-0.17,16.16,1
811,16.81,4.22,13.86,1
812,16.83,5.58,11.96,1
813,16.84,-1.92,8.26,1
814,16.85,-8.56,5.36,1
815,16.87,-8.7,6.97,1
816,16.88,-0.04,6.22,1
817,16.89,11.29,5.01,1
818,16.91,12.13,6.13,1
819,16.92,6.77,-3.3,1
820,16.93,7.09,-14.7,1
821,16.95,8.63,-9.62,1
822,16.96,2.78,-5.92,1
823,16.97,-7.88,-12.37,1
824,16.99,-10.88,-12.2,1
825,17.0,1.14,-10.67,1
826,17.01,14.51,-13.73,1
827,17.03,13.0,-10.62,1
828,17.04,1.71,-6.77,1
829,17.05,-6.87,-12.45,1
830,17.06,-5.92,-20.29,1
831,17.08,6.91,-24.92,1
832,17.09,20.12,-28.66,1
833,17.1,19.49,-26.51,1
834,17.12,8.34,-20.83,1
835,17.13,-0.14,-21.88,1
836,17.14,0.29,-24.58,1
837,17.16,2.84,-20.1,1
838,17.17,-1.25,-17.46,1
839,17.18,-8.25,-27.38,1
840,17.2,-9.56,-35.85,1
841,17.21,-5.55,-22.72,1
842,17.22,-1.41,-4.35,1
843,17.24,0.32,-11.48,1
844,17.25,-3.78,-33.15,1
845,17.26,-13.68,-37.62,1
846,17.28,-16.7,-22.15,1
847,17.29,-9.5,-4.31,1
848,17.3,-3.25,2.59,1
849,17.32,3.81,-8.27,1
850,17.33,13.65,-26.27,1
851,17.35,14.82,-33.56,1
852,17.36,6.23,-33.19,1
853,17.37,-5.34,-29.43,1
854,17.39,-12.87,-19.39,1
855,17.4,-4.99,-18.04,1
856,17.41,10.41,-27.61,1
857,17.43,11.19,-25.97,1
858,17.44,-0.16,-12.8,1
859,17.45,-6.95,-4.73,1
860,17.47,-4.82,-6.17,1
861,17.48,2.3,-15.61,1
862,17.49,8.52,-20.85,1
863,17.51,10.16,-10.31,1
864,17.52,10.01,-5.34,1
865,17.53,4.97,-19.64,1
866,17.55,-4.36,-27.19,1
867,17.56,-3.21,-18.9,1
868,17.57,2.73,-16.29,1
869,17.59,-5.43,-23.8,1
870,17.6,-12.58,-28.75,1
871,17.61,-2.86,-25.58,1
872,17.63,3.72,-11.61,1
873,17.64,-3.13,5.27,1
874,17.65,-5.01,9.2,1
875,17.67,3.08,4.02,1
876,17.68,6.17,-4.04,1
877,17.69,1.72,-13.02,1
878,17.7,-0.89,-8.78,1
879,17.72,-2.09,1.32,1
880,17.73,-5.7,-0.84,1
881,17.75,-9.62,-5.02,1
882,17.76,-12.91,-5.13,1
883,17.77,-14.48,-5.59,1
884,17.78,-8.19,-4.8,1
885,17.8,6.48,-6.31,1
886,17.81,12.63,-4.19,1
887,17.82,-1.97,10.41,1
888,17.84,-14.02,16.0,1
889,17.85,-2.74,2.6,1
890,17.86,9.17,1.01,1
891,17.88,2.95,12.79,1
892,17.89,-1.96,6.51,1
893,17.9,5.66,-4.98,1
894,17.92,10.25,2.48,1
895,17.93,3.87,11.01,1
896,17.94,-3.66,8.03,1
897,17.96,-3.4,1.1,1
898,17.97,2.62,-3.4,1
899,17.99,4.19,4.19,1
900,18.0,-3.29,12.89,1
901,18.01,-10.41,6.94,1
902,18.03,-8.04,5.93,1
903,18.04,-3.11,15.26,1
904,18.05,-5.23,14.47,1
905,18.07,-7.31,11.02,1
906,18.08,1.04,16.1,1
907,18.09,7.81,20.53,1
908,18.11,2.24,18.77,1
909,18.12,2.8,6.95,1
910,18.13,18.5,-5.45,1
911,18.15,24.81,-2.47,1
912,18.16,8.5,-1.32,0
913,18.17,-8.63,-11.67,0
914,18.19,-7.34,-9.53,0
915,18.2,4.01,3.06,0
916,18.21,9.5,7.84,0
917,18.23,5.88,2.02,0
918,18.24,1.1,-40.34,0
919,18.25,5.04,-117.71,0
920,18.27,22.24,-152.19,0
921,18.28,46.14,-122.16,0
922,18.29,61.22,-102.05,0
923,18.31,54.79,-120.37,0
924,18.32,31.3,-139.05,0
925,18.33,7.52,-136.0,0
926,18.34,-4.11,-114.73,0
927,18.36,-3.54,-83.11,0
928,18.37,-0.72,-45.13,0
929,18.38,-3.49,-4.78,0
930,18.4,-11.92,22.58,0
931,18.41,-25.08,36.85,0
932,18.42,-33.31,64.04,0
933,18.44,-28.7,100.8,0
934,18.45,-25.62,118.99,0
935,18.46,-35.35,132.8,0
936,18.48,-42.43,164.42,0
937,18.49,-37.75,196.61,0
938,18.5,-30.46,211.73,0
939,18.52,-21.02,203.71,0
940,18.53,-10.53,177.83,0
941,18.54,-9.13,162.49,0
942,18.56,-14.31,163.39,1
943,18.57,-20.49,155.58,1
944,18.58,-30.95,139.81,1
945,18.6,-39.92,128.66,1
946,18.61,-32.72,114.49,1
947,18.63,-11.5,96.21,1
948,18.64,1.4,76.31,1
949,18.65,-1.22,40.79,1
950,18.67,-0.07,-3.88,1
951,18.68,9.36,-24.44,1
952,18.69,11.92,-7.95,1
953,18.71,7.06,28.6,1
954,18.72,4.1,51.9,1
955,18.73,1.34,43.95,1
956,18.75,-5.12,27.07,1
957,18.76,-11.18,19.48,1
958,18.77,-11.69,15.04,1
959,18.79,-2.2,13.55,1
960,18.8,13.16,9.47,1
961,18.81,14.62,-2.99,1
962,18.83,-1.4,-3.15,1
963,18.84,-9.95,11.72,1
964,18.85,-2.32,9.53,1
965,18.87,6.93,-12.15,1
966,18.88,12.38,-25.65,1
967,18.89,12.86,-29.59,1
968,18.91,5.58,-36.55,1
969,18.92,-0.36,-41.91,1
970,18.93,-1.11,-37.99,1
971,18.95,-3.72,-29.19,1
972,18.96,-1.8,-27.41,1
973,18.97,9.75,-34.99,1
974,18.98,16.62,-40.03,1
975,19.0,12.5,-43.24,1
976,19.01,7.51,-54.88,1
977,19.02,4.6,-62.5,1
978,19.04,1.49,-56.88,1
979,19.05,0.6,-51.86,1
980,19.06,-0.83,-49.97,1
981,19.08,-3.24,-48.47,1
982,19.09,3.46,-51.79,1
983,19.1,15.73,-51.54,1
984,19.12,16.93,-44.88,1
985,19.13,9.29,-45.52,1
986,19.14,10.59,-53.02,1
987,19.16,20.7,-56.53,1
988,19.17,18.91,-53.31,1
989,19.18,4.76,-44.94,1
990,19.2,2.81,-41.48,1
991,19.21,11.74,-49.22,1
992,19.22,11.46,-49.21,1
993,19.24,5.24,-35.26,1
994,19.25,3.7,-34.04,1
995,19.265,2.45,-44.8,1
996,19.28,-0.43,-42.76,1
997,19.29,1.54,-35.33,1
998,19.31,5.03,-35.21,1
999,19.32,7.1,-38.35,1
1000,19.33,15.31,-45.8,1
1001,19.35,19.68,-46.83,1
1002,19.36,9.19,-31.39,1
1003,19.37,2.32,-20.14,1
1004,19.39,7.69,-23.09,1
1005,19.4,10.7,-26.36,1
1006,19.41,8.12,-29.36,1
1007,19.43,5.86,-34.56,1
1008,19.44,6.41,-35.4,1
1009,19.45,5.55,-31.05,1
1010,19.47,-1.66,-20.16,1
1011,19.48,-4.31,-6.28,1
1012,19.49,4.45,-2.63,1
1013,19.51,6.37,-5.71,1
1014,19.52,-2.85,-3.87,1
1015,19.53,-2.25,-3.59,1
1016,19.55,7.53,-9.72,1
1017,19.56,7.34,-12.79,1
1018,19.57,-0.61,-7.47,1
1019,19.59,-5.69,1.17,1
1020,19.6,-7.3,4.87,1
1021,19.61,-5.93,2.27,1
1022,19.62,-4.97,1.14,1
1023,19.64,-8.53,4.41,1
1024,19.65,-13.47,4.64,1
1025,19.67,-14.73,1.79,1
1026,19.68,-8.74,4.82,1
1027,19.69,1.08,8.21,1
1028,19.7,6.01,5.82,1
1029,19.72,8.05,3.62,1
1030,19.73,11.67,-1.29,1
1031,19.75,9.98,-6.06,1
1032,19.76,2.16,0.52,1
1033,19.77,-4.57,7.11,1
1034,19.78,-10.82,5.8,1
1035,19.8,-16.03,9.36,1
1036,19.81,-14.75,16.59,1
1037,19.82,-9.42,20.28,1
1038,19.84,-6.74,23.02,1
1039,19.85,-5.25,21.95,1
1040,19.86,-0.11,19.84,1
1041,19.88,4.44,20.97,1
1042,19.89,3.74,12.45,1
1043,19.9,3.43,-2.51,1
1044,19.92,0.69,-1.95,1
1045,19.93,-9.65,11.15,1
1046,19.95,-13.26,22.25,1
1047,19.96,-3.89,28.52,1
1048,19.97,1.77,27.4,1
1049,19.99,-1.94,25.08,1
1050,20.0,-2.47,28.77,1
1051,20.01,0.3,25.09,1
1052,20.03,-6.58,10.69,1
1053,20.04,-15.79,7.08,1
1054,20.05,-12.67,13.88,1
1055,20.07,-4.65,12.1,1
1056,20.08,-0.05,7.17,1
1057,20.09,1.28,10.53,1
1058,20.11,-3.22,18.82,1
1059,20.12,-5.04,24.19,1
1060,20.13,6.3,19.67,1
1061,20.15,19.12,17.57,1
1062,20.16,17.02,27.75,2
1063,20.17,3.36,26.51,2
1064,20.19,-6.74,8.08,2
1065,20.2,-4.73,0.75,2
1066,20.21,2.35,7.96,2
1067,20.23,0.24,21.07,2
1068,20.24,-9.83,58.57,2
1069,20.25,-20.02,144.39,2
1070,20.26,-37.98,267.64,2
1071,20.28,-61.14,368.33,2
1072,20.29,-70.8,391.13,2
1073,20.3,-64.35,348.48,2
1074,20.32,-48.17,278.29,2
1075,20.33,-28.47,184.13,2
1076,20.34,-14.35,71.83,2
1077,20.36,-1.01,-29.6,2
1078,20.37,17.23,-112.74,2
1079,20.38,28.82,-181.04,2
1080,20.4,33.5,-222.74,2
1081,20.41,41.17,-240.27,2
1082,20.42,41.15,-246.6,2
1083,20.44,29.94,-236.83,2
1084,20.45,27.93,-211.58,2
1085,20.46,34.68,-185.66,2
1086,20.48,29.63,-169.68,2
1087,20.49,14.38,-161.94,2
1088,20.5,9.03,-146.49,2
1089,20.52,20.14,-120.13,2
1090,20.53,29.48,-106.18,2
1091,20.54,23.66,-106.57,2
1092,20.56,14.42,-99.85,1
1093,20.57,10.74,-88.32,1
1094,20.59,11.1,-77.5,1
1095,20.6,13.37,-63.3,1
1096,20.61,10.79,-55.37,1
1097,20.63,10.74,-48.71,1
1098,20.64,20.71,-29.67,1
1099,20.65,19.9,-21.53,1
1100,20.67,1.88,-33.05,1
1101,20.68,-7.76,-33.37,1
1102,20.69,-1.14,-24.19,1
1103,20.71,6.39,-25.65,1
1104,20.72,8.95,-22.28,1
1105,20.73,8.32,-8.09,1
1106,20.75,0.95,-2.39,1
1107,20.76,-9.79,-3.38,1
1108,20.77,-14.03,-0.25,1
1109,20.79,-12.49,5.16,1
1110,20.8,-9.66,10.52,1
1111,20.81,-5.94,8.54,1
1112,20.83,-2.94,2.33,1
1113,20.84,-1.18,10.9,1
1114,20.85,1.14,28.0,1
1115,20.87,6.93,35.64,1
1116,20.88,14.15,39.12,1
1117,20.89,8.16,38.3,1
1118,20.9,-12.17,29.12,1
1119,20.92,-19.85,28.3,1
1120,20.93,-7.76,34.33,1
1121,20.94,-3.02,35.31,1
1122,20.96,-13.27,40.53,1
1123,20.97,-19.31,43.43,1
1124,20.98,-15.54,36.88,1
1125,21.0,-7.72,44.47,1
1126,21.01,-1.73,60.19,1
1127,21.02,-5.86,58.29,1
1128,21.04,-13.76,53.01,1
1129,21.05,-10.32,57.13,1
1130,21.06,-1.35,57.53,1
1131,21.08,0.59,51.91,1
1132,21.09,-2.17,45.03,1
1133,21.1,-3.39,39.4,1
1134,21.12,-0.62,40.94,1
1135,21.13,4.13,43.05,1
1136,21.14,4.13,38.43,1
1137,21.16,0.4,35.44,1
1138,21.17,-2.74,32.48,1
1139,21.18,-8.59,27.91,1
1140,21.2,-13.38,37.23,1
1141,21.21,-12.34,51.14,1
1142,21.23,-14.21,45.48,1
1143,21.24,-16.75,31.78,1
1144,21.25,-7.38,27.26,1
1145,21.27,4.38,28.64,1
1146,21.28,5.87,36.06,1
1147,21.29,4.2,44.15,1
1148,21.31,-0.05,39.98,1
1149,21.32,-10.79,30.91,1
1150,21.33,-15.78,29.8,1
1151,21.35,-10.61,30.55,1
1152,21.36,-6.03,25.79,1
1153,21.37,-3.39,17.54,1
1154,21.39,2.81,9.72,1
1155,21.4,10.37,10.1,1
1156,21.41,11.36,14.51,1
1157,21.43,1.09,11.08,1
1158,21.44,-9.74,8.07,1
1159,21.45,-8.29,13.39,1
1160,21.47,-4.05,13.62,1
1161,21.48,-6.69,1.13,1
1162,21.49,-5.48,-14.86,1
1163,21.51,1.38,-19.48,1
1164,21.52,2.66,-5.3,1
1165,21.53,0.21,11.76,1
1166,21.54,-0.95,11.53,1
1167,21.56,-2.39,2.54,1
1168,21.57,0.29,-1.22,1
1169,21.58,7.07,-6.54,1
1170,21.6,8.47,-13.63,1
1171,21.61,4.69,-15.53,1
1172,21.62,3.14,-16.14,1
1173,21.64,4.36,-15.76,1
1174,21.65,-1.97,-12.73,1
1175,21.67,-17.86,-7.78,1
1176,21.68,-21.28,0.25,1
1177,21.69,-3.38,0.97,1
1178,21.7,14.2,-10.36,1
1179,21.72,20.71,-16.8,1
1180,21.73,20.99,-17.32,1
1181,21.75,9.66,-24.29,1
1182,21.76,-8.37,-21.54,1
1183,21.77,-11.3,-4.5,1
1184,21.78,-1.31,-2.84,1
1185,21.8,-0.9,-13.6,1
1186,21.81,-7.26,-13.73,1
1187,21.82,-1.72,-14.68,1
1188,21.84,11.59,-23.47,1
1189,21.85,16.25,-24.58,1
1190,21.865,8.68,-21.65,1
1191,21.88,-1.76,-26.83,1
1192,21.89,-6.51,-31.18,1
1193,21.91,-5.23,-23.87,1
1194,21.92,2.46,-10.99,1
1195,21.93,9.66,-7.96,1
1196,21.95,3.44,-19.07,1
1197,21.96,-4.35,-26.47,1
1198,21.97,4.92,-21.59,1
1199,21.99,15.2,-21.38,1
1200,22.0,9.4,-24.42,1
1201,22.01,1.82,-17.4,1
1202,22.03,1.91,-13.18,1
1203,22.04,-3.7,-14.25,1
1204,22.05,-17.25,-7.39,1
1205,22.07,-20.61,-7.61,1
1206,22.08,-5.83,-20.93,1
1207,22.09,12.07,-25.58,1
1208,22.11,17.03,-23.05,1
1209,22.12,12.21,-25.22,1
1210,22.13,7.61,-27.14,1
1211,22.15,3.45,-42.24,1
1212,22.16,3.01,-74.18,2
1213,22.17,13.61,-79.36,2
1214,22.18,23.92,-56.49,2
1215,22.2,18.74,-17.34,2
1216,22.21,9.16,106.26,2
1217,22.22,1.65,267.35,2
1218,22.24,-7.68,274.54,2
1219,22.25,0.61,124.34,2
1220,22.26,12.27,41.84,2
1221,22.28,-8.67,150.04,2
1222,22.29,-39.45,266.61,2
1223,22.3,-57.35,194.94,2
1224,22.32,-53.53,53.98,2
1225,22.33,-16.73,-1.1,2
1226,22.34,15.71,19.33,2
1227,22.36,11.88,98.88,2
1228,22.37,-6.79,135.84,2
1229,22.38,-15.5,52.47,2
1230,22.4,-8.72,28.44,2
1231,22.41,0.2,127.74,2
1232,22.42,2.1,96.16,2
1233,22.44,9.97,-107.93,2
1234,22.45,17.86,-178.89,2
1235,22.46,14.2,-50.24,2
1236,22.48,24.5,-14.35,2
1237,22.49,43.35,-161.1,2
1238,22.5,25.01,-256.54,2
1239,22.52,-14.31,-195.97,2
1240,22.53,-18.77,-149.89,2
1241,22.55,4.43,-235.66,1
1242,22.56,11.48,-282.91,1
1243,22.57,4.04,-165.62,1
1244,22.59,7.98,-104.92,1
1245,22.6,11.2,-188.71,1
1246,22.61,-15.12,-190.6,1
1247,22.63,-34.84,-95.13,1
1248,22.64,9.25,-51.36,1
1249,22.65,56.16,-54.04,1
1250,22.67,25.91,-78.31,1
1251,22.68,-16.27,-123.9,1
1252,22.69,-3.59,-166.96,1
1253,22.71,16.92,-209.94,1
1254,22.72,12.55,-210.08,1
1255,22.73,9.17,-146.51,1
1256,22.75,24.19,-94.91,1
1257,22.76,39.64,-72.26,1
1258,22.77,15.93,-54.8,1
1259,22.79,-34.24,-14.69,1
1260,22.8,-32.03,73.37,1
1261,22.81,20.67,95.23,1
1262,22.82,27.71,-9.4,1
1263,22.84,-17.66,-69.65,1
1264,22.85,-38.62,-6.15,1
1265,22.86,-22.92,44.5,1
1266,22.88,-4.73,33.66,1
1267,22.89,2.6,46.17,1
1268,22.9,5.57,59.76,1
1269,22.92,18.94,30.23,1
1270,22.93,19.06,24.86,1
1271,22.94,-17.92,27.12,1
1272,22.96,-28.11,-0.87,1
1273,22.97,18.87,27.38,1
1274,22.98,34.79,103.09,1
1275,23.0,-6.44,108.27,1
1276,23.01,-15.27,60.16,1
1277,23.02,24.39,59.14,1
1278,23.04,39.94,86.55,1
1279,23.05,23.92,57.47,1
1280,23.06,10.91,2.93,1
1281,23.08,-3.97,6.96,1
1282,23.09,-23.54,25.73,1
1283,23.1,-28.44,10.57,1
1284,23.12,-16.71,31.42,1
1285,23.13,-12.55,85.7,1
1286,23.14,-19.19,81.85,1
1287,23.16,-8.21,48.79,1
1288,23.17,14.38,54.31,1
1289,23.19,14.5,23.48,1
1290,23.2,2.44,-68.36,1
1291,23.21,-0.04,-66.04,1
1292,23.23,-7.69,63.82,1
1293,23.24,-19.66,156.72,1
1294,23.25,-17.01,138.99,1
1295,23.27,-9.59,90.87,1
1296,23.28,-7.39,89.92,1
1297,23.29,-12.49,119.03,1
1298,23.31,-30.26,101.94,1
1299,23.32,-35.24,40.76,1
1300,23.33,-8.94,17.98,1
1301,23.35,15.53,26.4,1
1302,23.36,19.88,15.76,1
1303,23.37,14.53,34.92,1
1304,23.39,-7.74,100.78,1
1305,23.4,-32.78,123.25,1
1306,23.41,-19.6,73.76,1
1307,23.43,6.25,29.9,1
1308,23.44,-11.7,17.72,1
1309,23.45,-40.77,-13.85,1
1310,23.46,-36.13,-34.2,1
1311,23.48,-29.44,19.41,1
1312,23.49,-33.41,63.82,1
1313,23.5,-13.29,20.19,1
1314,23.52,22.49,-5.89,1
1315,23.53,26.19,50.21,1
1316,23.54,-4.89,71.51,1
1317,23.56,-29.3,14.63,1
1318,23.57,-12.15,-5.45,1
1319,23.58,32.68,33.26,1
1320,23.6,36.02,35.88,1
1321,23.61,-9.19,-0.18,1
1322,23.62,-28.74,-5.97,1
1323,23.64,-11.58,17.21,1
1324,23.65,-3.67,5.39,1
1325,23.67,-15.88,-49.41,1
1326,23.68,-20.56,-53.73,1
1327,23.69,5.82,23.89,1
1328,23.7,31.78,72.47,1
1329,23.72,14.95,49.43,1
1330,23.73,-12.57,48.23,1
1331,23.75,-9.26,65.83,1
1332,23.76,-0.41,18.71,1
1333,23.77,-2.46,-32.0,1
1334,23.78,13.5,-5.47,1
1335,23.8,35.39,23.07,1
1336,23.81,20.75,-2.34,1
1337,23.83,-5.93,-9.19,1
1338,23.84,-4.04,31.97,1
1339,23.85,4.33,44.48,1
1340,23.87,1.13,4.58,1
1341,23.88,-0.89,-15.08,1
1342,23.89,-7.59,8.28,1
1343,23.91,-20.2,8.62,1
1344,23.92,-16.6,-30.38,1
1345,23.93,5.1,-57.88,1
1346,23.95,23.94,-53.68,1
1347,23.96,29.07,-30.08,1
1348,23.97,20.02,-24.1,1
1349,23.99,6.74,-50.37,1
1350,24.0,14.73,-68.97,1
1351,24.01,40.3,-70.32,1
1352,24.03,41.89,-65.16,1
1353,24.04,12.32,-57.67,1
1354,24.05,-7.8,-59.09,1
1355,24.07,4.65,-48.05,1
1356,24.08,17.03,-28.24,1
1357,24.09,-3.13,-37.67,1
1358,24.1,-19.05,-33.9,1
1359,24.12,-4.81,24.78,1
1360,24.13,2.18,71.52,1
1361,24.14,-3.92,62.3,1
1362,24.16,-6.3,35.13,0
1363,24.17,-7.34,12.67,0
1364,24.18,5.04,-2.69,0
1365,24.2,23.91,-3.79,0
1366,24.21,24.53,-12.38,0
1367,24.22,21.83,-57.41,0
1368,24.24,32.19,-114.51,0
1369,24.25,30.04,-134.42,0
1370,24.26,0.69,-116.35,0
1371,24.28,-23.33,-110.26,0
1372,24.29,-13.63,-154.98,0
1373,24.3,9.67,-223.65,0
1374,24.32,17.71,-247.36,0
1375,24.33,14.25,-201.78,0
1376,24.34,7.56,-125.37,0
1377,24.36,-5.37,-51.93,0
1378,24.37,-13.18,9.26,0
1379,24.38,-9.64,50.39,0
1380,24.4,-8.37,74.77,0
1381,24.41,-10.75,94.09,0
1382,24.42,-7.36,100.4,0
1383,24.44,0.2,90.4,0
1384,24.45,2.18,84.93,0
1385,24.465,-3.56,87.88,0
1386,24.48,-10.12,92.73,0
1387,24.49,-12.27,101.6,0
1388,24.51,-2.49,96.28,0
1389,24.52,17.27,70.0,0
1390,24.53,19.65,56.32,0
1391,24.55,-4.08,60.29,1
1392,24.56,-23.08,56.6,1
1393,24.57,-20.57,49.77,1
1394,24.59,-13.45,45.25,1
1395,24.6,-8.9,36.03,1
1396,24.61,1.4,37.37,1
1397,24.63,10.82,50.51,1
1398,24.64,7.46,49.24,1
1399,24.65,-3.37,41.2,1
1400,24.67,-9.68,46.08,1
1401,24.68,-8.33,45.49,1
1402,24.69,-0.64,32.26,1
1403,24.71,4.94,27.14,1
1404,24.72,-0.97,34.5,1
1405,24.73,-6.54,43.02,1
1406,24.75,-2.74,44.45,1
1407,24.76,-2.77,40.42,1
1408,24.77,-3.42,38.37,1
1409,24.78,6.83,35.29,1
1410,24.8,11.62,27.78,1
1411,24.81,-2.49,23.79,1
1412,24.82,-17.36,19.68,1
1413,24.84,-14.37,9.36,1
1414,24.85,-3.94,8.53,1
1415,24.86,-2.86,17.18,1
1416,24.88,-8.87,14.8,1
1417,24.89,-12.43,6.08,1
1418,24.9,-11.8,6.05,1
1419,24.92,-6.85,11.06,1
1420,24.93,1.33,12.77,1
1421,24.94,4.98,6.58,1
1422,24.96,5.04,-8.0,1
1423,24.97,8.34,-18.77,1
1424,24.98,8.71,-17.04,1
1425,25.0,3.37,-10.03,1
1426,25.01,2.71,-1.51,1
1427,25.02,6.45,1.36,1
1428,25.04,1.43,-16.73,1
1429,25.05,-9.68,-39.88,1
1430,25.06,-10.87,-35.05,1
1431,25.08,-2.08,-11.82,1
1432,25.09,2.4,-5.15,1
1433,25.1,-4.93,-15.93,1
1434,25.12,-18.71,-17.75,1
1435,25.13,-22.16,-7.85,1
1436,25.15,-4.91,-5.7,1
1437,25.16,11.7,-13.57,1
1438,25.17,6.66,-21.65,1
1439,25.19,-2.62,-31.04,1
1440,25.2,-2.16,-36.42,1
1441,25.21,0.03,-25.15,1
1442,25.23,8.68,-16.01,1
1443,25.24,18.18,-33.12,1
1444,25.25,5.17,-50.87,1
1445,25.27,-14.17,-43.37,1
1446,25.28,-6.61,-30.56,1
1447,25.29,7.57,-28.02,1
1448,25.31,-4.45,-31.17,1
1449,25.32,-18.59,-39.83,1
1450,25.33,-1.32,-41.51,1
1451,25.35,22.26,-30.21,1
1452,25.36,15.2,-30.53,1
1453,25.37,-2.73,-41.86,1
1454,25.38,2.27,-36.93,1
1455,25.4,16.49,-24.53,1
1456,25.41,14.31,-23.68,1
1457,25.42,3.38,-25.56,1
1458,25.44,-1.62,-28.81,1
1459,25.45,-1.34,-33.28,1
1460,25.46,-0.47,-26.03,1
1461,25.48,-1.75,-18.16,1
1462,25.49,0.73,-22.93,1
1463,25.5,8.94,-29.67,1
1464,25.52,7.57,-30.7,1
1465,25.53,-5.98,-22.03,1
1466,25.54,-13.64,-9.22,1
1467,25.56,-12.42,-9.95,1
1468,25.57,-12.87,-15.82,1
1469,25.58,-10.6,-14.98,1
1470,25.6,2.34,-26.11,1
1471,25.61,14.1,-40.57,1
1472,25.62,10.29,-31.41,1
1473,25.64,-3.11,-16.8,1
1474,25.65,-10.72,-14.63,1
1475,25.67,-6.8,-14.75,1
1476,25.68,-1.02,-17.5,1
1477,25.69,-2.47,-20.28,1
1478,25.7,-2.28,-12.88,1
1479,25.72,6.47,-6.27,1
1480,25.73,9.56,-9.9,1
1481,25.75,-2.83,-13.34,1
1482,25.76,-14.37,-15.02,1
1483,25.77,-8.78,-15.57,1
1484,25.79,3.46,-11.97,1
1485,25.8,5.77,-13.58,1
1486,25.81,0.61,-16.12,1
1487,25.83,-3.1,-5.3,1
1488,25.84,-3.42,8.33,1
1489,25.85,-3.09,13.88,1
1490,25.87,-4.71,14.96,1
1491,25.88,-0.05,12.26,1
1492,25.89,11.47,9.06,1
1493,25.91,11.3,6.13,1
1494,25.92,-2.07,1.84,1
1495,25.93,-10.59,4.97,1
1496,25.95,-10.14,10.58,1
1497,25.96,-2.87,1.89,1
1498,25.97,8.58,-4.51,1
1499,25.99,7.79,9.77,1
1500,26.0,-7.67,16.7,1
1501,26.01,-11.9,2.89,1
1502,26.02,5.24,-3.27,1
1503,26.04,19.91,4.63,1
1504,26.05,17.32,7.68,1
1505,26.06,11.14,0.28,1
1506,26.08,11.45,-5.33,1
1507,26.09,13.14,5.29,1
1508,26.1,12.75,16.43,1
1509,26.12,9.92,2.02,1
1510,26.13,3.43,-10.8,1
1511,26.14,-4.52,13.13,1
1512,26.16,-7.12,40.48,0
1513,26.17,-4.28,37.66,0
1514,26.18,-4.5,17.29,0
1515,26.2,-9.01,-30.49,0
1516,26.21,-5.62,-102.34,0
1517,26.22,10.21,-132.67,0
1518,26.24,25.13,-107.62,0
1519,26.25,26.98,-89.7,0
1520,26.26,18.04,-99.88,0
1521,26.28,8.82,-112.62,0
1522,26.29,8.64,-113.84,0
1523,26.3,14.83,-104.42,0
1524,26.32,16.3,-92.46,0
1525,26.33,12.42,-74.8,0
1526,26.34,13.95,-43.19,0
1527,26.36,20.94,-13.84,0
1528,26.37,16.99,4.6,0
1529,26.38,-2.84,33.91,0
1530,26.4,-19.74,72.71,0
1531,26.41,-17.81,95.14,0
1532,26.43,-6.09,109.61,0
1533,26.44,-7.07,133.29,0
1534,26.45,-19.85,154.59,0
1535,26.47,-19.54,165.98,0
1536,26.48,-6.68,169.85,0
1537,26.49,-7.39,165.62,0
1538,26.51,-21.38,160.28,0
1539,26.52,-24.18,163.72,0
1540,26.53,-14.57,180.35,0
1541,26.55,-14.11,196.52,1
1542,26.56,-22.66,184.16,1
1543,26.57,-20.29,152.95,1
1544,26.59,-15.96,137.92,1
1545,26.6,-31.05,129.75,1
1546,26.61,-41.74,109.86,1
1547,26.63,-21.31,96.16,1
1548,26.64,-1.1,94.01,1
1549,26.65,-7.13,88.37,1
1550,26.67,-12.78,77.51,1
1551,26.68,-0.57,61.02,1
1552,26.69,8.63,41.4,1
1553,26.7,0.64,31.64,1
1554,26.72,-7.24,25.86,1
1555,26.73,2.48,11.58,1
1556,26.75,11.02,-0.67,1
1557,26.76,-1.93,-6.77,1
1558,26.77,-10.46,-15.96,1
1559,26.78,5.83,-22.53,1
1560,26.8,16.83,-20.76,1
1561,26.81,8.99,-18.0,1
1562,26.82,5.43,-20.05,1
1563,26.84,4.45,-27.54,1
1564,26.85,-9.73,-34.23,1
1565,26.86,-19.21,-32.68,1
1566,26.88,-6.77,-32.66,1
1567,26.89,6.02,-41.94,1
1568,26.9,0.53,-46.68,1
1569,26.92,-8.23,-45.0,1
1570,26.93,-2.96,-45.91,1
1571,26.94,8.78,-41.32,1
1572,26.96,11.43,-36.03,1
1573,26.97,7.23,-49.09,1
1574,26.98,4.95,-67.1,1
1575,27.0,-0.45,-67.56,1
1576,27.01,-7.22,-58.25,1
1577,27.02,-1.61,-50.96,1
1578,27.04,10.84,-49.16,1
1579,27.05,15.41,-51.92,1
1580,27.06,16.38,-51.32,1
1581,27.08,18.94,-51.84,1
1582,27.09,14.27,-56.5,1
1583,27.11,-1.82,-53.44,1
1584,27.12,-15.78,-48.85,1
1585,27.13,-7.94,-51.73,1
1586,27.15,14.79,-48.81,1
1587,27.16,21.87,-42.61,1
1588,27.17,11.25,-47.48,1
1589,27.19,7.44,-55.95,1
1590,27.2,12.48,-59.71,1
1591,27.21,15.72,-58.01,1
1592,27.23,13.08,-49.18,1
1593,27.24,-1.18,-45.06,1
1594,27.25,-14.45,-49.1,1
1595,27.27,-4.71,-44.42,1
1596,27.28,13.41,-36.87,1
1597,27.29,15.96,-41.78,1
1598,27.3,10.31,-45.62,1
1599,27.32,7.97,-40.28,1
1600,27.33,9.25,-35.83,1
1601,27.34,9.35,-31.89,1
1602,27.36,1.53,-30.48,1
1603,27.37,-6.22,-34.85,1
1604,27.38,-2.99,-31.49,1
1605,27.4,1.57,-21.74,1
1606,27.41,-2.25,-21.85,1
1607,27.42,-5.02,-23.52,1
1608,27.44,-1.29,-19.75,1
1609,27.45,0.02,-19.32,1
1610,27.46,-0.34,-17.32,1
1611,27.48,4.19,-12.93,1
1612,27.49,9.48,-12.32,1
1613,27.5,11.75,-7.28,1
1614,27.52,6.99,-1.42,1
1615,27.53,-3.77,-4.79,1
1616,27.54,-5.77,-5.87,1
1617,27.56,-0.02,-3.45,1
1618,27.57,-1.55,-6.87,1
1619,27.58,-3.89,-5.64,1
1620,27.6,-0.53,0.15,1
1621,27.61,-1.62,-2.36,1
1622,27.62,-7.14,-3.22,1
1623,27.64,-7.14,2.04,1
1624,27.65,0.72,2.53,1
1625,27.67,7.53,7.48,1
1626,27.68,2.49,17.83,1
1627,27.69,-7.74,14.19,1
1628,27.7,-7.87,5.73,1
1629,27.72,-0.35,11.16,1
1630,27.73,5.12,17.95,1
1631,27.75,7.33,13.3,1
1632,27.76,2.57,6.38,1
1633,27.77,-7.04,8.48,1
1634,27.79,-10.28,19.43,1
1635,27.8,-12.37,27.9,1
1636,27.81,-19.62,25.8,1
1637,27.83,-19.06,20.15,1
1638,27.84,-9.67,13.46,1
1639,27.85,-0.61,4.35,1
1640,27.87,9.79,6.61,1
1641,27.88,12.3,17.02,1
1642,27.89,0.24,15.86,1
1643,27.91,-2.42,14.51,1
1644,27.92,9.67,22.84,1
1645,27.93,8.42,23.07,1
1646,27.94,-5.2,17.58,1
1647,27.96,-6.77,18.16,1
1648,27.97,0.49,15.53,1
1649,27.98,0.04,11.15,1
1650,28.0,-2.43,16.54,1
1651,28.01,2.96,24.14,1
1652,28.02,5.83,25.72,1
1653,28.04,-3.02,21.96,1
1654,28.05,-12.31,15.76,1
1655,28.06,-8.26,18.06,1
1656,28.08,4.64,25.25,1
1657,28.09,14.55,16.53,1
1658,28.1,17.63,-1.47,1
1659,28.12,12.18,-4.12,1
1660,28.13,1.5,10.43,1
1661,28.14,-4.64,26.95,1
1662,28.16,-8.18,32.69,2
1663,28.17,-12.68,28.72,2
1664,28.18,-10.97,28.55,2
1665,28.2,-5.72,28.06,2
1666,28.21,-2.78,14.81,2
1667,28.22,3.1,8.39,2
1668,28.24,5.42,36.65,2
1669,28.25,-2.24,108.48,2
1670,28.26,-9.73,217.01,2
1671,28.28,-21.84,322.37,2
1672,28.29,-42.67,378.18,2
1673,28.3,-51.26,378.5,2
1674,28.32,-46.43,337.3,2
1675,28.33,-45.61,261.96,2
1676,28.34,-37.98,152.23,2
1677,28.36,-7.14,17.85,2
1678,28.37,25.58,-96.07,2
1679,28.39,29.84,-152.4,2
1680,28.4,14.1,-175.51,2
1681,28.41,7.58,-202.16,2
1682,28.43,12.77,-223.58,2
1683,28.44,13.12,-226.53,2
1684,28.45,7.69,-224.54,2
1685,28.47,7.76,-218.29,2
1686,28.48,13.84,-199.63,2
1687,28.49,17.4,-180.84,2
1688,28.51,18.58,-168.85,2
1689,28.52,19.46,-158.19,2
1690,28.53,16.78,-148.38,2
1691,28.55,16.37,-134.34,1
1692,28.56,20.95,-123.02,1
1693,28.57,20.1,-128.56,1
1694,28.58,15.74,-130.29,1
1695,28.6,15.15,-112.09,1
1696,28.61,17.92,-92.72,1
1697,28.62,26.7,-72.59,1
1698,28.64,29.54,-54.08,1
1699,28.65,10.14,-59.13,1
1700,28.67,-12.92,-68.46,1
1701,28.68,-14.85,-53.42,1
1702,28.69,-4.89,-33.36,1
1703,28.7,0.85,-20.9,1
1704,28.72,4.9,-6.5,1
1705,28.73,10.35,2.47,1
1706,28.75,9.62,5.19,1
1707,28.76,0.68,10.32,1
1708,28.77,-3.9,9.96,1
1709,28.78,2.08,8.91,1
1710,28.8,6.05,22.56,1
1711,28.81,2.33,34.41,1
1712,28.82,0.07,30.53,1
1713,28.84,-1.13,26.68,1
1714,28.85,-9.13,28.96,1
1715,28.86,-18.99,35.62,1
1716,28.88,-17.02,44.39,1
1717,28.89,-3.11,41.54,1
1718,28.9,8.53,32.85,1
1719,28.92,8.24,36.91,1
1720,28.93,0.13,45.93,1
1721,28.94,-6.23,50.72,1
1722,28.96,-10.94,53.83,1
1723,28.97,-16.59,50.11,1
1724,28.98,-14.6,47.87,1
1725,29.0,-2.77,59.88,1
1726,29.01,8.83,67.93,1
1727,29.03,13.75,59.97,1
1728,29.04,7.15,49.9,1
1729,29.05,-5.05,40.77,1
1730,29.07,-7.29,37.41,1
1731,29.08,-2.21,45.56,1
1732,29.09,-1.75,47.93,1
1733,29.11,-5.77,42.88,1
1734,29.12,-7.71,42.99,1
1735,29.13,-3.31,42.47,1
1736,29.15,1.72,43.95,1
1737,29.16,-3.81,51.24,1
1738,29.17,-12.55,49.47,1
1739,29.19,-9.8,42.17,1
1740,29.2,-6.91,38.3,1
1741,29.21,-15.62,28.42,1
1742,29.22,-17.1,25.92,1
1743,29.24,-5.44,41.6,1
1744,29.25,0.55,42.61,1
1745,29.26,2.02,27.63,1
1746,29.28,4.88,29.79,1
1747,29.29,0.95,35.99,1
1748,29.3,-5.2,30.93,1
1749,29.32,-5.56,32.66,1
1750,29.33,-3.65,36.9,1
1751,29.34,-0.33,31.33,1
1752,29.36,-0.97,22.28,1
1753,29.37,-11.35,8.56,1
1754,29.38,-15.42,2.03,1
1755,29.4,-5.12,21.57,1
1756,29.41,0.74,39.16,1
1757,29.42,-2.26,28.54,1
1758,29.44,-2.26,11.71,1
1759,29.45,1.37,1.24,1
1760,29.46,6.26,-5.84,1
1761,29.48,8.96,-3.38,1
1762,29.49,5.75,-0.94,1
1763,29.5,4.13,-4.37,1
1764,29.52,3.67,-0.48,1
1765,29.53,-4.18,6.36,1
1766,29.54,-10.63,6.26,1
1767,29.56,-9.46,3.4,1
1768,29.57,-9.62,-4.19,1
1769,29.58,-9.51,-11.04,1
1770,29.6,-5.38,-7.31,1
1771,29.61,0.1,-8.22,1
1772,29.62,8.19,-18.78,1
1773,29.64,9.8,-17.79,1
1774,29.65,-0.76,-8.48,1
1775,29.67,-7.79,-4.8,1
1776,29.68,-6.01,-2.43,1
1777,29.69,0.64,-9.16,1
1778,29.71,13.02,-25.99,1
1779,29.72,17.06,-27.5,1
1780,29.73,5.03,-17.67,1
1781,29.75,-3.72,-16.77,1
1782,29.76,-1.54,-12.14,1
1783,29.77,-4.34,-2.14,1
1784,29.79,-10.1,-7.62,1
1785,29.8,-4.64,-21.93,1
1786,29.81,1.7,-27.79,1
1787,29.83,0.55,-26.61,1
1788,29.84,2.72,-24.13,1
1789,29.85,6.82,-21.04,1
1790,29.86,5.97,-14.97,1
1791,29.88,4.89,-15.75,1
1792,29.89,7.08,-31.01,1
1793,29.9,10.25,-36.27,1
1794,29.92,7.25,-22.29,1
1795,29.93,-3.05,-16.75,1
1796,29.94,-4.53,-21.29,1
1797,29.96,7.11,-18.59,1
1798,29.97,14.37,-19.45,1
1799,29.98,12.52,-27.62,1
1800,30.0,7.76,-24.05,1
1801,30.01,3.82,-13.99,1
1802,30.02,6.44,-14.61,1
1803,30.04,7.18,-20.07,1
1804,30.05,-2.99,-20.2,1
1805,30.06,-7.37,-16.04,1
1806,30.08,-0.05,-14.95,1
1807,30.09,2.8,-26.15,1
1808,30.1,3.75,-41.9,1
1809,30.12,8.69,-37.84,1
1810,30.13,4.22,-12.08,1
1811,30.14,-7.25,8.68,1
1812,30.16,-7.92,2.98,2
1813,30.17,-1.86,-28.27,2
1814,30.18,-0.46,-52.58,2
1815,30.2,1.24,-48.32,2
1816,30.21,3.55,-59.49,2
1817,30.22,3.09,-76.75,2
1818,30.24,5.36,-17.78,2
1819,30.25,9.87,82.89,2
1820,30.26,18.03,156.69,2
1821,30.28,28.72,198.18,2
1822,30.29,25.87,185.49,2
1823,30.3,9.51,194.55,2
1824,30.32,-10.24,279.46,2
1825,30.33,-18.12,286.28,2
1826,30.35,-1.45,182.86,2
1827,30.36,2.97,153.16,2
1828,30.37,-20.48,201.08,2
1829,30.39,-22.67,158.58,2
1830,30.4,-11.18,30.58,2
1831,30.41,-33.19,-17.36,2
1832,30.43,-49.81,77.04,2
1833,30.44,-19.65,161.23,2
1834,30.45,5.91,78.74,2
1835,30.47,0.64,-95.04,2
1836,30.48,0.06,-195.31,2
1837,30.49,5.62,-191.9,2
1838,30.5,6.13,-149.42,2
1839,30.52,7.12,-134.2,2
1840,30.53,7.06,-179.46,2
1841,30.54,14.05,-218.43,2
1842,30.56,21.36,-195.13,1
1843,30.57,7.7,-178.39,1
1844,30.58,-10.87,-182.61,1
1845,30.6,-15.86,-178.82,1
1846,30.61,-8.63,-197.11,1
1847,30.62,7.61,-175.71,1
1848,30.64,7.87,-84.26,1
1849,30.65,-16.32,-77.78,1
1850,30.67,-25.35,-198.61,1
1851,30.68,-8.55,-271.92,1
1852,30.69,-1.72,-217.1,1
1853,30.7,-5.37,-135.7,1
1854,30.72,8.18,-94.82,1
1855,30.73,29.84,-90.62,1
1856,30.75,30.79,-115.7,1
1857,30.76,2.86,-103.75,1
1858,30.77,-20.86,-37.76,1
1859,30.78,-2.11,-20.98,1
1860,30.8,21.7,-53.21,1
1861,30.81,2.37,-25.68,1
1862,30.82,-13.59,34.84,1
1863,30.84,14.65,-15.15,1
1864,30.85,34.06,-150.52,1
1865,30.86,9.56,-144.94,1
1866,30.88,-13.83,9.78,1
1867,30.89,-10.07,84.9,1
1868,30.9,-5.78,55.56,1
1869,30.92,-2.92,4.28,1
1870,30.93,14.35,-69.82,1
1871,30.94,21.75,-105.27,1
1872,30.96,1.14,-67.04,1
1873,30.97,-18.96,-5.58,1
1874,30.99,-17.54,59.12,1
1875,31.0,-1.23,99.8,1
1876,31.01,15.4,94.99,1
1877,31.03,9.86,89.48,1
1878,31.04,-14.52,84.45,1
1879,31.05,-20.5,19.52,1
1880,31.07,-7.02,-25.79,1
1881,31.08,-6.28,51.98,1
1882,31.09,-9.17,105.6,1
1883,31.11,1.28,41.29,1
1884,31.12,-0.21,28.31,1
1885,31.13,-13.93,98.81,1
1886,31.14,-4.34,92.82,1
1887,31.16,12.04,34.29,1
1888,31.17,-5.99,55.59,1
1889,31.18,-29.77,93.92,1
1890,31.2,-10.64,72.44,1
1891,31.21,25.11,88.4,1
1892,31.22,28.85,141.58,1
1893,31.24,8.95,110.53,1
1894,31.25,-9.39,52.03,1
1895,31.26,-17.21,78.93,1
1896,31.28,-1.13,104.0,1
1897,31.29,23.26,33.61,1
1898,31.3,18.06,-19.59,1
1899,31.32,-6.71,35.98,1
1900,31.33,-20.51,90.03,1
1901,31.34,-25.7,52.07,1
1902,31.36,-28.12,6.66,1
1903,31.37,-19.8,60.84,1
1904,31.38,-5.29,143.54,1
1905,31.4,-0.96,120.68,1
1906,31.41,-3.74,70.18,1
1907,31.42,7.2,112.25,1
1908,31.44,24.89,141.2,1
1909,31.45,20.21,66.53,1
1910,31.46,6.89,21.62,1
1911,31.48,14.09,87.66,1
1912,31.49,20.67,124.21,1
1913,31.5,4.7,57.57,1
1914,31.52,-15.79,2.97,1
1915,31.53,-16.31,18.95,1
1916,31.54,9.27,62.02,1
1917,31.56,29.09,89.7,1
1918,31.57,10.5,80.84,1
1919,31.58,-17.48,76.43,1
1920,31.6,-9.7,96.27,1
1921,31.61,21.99,66.79,1
1922,31.63,29.77,-12.95,1
1923,31.64,11.4,-30.85,1
1924,31.65,7.65,59.69,1
1925,31.67,15.31,155.63,1
1926,31.68,10.83,123.49,1
1927,31.69,10.06,-1.73,1
1928,31.71,20.52,-59.82,1
1929,31.72,12.69,-20.28,1
1930,31.73,-19.09,-3.26,1
1931,31.75,-27.82,-47.72,1
1932,31.76,-0.71,-57.52,1
1933,31.77,8.01,-21.7,1
1934,31.78,-13.67,-27.35,1
1935,31.8,-22.86,-49.52,1
1936,31.81,-10.53,-35.87,1
1937,31.82,1.37,-16.98,1
1938,31.84,2.09,10.99,1
1939,31.85,7.57,44.71,1
1940,31.86,19.4,39.31,1
1941,31.88,6.08,17.17,1
1942,31.89,-15.4,14.89,1
1943,31.9,-5.23,16.78,1
1944,31.92,12.67,-11.26,1
1945,31.93,8.06,-68.85,1
1946,31.94,-10.61,-93.25,1
1947,31.96,-29.66,-65.89,1
1948,31.97,-35.29,-44.01,1
1949,31.98,-21.18,-45.59,1
1950,32.0,-4.22,-42.21,1
1951,32.01,-7.84,-42.13,1
1952,32.03,-24.93,-77.64,1
1953,32.04,-18.88,-104.36,1
1954,32.05,7.82,-70.96,1
1955,32.06,11.63,-53.11,1
1956,32.08,-6.54,-101.22,1
1957,32.09,-9.2,-112.52,1
1958,32.11,4.92,-54.84,1
1959,32.12,6.53,-27.14,1
1960,32.13,-6.94,-23.78,1
1961,32.15,-2.37,-11.73,1
1962,32.16,17.07,-47.0,0
1963,32.17,11.44,-110.16,0
1964,32.19,-2.0,-145.64,0
1965,32.2,7.38,-162.42,0
1966,32.21,12.21,-163.07,0
1967,32.22,5.72,-137.16,0
1968,32.24,12.25,-96.37,0
1969,32.25,17.51,-79.85,0
1970,32.27,4.07,-120.44,0
1971,32.28,-4.87,-178.43,0
1972,32.29,6.69,-184.39,0
1973,32.31,18.73,-136.65,0
1974,32.32,11.8,-77.08,0
1975,32.33,-3.31,-24.67,0
1976,32.35,-5.29,20.43,0
1977,32.36,3.74,58.98,0
1978,32.37,4.85,83.81,0
1979,32.39,-4.83,89.17,0
1980,32.4,-11.76,94.37,0
1981,32.41,-10.96,111.95,0
1982,32.43,-5.42,119.13,0
1983,32.44,1.34,105.04,0
1984,32.45,0.89,89.77,0
1985,32.47,-7.17,83.99,0
1986,32.48,-12.57,86.98,0
1987,32.49,-15.16,97.55,0
1988,32.51,-14.83,102.28,0
1989,32.52,-0.98,91.38,0
1990,32.53,17.45,71.91,0
1991,32.54,18.4,53.37,0
1992,32.56,6.14,44.51,1
1993,32.57,-2.66,43.39,1
1994,32.59,-4.25,33.17,1
1995,32.6,-0.51,18.22,1
1996,32.61,0.78,19.04,1
1997,32.63,-6.57,27.24,1
1998,32.64,-14.4,32.7,1
1999,32.65,-10.96,42.17,1
2000,32.67,3.39,39.59,1
2001,32.68,14.67,18.1,1
2002,32.69,13.2,11.04,1
2003,32.71,4.1,21.54,1
2004,32.72,-8.51,19.75,1
2005,32.73,-18.59,14.46,1
2006,32.75,-15.08,25.94,1
2007,32.76,-5.53,36.73,1
2008,32.77,-5.42,29.29,1
2009,32.79,-8.27,17.24,1
2010,32.8,-5.99,20.44,1
2011,32.81,-5.95,31.21,1
2012,32.83,-2.85,25.69,1
2013,32.84,9.83,10.56,1
2014,32.85,12.94,7.99,1
2015,32.87,0.31,9.04,1
2016,32.88,-7.28,4.17,1
2017,32.89,-6.75,3.34,1
2018,32.9,-6.91,2.37,1
2019,32.92,-0.87,-2.73,1
2020,32.93,12.24,-4.06,1
2021,32.95,19.12,-11.37,1
2022,32.96,15.12,-25.35,1
2023,32.97,6.78,-22.41,1
2024,32.99,1.54,-7.2,1
2025,33.0,-0.43,-0.55,1
2026,33.01,-4.4,0.91,1
2027,33.03,-5.98,-0.29,1
2028,33.04,0.49,-1.15,1
2029,33.05,2.48,2.48,1
2030,33.06,-4.81,-5.52,1
2031,33.08,-4.88,-18.58,1
2032,33.09,4.45,-11.52,1
2033,33.11,6.54,-4.7,1
2034,33.12,-4.5,-16.38,1
2035,33.13,-15.11,-21.61,1
2036,33.15,-11.49,-15.39,1
2037,33.16,-1.99,-16.65,1
2038,33.17,-1.84,-23.01,1
2039,33.19,-0.28,-26.85,1
2040,33.2,14.1,-29.04,1
2041,33.21,18.89,-27.59,1
2042,33.22,5.28,-26.89,1
2043,33.24,-1.6,-29.81,1
2044,33.25,2.47,-22.88,1
2045,33.27,3.42,-8.49,1
2046,33.28,5.15,-8.81,1
2047,33.29,11.72,-21.62,1
2048,33.31,14.13,-29.77,1
2049,33.32,7.91,-29.03,1
2050,33.33,1.05,-20.69,1
2051,33.35,3.0,-18.45,1
2052,33.36,9.82,-30.61,1
2053,33.37,8.44,-31.6,1
2054,33.38,-0.87,-15.79,1
2055,33.4,-4.28,-14.62,1
2056,33.41,2.05,-27.57,1
2057,33.43,6.94,-30.48,1
2058,33.44,1.25,-26.98,1
2059,33.45,-7.44,-28.89,1
2060,33.47,-6.68,-29.37,1
2061,33.48,-0.36,-18.65,1
2062,33.49,-1.23,-8.12,1
2063,33.51,-6.95,-13.14,1
2064,33.52,-5.42,-17.88,1
2065,33.53,-0.74,-8.39,1
2066,33.54,-1.33,-6.23,1
2067,33.56,-0.08,-17.81,1
2068,33.57,6.5,-20.16,1
2069,33.59,10.37,-14.5,1
2070,33.6,5.97,-12.86,1
2071,33.61,-4.42,-12.37,1
2072,33.63,-11.74,-20.55,1
2073,33.64,-11.12,-30.77,1
2074,33.65,-7.13,-17.76,1
2075,33.67,-2.25,1.3,1
2076,33.68,2.42,-4.8,1
2077,33.69,2.14,-19.39,1
2078,33.71,-2.74,-20.28,1
2079,33.72,-1.05,-11.71,1
2080,33.73,7.83,-2.55,1
2081,33.75,5.12,-6.4,1
2082,33.76,-10.68,-20.16,1
2083,33.77,-15.13,-18.78,1
2084,33.79,-3.82,-6.28,1
2085,33.8,5.4,-0.36,1
2086,33.81,8.6,7.89,1
2087,33.83,6.14,16.26,1
2088,33.84,-7.64,7.83,1
2089,33.85,-19.61,-4.58,1
2090,33.87,-11.21,-2.36,1
2091,33.88,4.8,7.88,1
2092,33.89,7.4,14.28,1
2093,33.9,4.28,12.22,1
2094,33.92,7.13,5.5,1
2095,33.93,5.13,0.81,1
2096,33.95,-6.26,-3.0,1
2097,33.96,-11.6,-2.76,1
2098,33.97,-4.38,7.96,1
2099,33.99,5.72,15.51,1
2100,34.0,7.59,8.86,1
2101,34.01,0.39,3.65,1
2102,34.03,-2.83,4.05,1
2103,34.04,-0.96,-1.95,1
2104,34.05,-7.64,-1.86,1
2105,34.06,-12.63,12.05,1
2106,34.08,0.68,15.87,1
2107,34.09,15.02,4.97,1
2108,34.11,11.48,2.6,1
2109,34.12,5.0,13.48,1
2110,34.13,8.84,25.69,1
2111,34.15,7.66,29.64,1
2112,34.16,-4.61,15.6,0
2113,34.17,-10.13,-19.87,0
2114,34.19,-3.45,-71.91,0
2115,34.2,4.58,-119.59,0
2116,34.21,13.36,-131.98,0
2117,34.23,29.29,-119.74,0
2118,34.24,44.93,-126.46,0
2119,34.25,46.75,-151.59,0
2120,34.27,37.44,-160.18,0
2121,34.28,29.17,-144.19,0
2122,34.29,25.28,-113.85,0
2123,34.31,20.78,-77.44,0
2124,34.32,8.01,-42.61,0
2125,34.33,-7.79,-6.71,0
2126,34.35,-8.44,28.39,0
2127,34.36,0.77,55.48,0
2128,34.37,-4.82,81.82,0
2129,34.38,-24.78,108.39,0
2130,34.4,-38.91,126.26,0
2131,34.41,-42.03,144.01,0
2132,34.43,-39.48,166.66,0
2133,34.44,-35.35,177.37,0
2134,34.45,-36.59,177.13,0
2135,34.47,-36.36,185.27,0
2136,34.48,-23.26,199.46,0
2137,34.49,-13.77,203.21,0
2138,34.51,-19.2,188.6,0
2139,34.52,-19.75,163.73,0
2140,34.53,-9.18,148.15,0
2141,34.54,-4.86,143.62,0
2142,34.56,-11.13,130.37,1
2143,34.57,-14.53,107.53,1
2144,34.59,-6.93,94.14,1
2145,34.6,4.23,91.35,1
2146,34.61,8.42,86.93,1
2147,34.63,2.74,75.71,1
2148,34.64,-8.95,58.91,1
2149,34.65,-19.2,43.23,1
2150,34.67,-19.36,30.76,1
2151,34.68,-7.54,17.37,1
2152,34.69,4.21,11.61,1
2153,34.71,4.21,16.03,1
2154,34.72,-1.75,12.98,1
2155,34.73,-2.16,2.09,1
2156,34.75,3.2,-4.74,1
2157,34.76,6.23,-13.85,1
2158,34.77,1.85,-26.13,1
2159,34.79,-5.91,-33.08,1
2160,34.8,-10.07,-38.91,1
2161,34.81,-9.9,-42.42,1
2162,34.83,-4.65,-38.54,1
2163,34.84,5.07,-36.77,1
2164,34.85,8.95,-36.39,1
2165,34.87,3.07,-33.2,1
2166,34.88,0.37,-40.95,1
2167,34.89,5.93,-55.69,1
2168,34.91,8.72,-59.62,1
2169,34.92,4.79,-59.71,1
2170,34.93,5.65,-61.89,1
2171,34.95,14.98,-58.38,1
2172,34.96,16.06,-54.12,1
2173,34.97,3.76,-53.67,1
2174,34.99,-1.1,-53.7,1
2175,35.0,10.07,-57.56,1
2176,35.01,17.87,-60.15,1
2177,35.03,12.25,-57.09,1
2178,35.04,9.96,-57.06,1
2179,35.05,17.11,-54.81,1
2180,35.06,13.94,-47.45,1
2181,35.08,-0.31,-50.04,1
2182,35.09,-3.25,-55.31,1
2183,35.11,4.16,-48.87,1
2184,35.12,5.92,-44.21,1
2185,35.13,6.59,-48.89,1
2186,35.15,12.67,-52.8,1
2187,35.16,13.54,-53.47,1
2188,35.17,7.57,-49.98,1
2189,35.19,8.09,-43.41,1
2190,35.2,12.27,-43.23,1
2191,35.21,5.01,-43.84,1
2192,35.22,-4.81,-34.2,1
2193,35.24,2.4,-27.32,1
2194,35.25,14.31,-29.88,1
2195,35.27,8.12,-29.9,1
2196,35.28,-9.11,-30.33,1
2197,35.29,-15.68,-34.13,1
2198,35.31,-4.89,-33.04,1
2199,35.32,8.92,-32.28,1
2200,35.33,11.83,-34.01,1
2201,35.35,9.56,-27.99,1
2202,35.36,5.78,-21.0,1
2203,35.37,-0.12,-21.54,1
2204,35.38,2.2,-19.7,1
2205,35.4,7.01,-13.23,1
2206,35.41,-0.43,-8.49,1
2207,35.43,-8.78,-10.31,1
2208,35.44,-8.03,-22.01,1
2209,35.45,-6.71,-26.96,1
2210,35.47,-6.57,-12.59,1
2211,35.48,-3.67,0.17,1
2212,35.49,2.27,0.9,1
2213,35.51,8.22,0.06,1
2214,35.52,8.59,-6.26,1
2215,35.53,4.43,-15.14,1
2216,35.55,0.02,-12.48,1
2217,35.56,-2.38,-4.76,1
2218,35.57,0.55,1.78,1
2219,35.59,3.23,10.74,1
2220,35.6,1.54,11.37,1
2221,35.61,0.99,4.34,1
2222,35.63,0.99,5.25,1
2223,35.64,0.65,7.43,1
2224,35.65,-0.37,7.3,1
2225,35.67,-9.24,15.25,1
2226,35.68,-18.91,21.13,1
2227,35.69,-12.75,18.04,1
2228,35.71,4.27,17.26,1
2229,35.72,12.14,16.83,1
2230,35.73,3.99,10.26,1
2231,35.75,-5.66,4.27,1
2232,35.76,-1.44,3.63,1
2233,35.77,6.05,9.83,1
2234,35.79,2.37,20.14,1
2235,35.8,-1.61,21.58,1
2236,35.81,2.88,16.07,1
2237,35.83,8.07,13.63,1
2238,35.84,10.4,6.74,1
2239,35.85,7.98,0.55,1
2240,35.87,-1.65,9.69,1
2241,35.88,-11.55,18.52,1
2242,35.89,-11.66,15.69,1
2243,35.9,-1.31,16.11,1
2244,35.92,6.94,20.84,1
2245,35.93,3.75,23.37,1
2246,35.95,-1.39,28.31,1
2247,35.96,-1.87,28.57,1
2248,35.97,-6.17,21.32,1
2249,35.99,-14.42,18.64,1
2250,36.0,-14.87,18.01,1
2251,36.01,-3.8,17.88,1
2252,36.03,7.12,25.32,1
2253,36.04,6.53,29.42,1
2254,36.05,-0.2,24.3,1
2255,36.06,-2.67,21.46,1
2256,36.08,0.26,18.98,1
2257,36.09,0.29,12.04,1
2258,36.11,-9.41,11.48,1
2259,36.12,-16.88,17.64,1
2260,36.13,-9.04,20.08,1
2261,36.15,5.58,19.9,1
2262,36.16,12.15,18.7,2
2263,36.17,4.6,14.85,2
2264,36.19,-10.55,13.93,2
2265,36.2,-16.87,25.01,2
2266,36.21,-7.91,76.03,2
2267,36.23,2.51,184.57,2
2268,36.24,-0.39,295.17,2
2269,36.25,-15.05,336.24,2
2270,36.27,-30.91,306.56,2
2271,36.28,-38.74,242.88,2
2272,36.29,-30.07,172.01,2
2273,36.31,-9.8,106.01,2
2274,36.32,0.2,46.7,2
2275,36.33,-7.22,1.37,2
2276,36.35,-12.63,-30.17,2
2277,36.36,-7.84,-72.87,2
2278,36.37,-5.47,-132.63,2
2279,36.38,-6.61,-184.71,2
2280,36.4,-2.28,-217.55,2
2281,36.41,5.47,-228.26,2
2282,36.43,10.51,-213.62,2
2283,36.44,14.31,-194.2,2
2284,36.45,19.41,-184.02,2
2285,36.47,24.95,-165.04,2
2286,36.48,26.36,-141.95,2
2287,36.49,17.63,-134.44,2
2288,36.51,2.75,-123.87,2
2289,36.52,-2.36,-102.12,2
2290,36.53,6.25,-96.09,2
2291,36.54,13.21,-104.78,2
2292,36.56,11.94,-104.25,1
2293,36.57,9.68,-84.83,1
2294,36.59,9.7,-58.96,1
2295,36.6,14.82,-51.61,1
2296,36.61,23.42,-54.69,1
2297,36.63,21.43,-35.13,1
2298,36.64,11.8,-8.62,1
2299,36.65,15.96,-9.65,1
2300,36.67,25.27,-20.61,1
2301,36.68,14.71,-18.28,1
2302,36.69,-3.54,-16.9,1
2303,36.71,-4.54,-23.04,1
2304,36.72,4.87,-25.0,1
2305,36.73,8.3,-17.37,1
2306,36.75,5.86,-2.37,1
2307,36.76,8.2,8.7,1
2308,36.77,14.62,9.7,1
2309,36.79,4.99,14.99,1
2310,36.8,-20.47,24.88,1
2311,36.81,-28.77,25.04,1
2312,36.83,-8.64,25.19,1
2313,36.84,10.76,30.16,1
2314,36.85,5.8,28.62,1
2315,36.87,-13.61,26.41,1
2316,36.88,-24.44,26.67,1
2317,36.89,-18.98,24.96,1
2318,36.9,-8.91,35.83,1
2319,36.92,-3.54,57.64,1
2320,36.93,-0.05,60.88,1
2321,36.95,2.78,41.97,1
2322,36.96,4.58,28.22,1
2323,36.97,7.78,35.44,1
2324,36.99,9.37,48.56,1
2325,37.0,4.3,42.35,1
2326,37.01,-4.44,29.01,1
2327,37.03,-10.36,36.68,1
2328,37.04,-11.62,49.52,1
2329,37.05,-9.82,41.23,1
2330,37.06,-6.93,27.09,1
2331,37.08,-2.28,28.64,1
2332,37.09,3.55,36.63,1
2333,37.11,5.63,39.81,1
2334,37.12,1.11,43.61,1
2335,37.13,-5.47,46.83,1
2336,37.15,-8.67,44.82,1
2337,37.16,-7.64,37.81,1
2338,37.17,-6.29,33.24,1
2339,37.19,-8.02,42.13,1
2340,37.2,-6.5,46.23,1
2341,37.21,0.23,26.66,1
2342,37.22,-0.87,10.64,1
2343,37.24,-13.59,14.43,1
2344,37.25,-20.83,19.4,1
2345,37.27,-10.5,23.75,1
2346,37.28,4.77,26.88,1
2347,37.29,4.7,18.41,1
2348,37.31,-5.88,18.29,1
2349,37.32,-5.31,38.36,1
2350,37.33,3.69,44.46,1
2351,37.35,2.72,23.24,1
2352,37.36,-5.6,5.32,1
2353,37.37,-7.1,7.97,1
2354,37.38,-1.85,13.8,1
2355,37.4,2.81,5.31,1
2356,37.41,2.82,-3.5,1
2357,37.43,-3.3,4.34,1
2358,37.44,-10.8,13.07,1
2359,37.45,-12.6,12.44,1
2360,37.47,-10.14,16.37,1
2361,37.48,-5.46,18.52,1
2362,37.49,0.81,7.52,1
2363,37.51,1.32,0.46,1
2364,37.52,-1.24,4.15,1
2365,37.53,3.42,9.25,1
2366,37.54,7.16,16.78,1
2367,37.56,2.4,17.32,1
2368,37.57,-1.47,3.23,1
2369,37.59,-0.54,-7.54,1
2370,37.6,3.62,-8.96,1
2371,37.61,7.71,-12.23,1
2372,37.63,3.1,-11.75,1
2373,37.64,-4.01,-4.76,1
2374,37.65,0.15,-6.89,1
2375,37.67,6.86,-10.82,1
2376,37.68,5.54,-0.35,1
2377,37.69,5.13,2.29,1
2378,37.71,8.35,-18.21,1
2379,37.72,4.89,-37.08,1
2380,37.73,-4.09,-32.6,1
2381,37.75,-4.92,-10.94,1
2382,37.76,1.97,-0.3,1
2383,37.77,-0.22,-12.43,1
2384,37.79,-7.1,-22.75,1
2385,37.8,0.9,-17.16,1
2386,37.81,11.25,-7.21,1
2387,37.83,5.38,-2.83,1
2388,37.84,-0.69,-9.15,1
2389,37.85,1.99,-18.38,1
2390,37.87,-2.54,-12.07,1
2391,37.88,-9.55,-1.44,1
2392,37.89,-4.58,-12.57,1
2393,37.9,1.0,-27.15,1
2394,37.92,-2.41,-18.11,1
2395,37.93,-7.77,-8.19,1
2396,37.95,-9.43,-18.24,1
2397,37.96,-0.36,-29.65,1
2398,37.97,13.06,-32.37,1
2399,37.99,13.73,-33.45,1
2400,38.0,10.45,-32.0,1
2401,38.01,14.5,-27.08,1
2402,38.03,13.47,-17.94,1
2403,38.04,5.35,-8.4,1
2404,38.05,0.31,-9.25,1
2405,38.06,-0.7,-16.35,1
2406,38.08,1.35,-22.08,1
2407,38.09,4.34,-26.94,1
2408,38.11,4.14,-21.03,1
2409,38.12,4.44,-8.4,1
2410,38.13,8.12,-10.27,1
2411,38.15,8.15,-19.68,1
2412,38.16,2.85,-33.46,2
2413,38.17,-0.42,-68.63,2
2414,38.19,1.6,-82.98,2
2415,38.2,7.93,-25.71,2
2416,38.21,12.02,65.65,2
2417,38.22,6.47,135.42,2
2418,38.24,-2.52,188.05,2
2419,38.25,-9.76,242.41,2
2420,38.27,-22.86,230.48,2
2421,38.28,-30.39,129.96,2
2422,38.29,1.62,96.35,2
2423,38.31,62.73,169.73,2
2424,38.32,78.42,197.63,2
2425,38.33,17.9,146.42,2
2426,38.35,-40.32,95.08,2
2427,38.36,-30.38,55.84,2
2428,38.37,5.81,33.18,2
2429,38.38,16.04,47.63,2
2430,38.4,6.3,46.23,2
2431,38.41,-4.71,13.17,2
2432,38.43,-12.23,-19.4,2
2433,38.44,-26.74,-98.78,2
2434,38.45,-40.13,-178.39,2
2435,38.47,-26.92,-169.66,2
2436,38.48,-5.59,-175.19,2
2437,38.49,-0.17,-242.27,2
2438,38.51,6.03,-256.96,2
2439,38.52,16.78,-222.38,2
2440,38.53,13.8,-199.59,2
2441,38.54,6.01,-134.62,2
2442,38.56,3.04,-63.82,1
2443,38.57,-14.63,-100.79,1
2444,38.59,-31.91,-145.28,1
2445,38.6,-13.11,-108.89,1
2446,38.61,11.66,-119.23,1
2447,38.63,3.88,-160.22,1
2448,38.64,-5.98,-110.72,1
2449,38.65,5.31,-65.3,1
2450,38.67,5.59,-88.06,1
2451,38.68,-11.96,-78.32,1
2452,38.69,-19.45,-37.65,1
2453,38.71,-11.96,-40.34,1
2454,38.72,-3.83,-74.32,1
2455,38.73,-7.83,-88.38,1
2456,38.75,-12.99,-79.2,1
2457,38.76,-2.23,-82.12,1
2458,38.77,12.05,-92.88,1
2459,38.79,20.62,-73.99,1
2460,38.8,26.15,-11.04,1
2461,38.81,23.39,51.21,1
2462,38.83,9.56,54.39,1
2463,38.84,-5.31,9.58,1
2464,38.85,-6.02,-43.29,1
2465,38.87,2.05,-101.55,1
2466,38.88,7.02,-141.6,1
2467,38.89,19.52,-88.24,1
2468,38.9,33.97,20.15,1
2469,38.92,15.21,26.48,1
2470,38.93,-21.26,-54.02,1
2471,38.95,-16.57,-22.58,1
2472,38.96,14.63,116.62,1
2473,38.97,14.12,136.07,1
2474,38.99,-1.45,54.19,1
2475,39.0,8.33,65.84,1
2476,39.01,14.36,122.47,1
2477,39.03,-12.73,122.1,1
2478,39.04,-31.47,101.39,1
2479,39.05,-6.32,76.66,1
2480,39.06,25.91,44.77,1
2481,39.08,26.38,35.66,1
2482,39.09,13.3,73.83,1
2483,39.11,5.47,136.85,1
2484,39.12,-10.48,151.55,1
2485,39.13,-30.91,99.41,1
2486,39.15,-30.61,64.63,1
2487,39.16,-11.66,99.42,1
2488,39.17,-7.97,135.17,1
2489,39.19,-24.56,101.71,1
2490,39.2,-24.57,63.07,1
2491,39.21,-2.25,77.49,1
2492,39.22,10.73,83.19,1
2493,39.24,9.16,66.47,1
2494,39.25,0.48,70.78,1
2495,39.27,-14.63,73.36,1
2496,39.28,-20.28,47.73,1
2497,39.29,-18.35,24.02,1
2498,39.31,-23.01,42.54,1
2499,39.32,-17.11,70.9,1
2500,39.33,-2.17,42.15,1
2501,39.35,-3.12,-11.1,1
2502,39.36,-9.14,-31.12,1
2503,39.37,-3.76,-19.21,1
2504,39.38,5.95,33.66,1
2505,39.4,10.92,88.9,1
2506,39.41,10.72,71.57,1
2507,39.43,11.07,15.12,1
2508,39.44,9.83,-10.0,1
2509,39.45,7.42,-5.96,1
2510,39.47,14.76,-0.6,1
2511,39.48,20.91,2.95,1
2512,39.49,6.14,9.32,1
2513,39.51,-11.87,20.6,1
2514,39.52,2.42,59.06,1
2515,39.53,23.67,112.34,1
2516,39.54,-8.59,104.84,1
2517,39.56,-54.91,25.74,1
2518,39.57,-30.05,-32.29,1
2519,39.59,23.69,-18.68,1
2520,39.6,16.86,27.96,1
2521,39.61,-20.31,57.55,1
2522,39.63,-14.84,49.32,1
2523,39.64,16.42,20.2,1
2524,39.65,17.76,-17.5,1
2525,39.67,-2.57,-59.74,1
2526,39.68,-2.89,-70.54,1
2527,39.69,7.49,-53.3,1
2528,39.71,-0.96,-39.39,1
2529,39.72,-15.72,-22.63,1
2530,39.73,-15.87,-11.62,1
2531,39.75,0.27,-14.74,1
2532,39.76,16.34,-15.93,1
2533,39.77,5.27,-20.59,1
2534,39.79,-14.41,-34.91,1
2535,39.8,-3.21,-47.42,1
2536,39.81,15.72,-50.36,1
2537,39.83,6.82,-25.04,1
2538,39.84,-9.26,10.68,1
2539,39.85,-5.95,-15.03,1
2540,39.87,5.04,-52.49,1
2541,39.88,6.38,-8.33,1
2542,39.89,-0.58,13.83,1
2543,39.9,-5.83,-26.9,1
2544,39.92,4.4,-2.74,1
2545,39.93,19.19,13.0,1
2546,39.95,7.3,-82.99,1
2547,39.96,-19.67,-125.1,1
2548,39.97,-20.97,-51.68,1
2549,39.99,9.21,-3.57,1
2550,40.0,45.39,3.87,1
2551,40.01,53.26,6.31,1
2552,40.03,23.6,-7.28,1
2553,40.04,-5.37,-7.07,1
2554,40.05,-6.95,2.81,1
2555,40.07,3.97,-7.78,1
2556,40.08,6.71,8.5,1
2557,40.09,-9.65,73.37,1
2558,40.11,-25.03,104.83,1
2559,40.12,-8.7,66.33,1
2560,40.13,20.34,9.96,1
2561,40.15,32.78,-34.35,1
2562,40.16,29.2,-51.16,0
2563,40.17,14.08,-22.82,0
2564,40.19,6.31,-5.0,0
2565,40.2,9.8,-60.44,0
2566,40.21,-1.0,-126.58,0
2567,40.22,-10.77,-137.56,0
2568,40.24,2.74,-156.15,0
2569,40.25,7.21,-227.45,0
2570,40.27,-8.81,-284.05,0
2571,40.28,-7.18,-268.64,0
2572,40.29,11.49,-204.64,0
2573,40.31,11.31,-129.9,0
2574,40.32,0.62,-52.91,0
2575,40.33,4.75,17.09,0
2576,40.35,9.87,54.29,0
2577,40.36,-0.24,63.45,0
2578,40.37,-8.51,72.49,0
2579,40.38,-6.11,78.75,0
2580,40.4,-8.89,75.31,0
2581,40.41,-15.36,75.09,0
2582,40.43,-9.69,85.28,0
2583,40.44,0.22,98.04,0
2584,40.45,-6.23,97.43,0
2585,40.47,-19.91,83.35,0
2586,40.48,-14.89,79.8,0
2587,40.49,-2.4,87.21,0
2588,40.51,-5.85,82.54,0
2589,40.52,-13.78,77.2,0
2590,40.53,-12.88,81.71,0
2591,40.54,-10.51,74.97,0
2592,40.56,-9.83,63.95,1
2593,40.57,-7.8,63.97,1
2594,40.59,-8.42,57.15,1
2595,40.6,-13.69,47.51,1
2596,40.61,-12.4,55.52,1
2597,40.63,-2.44,58.15,1
2598,40.64,-0.03,38.09,1
2599,40.65,-9.64,26.98,1
2600,40.67,-14.99,40.65,1
2601,40.68,-5.5,54.91,1
2602,40.69,7.18,47.48,1
2603,40.71,6.83,26.25,1
2604,40.72,-1.08,23.17,1
2605,40.73,-1.87,39.7,1
2606,40.75,4.68,37.38,1
2607,40.76,8.71,15.15,1
2608,40.77,7.34,6.77,1
2609,40.79,4.7,12.44,1
2610,40.8,-1.65,16.54,1
2611,40.81,-11.31,15.98,1
2612,40.83,-10.84,10.7,1
2613,40.84,2.58,8.37,1
2614,40.85,8.04,14.1,1
2615,40.87,-4.79,21.88,1
2616,40.88,-11.79,25.9,1
2617,40.89,0.75,19.59,1
2618,40.9,9.17,3.35,1
2619,40.92,6.34,-6.12,1
2620,40.93,13.77,-5.99,1
2621,40.95,24.85,-15.9,1
2622,40.96,13.81,-28.87,1
2623,40.97,-7.14,-22.07,1
2624,40.99,-9.5,-10.69,1
2625,41.0,2.76,-13.22,1
2626,41.01,10.83,-16.15,1
2627,41.03,6.69,-15.99,1
2628,41.04,-5.08,-21.1,1
2629,41.05,-8.54,-24.54,1
2630,41.06,1.68,-24.15,1
2631,41.08,6.21,-23.8,1
2632,41.09,-5.22,-18.49,1
2633,41.11,-11.48,-16.74,1
2634,41.12,2.84,-25.76,1
2635,41.13,18.91,-29.2,1
2636,41.15,14.3,-24.4,1
2637,41.16,2.87,-20.18,1
2638,41.17,6.59,-19.48,1
2639,41.19,11.82,-28.38,1
2640,41.2,0.17,-31.09,1
2641,41.21,-13.8,-17.41,1
2642,41.22,-10.95,-19.2,1
2643,41.24,5.18,-33.59,1
2644,41.25,18.14,-25.5,1
2645,41.27,15.21,-15.91,1
2646,41.28,3.97,-28.48,1
2647,41.29,2.73,-33.0,1
2648,41.31,3.54,-19.95,1
2649,41.32,-8.95,-12.41,1
2650,41.33,-15.74,-10.86,1
2651,41.35,-5.47,-9.97,1
2652,41.36,1.33,-14.35,1
2653,41.37,1.05,-19.3,1
2654,41.38,-0.23,-25.41,1
2655,41.4,-7.97,-36.48,1
2656,41.41,-9.7,-38.41,1
2657,41.43,5.6,-25.69,1
2658,41.44,12.05,-15.19,1
2659,41.45,-4.03,-20.86,1
2660,41.47,-14.12,-34.89,1
2661,41.48,-3.15,-32.85,1
2662,41.49,6.81,-15.24,1
2663,41.51,2.5,-12.5,1
2664,41.52,-4.55,-26.45,1
2665,41.53,-5.69,-31.65,1
2666,41.54,-2.56,-30.21,1
2667,41.56,2.72,-27.86,1
2668,41.57,6.53,-11.56,1
2669,41.59,2.33,1.71,1
2670,41.6,-5.46,-9.07,1
2671,41.61,-3.69,-14.21,1
2672,41.63,2.28,-3.64,1
2673,41.64,-2.1,-9.53,1
2674,41.65,-7.08,-26.71,1
2675,41.67,1.32,-28.59,1
2676,41.68,7.3,-23.51,1
2677,41.69,-5.26,-19.88,1
2678,41.71,-19.14,-8.41,1
2679,41.72,-16.28,2.69,1
2680,41.73,-5.51,1.69,1
2681,41.75,-1.44,-6.83,1
2682,41.76,-1.42,-15.68,1
2683,41.77,6.28,-14.94,1
2684,41.79,14.11,-4.7,1
2685,41.8,7.96,3.37,1
2686,41.81,-2.3,5.29,1
2687,41.83,-7.75,-0.3,1
2688,41.84,-10.69,-4.43,1
2689,41.85,-6.88,5.11,1
2690,41.87,0.46,13.06,1
2691,41.88,0.67,6.69,1
2692,41.89,-4.57,0.36,1
2693,41.9,-7.65,3.18,1
2694,41.92,-7.17,9.09,1
2695,41.93,-7.11,8.77,1
2696,41.95,-7.53,0.22,1
2697,41.96,-0.99,-0.36,1
2698,41.97,10.1,12.41,1
2699,41.99,11.9,14.36,1
2700,42.0,3.02,3.84,1
2701,42.01,-1.96,5.22,1
2702,42.03,3.46,10.84,1
2703,42.04,9.15,8.2,1
2704,42.05,9.68,9.67,1
2705,42.06,6.84,11.65,1
2706,42.08,-1.44,8.29,1
2707,42.09,-10.51,8.78,1
2708,42.11,-12.86,1.64,1
2709,42.12,-8.86,-13.46,1
2710,42.13,0.79,-2.93,1
2711,42.15,12.66,22.86,1
2712,42.16,18.34,9.9,0
2713,42.17,14.97,-43.03,0
2714,42.19,9.74,-91.08,0
2715,42.2,6.53,-113.49,0
2716,42.21,0.56,-116.89,0
2717,42.22,-6.98,-110.77,0
2718,42.24,-6.37,-98.56,0
2719,42.25,9.58,-90.41,0
2720,42.27,33.12,-100.11,0
2721,42.28,44.4,-106.1,0
2722,42.29,37.42,-81.49,0
2723,42.31,25.53,-53.06,0
2724,42.32,22.4,-44.79,0
2725,42.33,24.0,-35.13,0
2726,42.35,17.27,-13.51,0
2727,42.36,8.5,11.28,0
2728,42.37,5.94,39.12,0
2729,42.38,-7.82,64.83,0
2730,42.4,-31.65,82.76,0
2731,42.41,-36.73,103.64,0
2732,42.43,-26.71,132.41,0
2733,42.44,-25.2,155.42,0
2734,42.45,-26.38,161.11,0
2735,42.47,-19.04,152.9,0
2736,42.48,-16.01,153.12,0
2737,42.49,-22.99,175.72,0
2738,42.51,-31.35,190.94,0
2739,42.52,-40.82,177.61,0
2740,42.53,-40.09,160.65,0
2741,42.54,-22.51,147.98,0
2742,42.56,-8.98,129.06,1
2743,42.57,-3.04,117.63,1
2744,42.59,5.16,113.87,1
2745,42.6,10.32,100.46,1
2746,42.61,10.99,84.55,1
2747,42.63,3.68,73.53,1
2748,42.64,-10.97,63.65,1
2749,42.65,-14.03,60.22,1
2750,42.66,-4.6,53.95,1
2751,42.68,2.56,35.36,1
2752,42.69,7.2,23.04,1
2753,42.71,9.1,19.34,1
2754,42.72,8.74,8.7,1
2755,42.73,11.94,1.84,1
2756,42.75,11.8,4.34,1
2757,42.76,4.29,-0.25,1
2758,42.77,2.89,-10.67,1
2759,42.79,6.96,-18.0,1
2760,42.8,4.96,-20.91,1
2761,42.81,5.51,-18.88,1
2762,42.83,10.66,-20.62,1
2763,42.84,2.56,-25.92,1
2764,42.85,-11.88,-25.88,1
2765,42.87,-11.2,-32.83,1
2766,42.88,-2.58,-46.54,1
2767,42.89,-1.41,-41.44,1
2768,42.9,-4.69,-28.76,1
2769,42.92,-4.97,-39.81,1
2770,42.93,2.57,-61.6,1
2771,42.95,12.31,-65.96,1
2772,42.96,8.36,-54.09,1
2773,42.97,-2.92,-42.38,1
2774,42.99,-2.79,-46.22,1
2775,43.0,2.59,-60.3,1
2776,43.01,2.55,-59.64,1
2777,43.03,2.51,-48.36,1
2778,43.04,5.59,-49.75,1
2779,43.05,7.51,-55.21,1
2780,43.06,7.22,-54.96,1
2781,43.08,6.69,-57.37,1
2782,43.09,10.28,-53.45,1
2783,43.11,16.74,-43.17,1
2784,43.12,12.33,-46.95,1
2785,43.13,-3.76,-54.08,1
2786,43.15,-10.28,-48.84,1
2787,43.16,-1.34,-46.09,1
2788,43.17,4.18,-48.57,1
2789,43.19,2.11,-46.26,1
2790,43.2,8.2,-43.88,1
2791,43.21,17.52,-41.72,1
2792,43.22,10.56,-39.69,1
2793,43.24,-6.71,-41.37,1
2794,43.25,-7.9,-35.46,1
2795,43.27,8.7,-25.66,1
2796,43.28,13.22,-32.08,1
2797,43.29,-1.04,-43.22,1
2798,43.3,-7.44,-39.2,1
2799,43.32,0.51,-28.69,1
2800,43.33,6.68,-21.59,1
2801,43.35,8.58,-21.76,1
2802,43.36,9.54,-30.7,1
2803,43.37,4.95,-32.35,1
2804,43.38,-3.01,-21.66,1
2805,43.4,-6.66,-15.7,1
2806,43.41,-5.93,-13.84,1
2807,43.43,-2.09,-11.39,1
2808,43.44,6.39,-17.4,1
2809,43.45,14.56,-23.26,1
2810,43.47,15.52,-18.62,1
2811,43.48,7.8,-14.3,1
2812,43.49,-4.51,-12.02,1
2813,43.51,-11.22,-7.53,1
2814,43.52,-7.45,-6.2,1
2815,43.53,-2.72,-5.29,1
2816,43.54,-3.69,-1.33,1
2817,43.56,-5.44,0.34,1
2818,43.57,-6.66,1.96,1
2819,43.59,-10.14,5.92,1
2820,43.6,-9.53,3.91,1
2821,43.61,-0.99,-2.09,1
2822,43.63,5.24,-0.85,1
2823,43.64,2.7,2.96,1
2824,43.65,-2.61,1.59,1
2825,43.67,-3.81,-1.4,1
2826,43.68,-1.29,-3.52,1
2827,43.69,-1.34,1.41,1
2828,43.71,-7.57,14.11,1
2829,43.72,-12.1,17.18,1
2830,43.73,-7.15,9.78,1
2831,43.75,-3.03,9.37,1
2832,43.76,-7.57,15.74,1
2833,43.77,-7.23,21.38,1
2834,43.79,2.14,22.64,1
2835,43.8,6.09,17.83,1
2836,43.81,1.51,19.1,1
2837,43.83,-3.09,29.39,1
2838,43.84,-0.55,31.33,1
2839,43.85,7.89,24.58,1
2840,43.87,8.99,17.81,1
2841,43.88,1.1,5.85,1
2842,43.89,0.21,-4.4,1
2843,43.9,4.4,-3.15,1
2844,43.92,0.05,-0.38,1
2845,43.93,-6.26,5.33,1
2846,43.94,-4.21,20.03,1
2847,43.96,1.38,26.61,1
2848,43.97,4.02,19.69,1
2849,43.99,2.1,18.94,1
2850,44.0,-1.4,30.03,1
2851,44.01,-0.34,40.99,1
2852,44.03,3.56,39.67,1
2853,44.04,1.33,24.33,1
2854,44.05,-7.43,14.46,1
2855,44.06,-11.68,17.75,1
2856,44.08,-6.25,15.32,1
2857,44.09,0.64,13.39,1
2858,44.11,-0.05,25.95,1
2859,44.12,-1.25,29.96,1
2860,44.13,10.75,20.46,1
2861,44.15,21.79,24.51,1
2862,44.16,13.46,43.08,2
2863,44.17,1.8,71.96,2
2864,44.19,-1.7,126.41,2
2865,44.2,-6.27,206.03,2
2866,44.21,-8.82,288.41,2
2867,44.22,-15.96,332.76,2
2868,44.24,-40.97,303.82,2
2869,44.25,-55.22,230.87,2
2870,44.27,-37.11,166.6,2
2871,44.28,-20.13,106.56,2
2872,44.29,-16.4,37.18,2
2873,44.31,-1.64,-23.38,2
2874,44.32,15.29,-71.33,2
2875,44.33,16.43,-113.68,2
2876,44.35,17.35,-153.45,2
2877,44.36,23.96,-198.41,2
2878,44.37,20.58,-234.46,2
2879,44.38,11.39,-235.65,2
2880,44.4,12.12,-211.02,2
2881,44.41,19.18,-188.96,2
2882,44.43,21.49,-176.44,2
2883,44.44,17.62,-164.27,2
2884,44.45,11.44,-144.85,2
2885,44.47,7.37,-124.55,2
2886,44.48,6.75,-122.69,2
2887,44.49,5.77,-127.48,2
2888,44.51,2.93,-104.37,2
2889,44.52,-1.27,-69.79,2
2890,44.53,-2.61,-53.96,2
2891,44.54,4.34,-45.33,2
2892,44.56,7.97,-42.01,1
2893,44.57,-1.83,-50.06,1
2894,44.58,-7.89,-53.47,1
2895,44.6,2.75,-45.34,1
2896,44.61,15.68,-29.44,1
2897,44.625,16.19,-15.82,1
2898,44.64,9.56,-20.65,1
2899,44.65,8.4,-31.64,1
2900,44.67,9.73,-22.52,1
2901,44.68,1.81,-3.14,1
2902,44.69,-7.05,8.03,1
2903,44.71,-4.6,16.12,1
2904,44.72,0.09,16.68,1
2905,44.73,-0.39,6.73,1
2906,44.75,-1.19,6.6,1
2907,44.76,-4.04,13.59,1
2908,44.77,-12.79,13.72,1
2909,44.79,-16.25,18.26,1
2910,44.8,-4.82,25.56,1
2911,44.81,6.76,23.51,1
2912,44.83,0.73,19.28,1
2913,44.84,-9.24,15.44,1
2914,44.85,-0.33,13.71,1
2915,44.87,14.99,22.99,1
2916,44.88,13.73,31.62,1
2917,44.89,3.42,30.06,1
2918,44.9,-3.43,33.97,1
2919,44.92,-12.87,41.38,1
2920,44.93,-22.41,38.09,1
2921,44.95,-17.62,37.3,1
2922,44.96,-5.53,47.44,1
2923,44.97,-2.28,52.84,1
2924,44.99,-1.93,52.48,1
2925,45.0,4.63,50.39,1
2926,45.01,6.88,44.49,1
2927,45.03,-4.47,43.48,1
2928,45.04,-12.72,42.23,1
2929,45.05,-0.26,30.98,1
2930,45.06,13.29,28.65,1
2931,45.08,2.93,40.74,1
2932,45.09,-16.81,44.95,1
2933,45.11,-24.53,41.68,1
2934,45.12,-22.54,42.43,1
2935,45.13,-11.94,37.46,1
2936,45.15,5.26,22.7,1
2937,45.16,12.67,17.45,1
2938,45.17,5.58,30.21,1
2939,45.19,-5.08,36.83,1
2940,45.2,-11.87,22.62,1
2941,45.21,-7.63,12.72,1
2942,45.22,2.75,27.91,1
2943,45.24,-2.25,46.83,1
2944,45.25,-16.13,42.66,1
2945,45.26,-8.65,23.69,1
2946,45.28,10.62,11.02,1
2947,45.29,7.84,10.21,1
2948,45.31,-9.21,15.13,1
2949,45.32,-13.6,16.87,1
2950,45.33,-10.83,21.82,1
2951,45.35,-10.0,33.63,1
2952,45.36,-2.87,26.27,1
2953,45.37,3.21,-0.34,1
2954,45.38,-2.38,-3.36,1
2955,45.4,-3.73,16.04,1
2956,45.41,9.76,15.22,1
2957,45.43,17.03,-0.64,1
2958,45.44,7.2,0.87,1
2959,45.45,5.16,12.73,1
2960,45.47,16.46,13.81,1
2961,45.48,11.23,3.98,1
2962,45.49,-8.49,-1.93,1
2963,45.51,-9.31,3.16,1
2964,45.52,3.76,0.81,1
2965,45.53,2.73,-11.76,1
2966,45.54,-6.14,-7.23,1
2967,45.56,-5.83,5.02,1
2968,45.57,2.46,-1.68,1
2969,45.59,11.54,-11.2,1
2970,45.6,12.21,-11.6,1
2971,45.61,5.86,-15.34,1
2972,45.63,7.32,-13.82,1
2973,45.64,12.98,-3.0,1
2974,45.65,7.19,-5.36,1
2975,45.67,0.28,-16.48,1
2976,45.68,6.43,-13.91,1
2977,45.69,12.94,-7.4,1
2978,45.71,10.48,-10.64,1
2979,45.72,10.57,-14.17,1
2980,45.73,16.24,-12.31,1
2981,45.75,13.58,-10.86,1
2982,45.76,-2.58,-17.51,1
2983,45.77,-19.34,-27.67,1
2984,45.79,-24.4,-25.15,1
2985,45.8,-19.81,-16.2,1
2986,45.81,-10.4,-12.47,1
2987,45.83,2.21,-3.89,1
2988,45.84,7.71,2.44,1
2989,45.85,0.09,-4.94,1
2990,45.86,-4.1,-7.77,1
2991,45.88,5.4,-5.27,1
2992,45.89,12.35,-11.13,1
2993,45.9,6.63,-11.07,1
2994,45.92,-1.37,-5.65,1
2995,45.93,-6.36,-14.7,1
2996,45.95,-8.2,-25.97,1
2997,45.96,-2.4,-24.07,1
2998,45.97,5.2,-17.04,1
2999,45.99,1.49,-9.97,1
3000,46.0,-8.67,-7.6,1
3001,46.01,-9.63,-13.63,1
3002,46.03,-3.51,-18.39,1
3003,46.04,-2.83,-19.35,1
3004,46.05,-5.97,-18.96,1
3005,46.06,-9.0,-15.12,1
3006,46.08,-11.93,-13.49,1
3007,46.09,-6.43,-9.2,1
3008,46.11,5.97,0.63,1
3009,46.12,12.48,-5.72,1
3010,46.13,15.49,-28.86,1
3011,46.15,16.63,-42.74,1
3012,46.16,5.52,-51.56,2
3013,46.17,-9.14,-59.14,2
3014,46.19,-9.08,-8.39,2
3015,46.2,-0.48,136.63,2
3016,46.21,1.49,270.34,2
3017,46.22,-4.73,231.92,2
3018,46.24,-13.66,54.58,2
3019,46.25,-21.32,-36.04,2
3020,46.27,-21.09,36.65,2
3021,46.28,-7.2,119.62,2
3022,46.29,2.31,92.32,2
3023,46.31,-4.57,-28.61,2
3024,46.32,-2.67,-103.62,2
3025,46.33,13.64,2.34,2
3026,46.35,20.56,160.37,2
3027,46.36,23.82,163.83,2
3028,46.37,36.25,91.37,2
3029,46.38,34.33,69.44,2
3030,46.4,10.01,62.12,2
3031,46.41,-6.15,29.14,2
3032,46.43,0.63,-53.22,2
3033,46.44,10.11,-134.44,2
3034,46.45,-3.53,-136.46,2
3035,46.47,-25.99,-104.15,2
3036,46.48,-19.07,-90.24,2
3037,46.49,12.31,-102.95,2
3038,46.5,27.69,-145.58,2
3039,46.52,9.44,-195.03,2
3040,46.53,-8.72,-200.12,2
3041,46.54,-1.83,-155.12,2
3042,46.56,-6.58,-148.22,1
3043,46.57,-26.43,-186.93,1
3044,46.59,-10.6,-180.5,1
3045,46.6,22.21,-133.8,1
3046,46.61,19.41,-100.48,1
3047,46.63,-5.15,-54.89,1
3048,46.64,-27.57,19.47,1
3049,46.65,-40.2,20.79,1
3050,46.67,-25.93,-89.37,1
3051,46.68,-1.43,-149.78,1
3052,46.69,8.76,-77.98,1
3053,46.71,14.13,-3.78,1
3054,46.72,17.52,-11.5,1
3055,46.73,17.37,-31.0,1
3056,46.75,6.38,-11.75,1
3057,46.76,-28.78,-18.13,1
3058,46.77,-46.65,-58.44,1
3059,46.79,-9.87,-52.51,1
3060,46.8,25.53,-39.04,1
3061,46.81,17.85,-67.33,1
3062,46.83,13.13,-44.81,1
3063,46.84,29.85,39.12,1
3064,46.85,25.53,86.6,1
3065,46.87,-2.08,79.22,1
3066,46.88,-13.74,34.68,1
3067,46.89,-6.9,-1.28,1
3068,46.9,0.81,31.34,1
3069,46.92,17.34,68.16,1
3070,46.93,32.06,48.5,1
3071,46.95,8.58,39.74,1
3072,46.96,-24.2,43.87,1
3073,46.97,-3.17,11.33,1
3074,46.99,33.08,7.73,1
3075,47.0,11.73,57.2,1
3076,47.01,-28.85,75.52,1
3077,47.03,-29.46,60.14,1
3078,47.04,-18.44,43.32,1
3079,47.05,-17.72,9.0,1
3080,47.06,-2.93,-0.72,1
3081,47.08,13.04,38.4,1
3082,47.09,6.78,47.65,1
3083,47.11,-0.24,22.47,1
3084,47.12,0.61,47.18,1
3085,47.13,-4.19,92.52,1
3086,47.14,-2.25,79.44,1
3087,47.16,9.27,54.33,1
3088,47.17,10.39,56.96,1
3089,47.18,6.76,24.91,1
3090,47.2,3.08,-14.38,1
3091,47.21,-12.46,34.4,1
3092,47.22,-17.1,88.62,1
3093,47.24,4.72,26.65,1
3094,47.25,9.48,-37.19,1
3095,47.27,-11.2,7.75,1
3096,47.28,-12.6,48.39,1
3097,47.29,-4.69,32.7,1
3098,47.31,-17.92,45.77,1
3099,47.32,-23.08,78.49,1
3100,47.33,-1.39,71.85,1
3101,47.35,8.98,32.32,1
3102,47.36,-8.42,-0.96,1
3103,47.37,-19.4,7.19,1
3104,47.38,-3.26,35.02,1
3105,47.4,19.65,40.14,1
3106,47.41,21.91,53.26,1
3107,47.43,2.63,86.17,1
3108,47.44,-17.42,77.82,1
3109,47.45,-22.06,29.28,1
3110,47.47,-8.37,-4.67,1
3111,47.48,13.63,-10.75,1
3112,47.49,26.78,9.99,1
3113,47.51,23.86,26.15,1
3114,47.52,8.86,-6.33,1
3115,47.53,-5.73,-36.65,1
3116,47.54,-1.49,-23.48,1
3117,47.56,11.91,-25.47,1
3118,47.57,8.69,-31.3,1
3119,47.59,-2.39,6.32,1
3120,47.6,-2.34,34.4,1
3121,47.61,11.27,48.4,1
3122,47.63,36.51,89.83,1
3123,47.64,50.79,101.61,1
3124,47.65,25.07,68.63,1
3125,47.67,-17.53,73.18,1
3126,47.68,-34.1,106.17,1
3127,47.69,-30.95,73.09,1
3128,47.71,-24.37,-24.54,1
3129,47.72,-10.36,-74.29,1
3130,47.73,1.99,-24.86,1
3131,47.75,2.92,29.92,1
3132,47.76,-4.36,-10.0,1
3133,47.77,-19.73,-85.16,1
3134,47.78,-26.69,-73.29,1
3135,47.8,-6.63,-11.63,1
3136,47.81,4.23,-4.62,1
3137,47.82,-18.88,-25.32,1
3138,47.84,-26.75,-12.19,1
3139,47.85,-9.26,26.57,1
3140,47.86,-3.67,49.34,1
3141,47.88,-0.31,27.39,1
3142,47.89,-0.74,-2.25,1
3143,47.9,-18.18,-8.26,1
3144,47.92,-12.72,-41.79,1
3145,47.93,17.16,-99.9,1
3146,47.95,16.82,-99.84,1
3147,47.96,-5.76,-46.23,1
3148,47.97,-1.36,-15.03,1
3149,47.99,19.53,-12.85,1
3150,48.0,23.19,-3.75,1
3151,48.01,21.69,3.27,1
3152,48.03,22.27,-0.66,1
3153,48.04,7.53,7.76,1
3154,48.05,-2.79,12.81,1
3155,48.06,6.46,-13.56,1
3156,48.08,-0.06,-28.85,1
3157,48.09,-23.69,13.03,1
3158,48.11,-19.27,57.76,1
3159,48.12,6.11,30.36,1
3160,48.13,2.85,-30.46,1
3161,48.15,-24.09,-54.47,1
3162,48.16,-27.04,-45.77,0
3163,48.17,-2.0,-41.19,0
3164,48.19,19.45,-80.49,0
3165,48.2,24.69,-149.2,0
3166,48.21,18.28,-184.73,0
3167,48.22,10.45,-193.31,0
3168,48.24,4.39,-210.04,0
3169,48.25,-7.23,-217.11,0
3170,48.27,-11.45,-197.97,0
3171,48.28,5.22,-160.87,0
3172,48.29,22.69,-111.57,0
3173,48.31,26.15,-48.27,0
3174,48.32,27.29,21.48,0
3175,48.33,29.04,74.87,0
3176,48.35,20.51,104.71,0
3177,48.36,2.94,120.48,0
3178,48.37,-10.71,119.81,0
3179,48.38,-15.09,107.7,0
3180,48.4,-12.74,96.18,0
3181,48.41,-7.91,84.4,0
3182,48.42,-8.09,80.08,0
3183,48.44,-15.47,86.01,0
3184,48.45,-17.5,80.0,0
3185,48.46,-10.62,63.2,0
3186,48.48,-7.0,61.33,0
3187,48.49,1.17,67.81,0
3188,48.5,20.32,62.34,0
3189,48.52,23.15,54.38,0
3190,48.53,4.29,53.26,0
3191,48.54,-4.03,52.29,0
3192,48.56,-0.02,52.81,1
3193,48.57,-6.67,56.07,1
3194,48.59,-13.85,53.49,1
3195,48.6,-4.35,41.3,1
3196,48.61,4.0,28.35,1
3197,48.63,-2.27,28.06,1
3198,48.64,-7.49,35.04,1
3199,48.65,-2.86,29.17,1
3200,48.67,3.58,20.82,1
3201,48.68,5.9,32.05,1
3202,48.69,5.9,38.28,1
3203,48.71,2.01,22.26,1
3204,48.72,-8.2,17.72,1
3205,48.73,-11.0,24.15,1
3206,48.75,2.22,13.85,1
3207,48.76,9.54,7.31,1
3208,48.77,-0.64,16.57,1
3209,48.79,-7.67,19.05,1
3210,48.8,-4.9,14.67,1
3211,48.81,-5.96,6.79,1
3212,48.83,-5.16,-6.76,1
3213,48.84,5.65,-7.63,1
3214,48.85,9.94,1.55,1
3215,48.87,-0.18,-5.33,1
3216,48.88,-10.61,-15.57,1
3217,48.89,-11.76,-5.56,1
3218,48.9,-5.42,5.71,1
3219,48.92,-1.45,0.06,1
3220,48.93,-7.45,-6.3,1
3221,48.95,-14.65,-4.28,1
3222,48.96,-12.33,-5.45,1
3223,48.97,-6.31,-17.43,1
3224,48.99,-1.61,-31.4,1
3225,49.0,4.19,-29.8,1
3226,49.01,6.71,-19.23,1
3227,49.03,2.4,-20.61,1
3228,49.04,-4.85,-26.79,1
3229,49.05,-8.72,-25.29,1
3230,49.06,-2.48,-21.06,1
3231,49.08,8.08,-16.42,1
3232,49.09,12.73,-18.17,1
3233,49.1,15.65,-31.66,1
3234,49.12,17.4,-37.44,1
3235,49.13,11.59,-25.5,1
3236,49.14,3.0,-13.97,1
3237,49.16,-2.61,-12.63,1
3238,49.17,-5.63,-17.29,1
3239,49.19,-6.34,-21.07,1
3240,49.2,-3.26,-20.34,1
3241,49.21,4.79,-22.22,1
3242,49.22,12.02,-24.52,1
3243,49.24,11.89,-16.44,1
3244,49.25,7.98,-11.49,1
3245,49.27,6.35,-25.36,1
3246,49.28,5.18,-38.13,1
3247,49.29,1.89,-33.73,1
3248,49.31,0.04,-23.01,1
3249,49.32,-4.91,-12.13,1
3250,49.33,-17.89,-4.99,1
3251,49.35,-24.88,-6.1,1
3252,49.36,-14.51,-11.76,1
3253,49.37,2.56,-23.75,1
3254,49.38,9.42,-37.57,1
3255,49.4,5.11,-35.81,1
3256,49.41,3.46,-21.82,1
3257,49.43,4.73,-15.75,1
3258,49.44,-4.24,-18.87,1
3259,49.45,-15.18,-20.61,1
3260,49.47,-7.28,-18.16,1
3261,49.48,9.51,-12.09,1
3262,49.49,6.18,-7.38,1
3263,49.51,-10.91,-14.3,1
3264,49.52,-9.08,-27.15,1
3265,49.53,11.15,-25.76,1
3266,49.54,15.68,-11.39,1
3267,49.56,-3.02,-5.74,1
3268,49.57,-14.71,-15.67,1
3269,49.59,-5.83,-23.53,1
3270,49.6,3.52,-13.0,1
3271,49.61,1.32,-1.71,1
3272,49.63,2.43,-10.68,1
3273,49.64,16.51,-17.25,1
3274,49.65,22.5,-7.98,1
3275,49.67,5.77,-2.35,1
3276,49.68,-12.59,-0.38,1
3277,49.69,-13.36,-3.67,1
3278,49.7,-2.52,-15.1,1
3279,49.72,7.37,-8.34,1
3280,49.73,6.28,9.92,1
3281,49.74,-4.03,5.32,1
3282,49.76,-8.14,-5.55,1
3283,49.77,-0.03,-0.1,1
3284,49.78,8.13,4.27,1
3285,49.8,5.73,4.29,1
3286,49.81,-2.6,7.7,1
3287,49.825,-5.48,10.04,1
3288,49.84,-2.89,16.93,1
3289,49.85,-6.28,18.08,1
3290,49.87,-13.74,0.9,1
3291,49.88,-9.77,-4.87,1
3292,49.89,6.79,8.61,1
3293,49.9,16.18,11.9,1
3294,49.92,5.81,8.99,1
3295,49.93,-8.72,13.32,1
3296,49.95,-9.29,11.91,1
3297,49.96,-2.77,2.9,1
3298,49.97,-3.03,-1.69,1
3299,49.99,-5.4,-1.17,1
3300,50.0,0.37,1.34,1
3301,50.01,7.65,5.7,1
3302,50.03,7.54,10.04,1
3303,50.04,2.41,14.23,1
3304,50.05,-5.18,14.23,1
3305,50.06,-10.25,5.1,1
3306,50.08,-9.21,0.21,1
3307,50.09,-5.81,5.89,1
3308,50.11,0.49,7.12,1
3309,50.12,4.35,7.43,1
3310,50.13,-3.6,16.1,1
3311,50.15,-6.55,18.02,1
3312,50.16,9.97,9.55,0
3313,50.17,21.6,-8.4,0
3314,50.19,10.05,-55.26,0
3315,50.2,-5.67,-114.25,0
3316,50.21,-1.64,-138.32,0
3317,50.22,24.24,-132.89,0
3318,50.24,52.06,-130.75,0
3319,50.25,54.78,-137.3,0
3320,50.27,29.76,-151.08,0
3321,50.28,10.36,-156.66,0
3322,50.29,18.92,-126.31,0
3323,50.31,29.08,-70.88,0
3324,50.32,18.32,-20.38,0
3325,50.33,3.89,14.97,0
3326,50.34,-5.23,30.74,0
3327,50.36,-17.25,38.61,0
3328,50.37,-23.19,57.18,0
3329,50.38,-13.43,80.34,0
3330,50.4,-7.01,104.57,0
3331,50.41,-19.68,128.33,0
3332,50.42,-31.3,132.3,0
3333,50.44,-27.7,127.63,0
3334,50.45,-23.76,140.94,0
3335,50.46,-23.99,155.75,0
3336,50.48,-20.67,159.1,0
3337,50.49,-16.04,167.32,0
3338,50.51,-12.93,176.11,0
3339,50.52,-9.3,170.91,0
3340,50.53,-7.2,157.9,0
3341,50.54,-11.28,145.87,0
3342,50.56,-18.93,136.95,1
3343,50.57,-19.73,125.73,1
3344,50.59,-11.52,104.45,1
3345,50.6,-9.58,85.37,1
3346,50.61,-15.77,79.05,1
3347,50.63,-7.19,67.2,1
3348,50.64,11.52,47.67,1
3349,50.65,9.54,37.06,1
3350,50.67,-6.83,19.89,1
3351,50.68,-8.87,-11.87,1
3352,50.69,2.1,-25.67,1
3353,50.71,10.54,-9.27,1
3354,50.72,10.89,15.53,1
3355,50.73,2.09,27.44,1
3356,50.75,-6.51,17.56,1
3357,50.76,-7.42,0.9,1
3358,50.77,-10.17,-3.67,1
3359,50.79,-13.38,-3.66,1
3360,50.8,-6.72,-2.18,1
3361,50.81,2.65,3.14,1
3362,50.83,3.61,-4.98,1
3363,50.84,-3.22,-25.06,1
3364,50.85,-10.83,-34.39,1
3365,50.87,-12.88,-35.61,1
3366,50.88,-4.28,-38.68,1
3367,50.89,9.69,-40.96,1
3368,50.9,10.77,-46.32,1
3369,50.92,-0.47,-49.42,1
3370,50.93,-3.03,-39.65,1
3371,50.95,1.18,-35.91,1
3372,50.96,-3.11,-48.19,1
3373,50.97,-7.99,-51.98,1
3374,50.98,0.58,-45.08,1
3375,51.0,13.29,-44.92,1
3376,51.01,12.5,-49.9,1
3377,51.02,3.83,-54.72,1
3378,51.04,7.3,-53.27,1
3379,51.05,20.96,-46.22,1
3380,51.06,24.51,-51.67,1
3381,51.08,17.06,-59.93,1
3382,51.09,16.94,-44.41,1
3383,51.1,25.01,-26.92,1
3384,51.12,20.13,-37.06,1
3385,51.13,-1.98,-57.11,1
3386,51.15,-17.09,-60.27,1
3387,51.16,-11.27,-43.62,1
3388,51.17,3.23,-27.21,1
3389,51.19,15.53,-32.45,1
3390,51.2,21.59,-43.58,1
3391,51.21,16.17,-39.48,1
3392,51.22,9.7,-38.99,1
3393,51.24,11.91,-49.58,1
3394,51.25,7.98,-48.26,1
3395,51.27,-4.42,-37.52,1
3396,51.28,-5.3,-33.39,1
3397,51.29,4.04,-31.78,1
3398,51.31,4.19,-31.34,1
3399,51.32,-4.53,-31.51,1
3400,51.33,-5.65,-27.45,1
3401,51.35,4.27,-28.5,1
3402,51.36,11.75,-31.45,1
3403,51.37,9.26,-20.54,1
3404,51.38,7.12,-13.62,1
3405,51.4,10.09,-25.88,1
3406,51.41,6.61,-33.94,1
3407,51.43,-2.47,-25.94,1
3408,51.44,-3.38,-13.89,1
3409,51.45,-1.05,-6.5,1
3410,51.47,-4.25,-12.09,1
3411,51.48,-4.59,-20.49,1
3412,51.49,-1.01,-10.46,1
3413,51.51,-2.17,0.81,1
3414,51.52,-7.6,-3.82,1
3415,51.53,-11.97,-1.24,1
3416,51.54,-10.84,8.02,1
3417,51.56,-2.95,-2.21,1
3418,51.57,2.33,-20.26,1
3419,51.59,-2.43,-20.9,1
3420,51.6,-8.7,-5.69,1
3421,51.61,-7.57,12.48,1
3422,51.62,-3.91,18.14,1
3423,51.64,-4.34,6.6,1
3424,51.65,-5.95,-4.24,1
3425,51.66,-3.18,-3.81,1
3426,51.68,1.6,6.12,1
3427,51.69,3.3,21.18,1
3428,51.7,1.91,23.28,1
3429,51.72,-0.76,10.65,1
3430,51.73,-5.37,6.47,1
3431,51.74,-8.96,7.36,1
3432,51.76,-5.05,2.45,1
3433,51.77,4.19,6.82,1
3434,51.79,8.7,16.08,1
3435,51.8,6.49,12.3,1
3436,51.81,5.13,8.7,1
3437,51.83,8.2,12.19,1
3438,51.84,8.54,13.31,1
3439,51.85,-0.15,19.68,1
3440,51.87,-8.98,25.31,1
3441,51.88,-7.61,16.48,1
3442,51.89,-2.34,10.86,1
3443,51.9,2.87,13.08,1
3444,51.92,11.73,8.93,1
3445,51.93,13.45,7.04,1
3446,51.95,-0.21,12.04,1
3447,51.96,-13.59,16.46,1
3448,51.97,-12.99,22.05,1
3449,51.99,-4.02,20.01,1
3450,52.0,2.93,8.04,1
3451,52.01,2.17,7.85,1
3452,52.03,-3.64,20.2,1
3453,52.04,-8.6,27.97,1
3454,52.05,-10.37,33.81,1
3455,52.06,-8.35,35.97,1
3456,52.08,-7.25,24.81,1
3457,52.09,-8.64,12.39,1
3458,52.11,-2.06,10.2,1
3459,52.12,12.32,13.47,1
3460,52.13,17.82,18.24,1
3461,52.15,8.29,19.71,1
3462,52.16,-1.22,16.09,2
3463,52.17,2.19,18.66,2
3464,52.19,11.21,25.98,2
3465,52.2,10.82,25.29,2
3466,52.21,0.22,21.83,2
3467,52.22,-8.49,18.37,2
3468,52.24,-10.97,11.14,2
3469,52.25,-10.24,23.86,2
3470,52.26,-2.57,85.43,2
3471,52.28,11.39,187.43,2
3472,52.29,16.29,284.2,2
3473,52.3,-0.19,324.69,2
3474,52.32,-25.34,303.03,2
3475,52.33,-37.74,251.13,2
3476,52.34,-35.23,182.07,2
3477,52.36,-24.42,113.68,2
3478,52.37,-7.84,74.66,2
3479,52.38,0.16,35.58,2
3480,52.4,-10.31,-38.05,2
3481,52.41,-15.31,-112.01,2
3482,52.425,-0.76,-163.03,2
3483,52.44,5.84,-207.09,2
3484,52.45,-4.52,-231.18,2
3485,52.47,-2.92,-221.88,2
3486,52.48,14.91,-206.19,2
3487,52.49,22.98,-192.82,2
3488,52.51,16.92,-170.96,2
3489,52.52,11.64,-155.65,2
3490,52.53,11.09,-148.6,2
3491,52.54,13.42,-126.23,2
3492,52.56,16.87,-91.55,1
3493,52.57,14.53,-70.27,1
3494,52.59,8.46,-80.01,1
3495,52.6,9.18,-104.7,1
3496,52.61,13.12,-103.38,1
3497,52.63,9.44,-78.64,1
3498,52.64,2.14,-70.11,1
3499,52.65,2.12,-72.11,1
3500,52.67,9.16,-59.63,1
3501,52.68,10.53,-48.43,1
3502,52.69,0.59,-50.8,1
3503,52.71,-6.36,-51.95,1
3504,52.72,0.27,-41.28,1
3505,52.73,9.87,-20.93,1
3506,52.75,10.04,-9.64,1
3507,52.76,1.06,-19.3,1
3508,52.77,-8.37,-25.63,1
3509,52.79,-8.49,-11.48,1
3510,52.8,-2.84,5.77,1
3511,52.81,-3.43,11.38,1
3512,52.83,-4.08,5.76,1
3513,52.84,0.51,-3.81,1
3514,52.85,-1.54,-1.21,1
3515,52.87,-5.36,8.78,1
3516,52.88,-0.5,7.85,1
3517,52.89,-0.7,9.16,1
3518,52.9,-9.01,24.45,1
3519,52.92,-6.23,30.44,1
3520,52.93,7.87,21.13,1
3521,52.94,15.4,21.26,1
3522,52.96,9.24,36.97,1
3523,52.97,-4.72,50.07,1
3524,52.98,-12.64,46.34,1
3525,53.0,-6.09,35.24,1
3526,53.01,2.28,36.07,1
3527,53.02,2.44,47.22,1
3528,53.04,0.01,54.63,1
3529,53.05,-2.98,54.1,1
3530,53.06,-7.34,47.08,1
3531,53.08,-11.92,35.88,1
3532,53.09,-16.79,30.28,1
3533,53.11,-18.03,35.1,1
3534,53.12,-12.8,40.47,1
3535,53.13,-5.96,44.35,1
3536,53.15,-1.73,50.35,1
3537,53.16,0.1,49.36,1
3538,53.17,-0.31,41.71,1
3539,53.19,-1.65,41.39,1
3540,53.2,-5.61,48.06,1
3541,53.21,-13.83,50.54,1
3542,53.22,-15.29,46.14,1
3543,53.24,-6.39,38.7,1
3544,53.25,-2.71,37.89,1
3545,53.27,-5.59,43.22,1
3546,53.28,-0.84,37.07,1
3547,53.29,6.93,27.1,1
3548,53.31,4.23,29.76,1
3549,53.32,-1.06,25.11,1
3550,53.33,3.64,12.8,1
3551,53.35,10.62,23.85,1
3552,53.36,7.87,44.89,1
3553,53.37,0.68,47.11,1
3554,53.38,-0.72,37.19,1
3555,53.4,-1.01,25.0,1
3556,53.41,-7.36,17.21,1
3557,53.43,-10.77,19.34,1
3558,53.44,-2.98,21.75,1
3559,53.45,6.4,21.55,1
3560,53.47,6.42,19.94,1
3561,53.48,-1.52,9.1,1
3562,53.49,-7.08,-1.24,1
3563,53.51,-0.34,2.11,1
3564,53.52,12.11,9.33,1
3565,53.53,13.18,15.59,1
3566,53.54,6.05,21.19,1
3567,53.56,4.93,11.53,1
3568,53.57,4.3,-5.74,1
3569,53.58,-1.62,-3.75,1
3570,53.6,-1.33,7.06,1
3571,53.61,2.96,7.81,1
3572,53.62,-2.08,4.81,1
3573,53.64,-7.31,-0.62,1
3574,53.65,2.45,-6.37,1
3575,53.66,15.97,-3.97,1
3576,53.68,12.9,1.55,1
3577,53.69,-0.27,5.34,1
3578,53.7,0.72,7.82,1
3579,53.72,13.87,2.45,1
3580,53.73,14.21,-9.07,1
3581,53.75,-0.23,-18.9,1
3582,53.76,-10.98,-28.59,1
3583,53.77,-11.5,-30.9,1
3584,53.79,-5.33,-22.21,1
3585,53.8,0.59,-20.65,1
3586,53.81,-1.35,-22.23,1
3587,53.83,-4.54,-9.38,1
3588,53.84,1.55,0.31,1
3589,53.85,9.96,-7.71,1
3590,53.87,8.78,-16.8,1
3591,53.88,-0.87,-23.87,1
3592,53.89,-10.36,-32.03,1
3593,53.9,-10.85,-27.44,1
3594,53.92,0.26,-15.16,1
3595,53.93,12.78,-12.33,1
3596,53.95,14.29,-12.94,1
3597,53.96,5.24,-9.63,1
3598,53.97,-6.14,-6.84,1
3599,53.99,-11.13,-11.01,1
3600,54.0,-4.92,-23.39,1
3601,54.01,4.68,-29.11,1
3602,54.03,6.28,-22.26,1
3603,54.04,0.45,-22.02,1
3604,54.05,-6.51,-30.31,1
3605,54.06,-8.85,-29.86,1
3606,54.08,-3.62,-23.71,1
3607,54.09,2.66,-22.92,1
3608,54.11,6.0,-29.5,1
3609,54.12,9.07,-34.82,1
3610,54.13,10.25,-17.86,1
3611,54.15,8.38,6.34,1
3612,54.16,5.52,-7.75,2
3613,54.17,2.67,-42.77,2
3614,54.18,0.69,-46.36,2
3615,54.2,0.51,-23.32,2
3616,54.21,1.15,-0.39,2
3617,54.22,3.37,45.72,2
3618,54.24,9.17,144.37,2
3619,54.25,12.15,211.92,2
3620,54.26,17.36,112.19,2
3621,54.28,36.34,-82.21,2
3622,54.29,29.09,-79.56,2
3623,54.3,-28.67,145.45,2
3624,54.32,-69.27,231.0,2
3625,54.33,-54.29,144.52,2
3626,54.34,-20.17,195.78,2
3627,54.36,-0.85,309.32,2
3628,54.37,-4.39,260.96,2
3629,54.38,6.4,145.25,2
3630,54.4,21.41,102.56,2
3631,54.41,-20.74,88.69,2
3632,54.43,-52.55,14.77,2
3633,54.44,-6.43,-86.19,2
3634,54.45,25.39,-113.53,2
3635,54.47,-20.88,-88.14,2
3636,54.48,-70.56,-147.44,2
3637,54.49,-47.66,-294.29,2
3638,54.51,3.37,-359.68,2
3639,54.52,6.08,-284.69,2
3640,54.53,-9.25,-172.6,2
3641,54.54,16.29,-122.23,2
3642,54.56,52.87,-156.42,1
3643,54.57,50.47,-212.42,1
3644,54.59,29.88,-229.63,1
3645,54.6,30.24,-202.2,1
3646,54.61,34.28,-124.37,1
3647,54.63,13.27,-69.57,1
3648,54.64,-2.56,-117.13,1
3649,54.65,18.16,-144.41,1
3650,54.67,36.5,-61.72,1
3651,54.68,21.34,1.0,1
3652,54.69,9.6,-21.07,1
3653,54.71,23.4,-37.24,1
3654,54.72,24.07,-29.91,1
3655,54.73,-4.1,-63.45,1
3656,54.75,-17.84,-117.71,1
3657,54.76,0.16,-119.52,1
3658,54.77,17.73,-73.69,1
3659,54.79,16.76,-50.07,1
3660,54.8,0.98,-67.77,1
3661,54.81,-22.78,-68.0,1
3662,54.82,-31.94,-21.61,1
3663,54.84,-17.13,21.28,1
3664,54.85,-5.31,25.4,1
3665,54.86,-5.94,29.55,1
3666,54.88,-2.75,53.76,1
3667,54.89,0.74,37.89,1
3668,54.9,2.1,-41.31,1
3669,54.92,14.57,-89.7,1
3670,54.93,28.97,-24.01,1
3671,54.94,14.54,86.36,1
3672,54.96,-36.75,114.92,1
3673,54.97,-73.79,69.93,1
3674,54.98,-50.34,16.82,1
3675,55.0,-15.71,-37.59,1
3676,55.01,-14.67,-32.8,1
3677,55.025000000000006,-8.39,66.31,1
3678,55.04,1.96,140.82,1
3679,55.05,-14.58,126.65,1
3680,55.06,-17.51,81.97,1
3681,55.08,13.29,37.12,1
3682,55.09,36.63,-0.21,1
3683,55.11,34.51,-28.99,1
3684,55.12,9.88,-20.27,1
3685,55.13,-20.44,71.28,1
3686,55.15,-33.11,127.12,1
3687,55.16,-23.24,35.58,1
3688,55.17,11.18,-32.12,1
3689,55.19,40.72,51.13,1
3690,55.2,31.84,116.52,1
3691,55.21,9.95,55.07,1
3692,55.22,-1.53,-8.93,1
3693,55.24,-7.96,26.57,1
3694,55.25,-9.69,111.41,1
3695,55.27,-4.84,143.8,1
3696,55.28,9.42,113.26,1
3697,55.29,17.74,92.27,1
3698,55.31,1.26,94.73,1
3699,55.32,-14.33,76.63,1
3700,55.33,-5.36,44.43,1
3701,55.35,3.19,29.13,1
3702,55.36,-4.97,-3.34,1
3703,55.37,-19.12,-42.71,1
3704,55.38,-29.64,-20.62,1
3705,55.4,-18.95,1.02,1
3706,55.41,5.89,-6.0,1
3707,55.43,11.89,51.01,1
3708,55.44,-2.34,113.0,1
3709,55.45,-21.07,88.46,1
3710,55.46,-29.82,60.79,1
3711,55.48,-16.81,49.93,1
3712,55.49,5.24,-8.07,1
3713,55.5,17.86,-33.58,1
3714,55.52,13.05,3.81,1
3715,55.53,-1.72,13.24,1
3716,55.54,0.53,32.29,1
3717,55.56,18.86,68.79,1
3718,55.57,13.28,43.68,1
3719,55.58,-13.8,6.52,1
3720,55.6,-13.94,6.04,1
3721,55.61,10.55,22.91,1
3722,55.62,17.39,61.54,1
3723,55.64,11.81,93.47,1
3724,55.65,13.31,85.29,1
3725,55.66,7.68,82.18,1
3726,55.68,-2.29,95.58,1
3727,55.69,-0.17,48.37,1
3728,55.71,5.7,-32.69,1
3729,55.72,6.63,-40.77,1
3730,55.73,1.36,2.97,1
3731,55.75,-3.96,19.17,1
3732,55.76,-8.75,10.69,1
3733,55.77,-23.8,40.11,1
3734,55.79,-20.45,96.14,1
3735,55.8,17.27,85.45,1
3736,55.81,25.68,28.53,1
3737,55.83,-11.3,13.05,1
3738,55.84,-18.63,12.53,1
3739,55.85,14.57,-14.66,1
3740,55.87,24.11,-22.86,1
3741,55.88,0.03,-4.68,1
3742,55.89,-7.15,-31.45,1
3743,55.9,16.37,-100.66,1
3744,55.92,24.7,-128.35,1
3745,55.93,-2.46,-88.28,1
3746,55.95,-27.74,-37.91,1
3747,55.96,-20.55,-34.39,1
3748,55.97,8.9,-62.77,1
3749,55.99,25.3,-51.63,1
3750,56.0,19.34,9.91,1
3751,56.01,20.94,49.23,1
3752,56.03,29.76,42.86,1
3753,56.04,21.08,18.1,1
3754,56.05,9.0,-11.46,1
3755,56.06,13.87,-7.27,1
3756,56.08,13.87,26.29,1
3757,56.09,-13.52,6.56,1
3758,56.1,-37.49,-38.32,1
3759,56.12,-19.43,-13.33,1
3760,56.13,10.57,16.46,1
3761,56.14,5.85,-17.39,1
3762,56.16,-5.05,-54.38,0
3763,56.17,9.09,-80.02,0
3764,56.18,14.56,-116.83,0
3765,56.2,-4.86,-152.53,0
3766,56.21,-20.92,-195.46,0
3767,56.22,-19.45,-238.88,0
3768,56.24,-10.43,-260.53,0
3769,56.25,-6.45,-272.43,0
3770,56.26,-7.11,-266.15,0
3771,56.28,-2.18,-218.0,0
3772,56.29,4.05,-139.2,0
3773,56.3,2.57,-46.29,0
3774,56.32,5.17,42.26,0
3775,56.33,9.12,97.01,0
3776,56.35,-6.51,115.86,0
3777,56.36,-23.65,115.93,0
3778,56.37,-13.34,104.2,0
3779,56.38,0.73,92.77,0
3780,56.4,-10.19,92.72,0
3781,56.41,-26.32,96.82,0
3782,56.43,-23.47,92.81,0
3783,56.44,-10.36,72.83,0
3784,56.45,-2.85,49.45,0
3785,56.47,-3.32,48.68,0
3786,56.48,-4.95,64.37,0
3787,56.49,1.01,68.71,0
3788,56.51,10.88,59.39,0
3789,56.52,10.74,51.11,0
3790,56.53,2.95,47.55,0
3791,56.54,-1.87,46.49,0
3792,56.56,-4.43,46.54,1
3793,56.57,-3.21,42.91,1
3794,56.59,4.73,36.09,1
3795,56.6,10.95,34.39,1
3796,56.61,6.12,35.69,1
3797,56.63,-6.83,31.66,1
3798,56.64,-11.75,22.32,1
3799,56.65,-2.77,13.39,1
3800,56.67,0.78,15.96,1
3801,56.68,-7.03,27.83,1
3802,56.69,-7.15,23.31,1
3803,56.71,1.31,8.18,1
3804,56.72,5.16,14.33,1
3805,56.73,4.95,28.98,1
3806,56.74,4.36,28.66,1
3807,56.76,5.53,20.76,1
3808,56.77,8.25,11.11,1
3809,56.78,1.05,10.57,1
3810,56.8,-13.42,26.19,1
3811,56.81,-11.55,30.09,1
3812,56.82,5.78,15.05,1
3813,56.84,11.26,11.02,1
3814,56.85,4.43,12.61,1
3815,56.86,3.55,-1.29,1
3816,56.88,2.5,-13.56,1
3817,56.89,-6.65,-12.6,1
3818,56.9,-3.88,-4.93,1
3819,56.92,18.94,11.0,1
3820,56.93,26.43,17.42,1
3821,56.94,0.02,0.55,1
3822,56.96,-18.39,-13.74,1
3823,56.97,-4.71,-12.03,1
3824,56.99,9.85,-5.39,1
3825,57.0,8.44,3.88,1
3826,57.01,3.37,10.18,1
3827,57.03,-0.24,4.03,1
3828,57.04,-3.55,-10.42,1
3829,57.05,-4.12,-19.56,1
3830,57.06,0.08,-16.89,1
3831,57.08,5.4,-14.2,1
3832,57.09,4.77,-18.72,1
3833,57.11,-1.92,-19.19,1
3834,57.12,-3.08,-17.32,1
3835,57.13,4.14,-25.82,1
3836,57.15,4.41,-33.08,1
3837,57.16,-5.2,-26.2,1
3838,57.17,-9.33,-20.83,1
3839,57.19,-4.53,-22.25,1
3840,57.2,-0.15,-20.44,1
3841,57.21,-3.72,-22.19,1
3842,57.22,-11.24,-20.17,1
3843,57.24,-9.82,-2.11,1
3844,57.25,0.24,5.09,1
3845,57.27,5.85,-13.1,1
3846,57.28,7.45,-31.14,1
3847,57.29,8.38,-34.5,1
3848,57.31,1.84,-28.73,1
3849,57.32,-6.2,-23.66,1
3850,57.33,-5.41,-28.64,1
3851,57.35,-2.86,-35.21,1
3852,57.36,3.62,-28.4,1
3853,57.37,20.11,-18.59,1
3854,57.38,24.16,-18.44,1
3855,57.4,5.6,-17.58,1
3856,57.41,-6.59,-15.88,1
3857,57.42,-0.08,-19.24,1
3858,57.44,4.67,-16.81,1
3859,57.45,-1.76,-11.53,1
3860,57.46,-8.12,-14.27,1
3861,57.48,-4.34,-15.07,1
3862,57.49,3.47,-12.75,1
3863,57.5,2.3,-17.85,1
3864,57.52,-5.08,-19.87,1
3865,57.53,-8.38,-9.65,1
3866,57.54,-6.25,0.8,1
3867,57.56,0.98,0.28,1
3868,57.57,7.3,-10.15,1
3869,57.58,-0.18,-17.29,1
3870,57.6,-12.47,-15.1,1
3871,57.61,-8.88,-15.05,1
3872,57.63,3.17,-16.22,1
3873,57.64,9.88,-5.67,1
3874,57.65,15.11,4.25,1
3875,57.67,15.29,-5.42,1
3876,57.68,5.99,-17.41,1
3877,57.69,-2.22,-13.17,1
3878,57.71,-5.33,-4.58,1
3879,57.72,-6.74,-1.97,1
3880,57.73,-5.66,-5.44,1
3881,57.75,-4.19,-10.96,1
3882,57.76,-6.46,-14.53,1
3883,57.77,-7.67,-22.22,1
3884,57.79,-2.67,-25.39,1
3885,57.8,2.52,-4.8,1
3886,57.81,5.42,17.62,1
3887,57.83,7.63,9.48,1
3888,57.84,5.73,-7.56,1
3889,57.85,0.81,-7.9,1
3890,57.87,-1.8,-4.9,1
3891,57.88,0.86,-7.26,1
3892,57.89,5.62,-12.2,1
3893,57.9,2.11,-12.47,1
3894,57.92,-5.06,1.92,1
3895,57.93,-3.27,13.16,1
3896,57.95,0.84,7.64,1
3897,57.96,0.73,7.78,1
3898,57.97,-0.91,16.02,1
3899,57.99,-3.69,10.81,1
3900,58.0,-2.43,-1.44,1
3901,58.01,1.22,-4.51,1
3902,58.02,-1.05,-1.08,1
3903,58.04,1.1,4.89,1
3904,58.05,11.24,13.72,1
3905,58.06,6.77,21.49,1
3906,58.08,-9.02,19.72,1
3907,58.09,-6.77,10.51,1
3908,58.1,5.2,7.81,1
3909,58.12,2.17,8.66,1
3910,58.13,-4.71,-1.26,1
3911,58.14,1.07,-12.93,1
3912,58.16,9.58,-17.16,0
3913,58.17,10.87,-40.1,0
3914,58.18,10.19,-84.18,0
3915,58.2,11.43,-99.06,0
3916,58.21,7.79,-77.74,0
3917,58.22,-4.56,-67.32,0
3918,58.24,-14.99,-76.39,0
3919,58.25,-11.11,-84.59,0
3920,58.26,10.05,-91.7,0
3921,58.28,38.39,-98.69,0
3922,58.29,45.72,-98.9,0
3923,58.31,19.69,-88.9,0
3924,58.32,-7.33,-67.64,0
3925,58.33,-7.13,-45.33,0
3926,58.35,7.61,-31.36,0
3927,58.36,14.01,-8.34,0
3928,58.37,5.06,29.35,0
3929,58.38,-6.78,57.2,0
3930,58.4,-7.87,72.51,0
3931,58.41,-2.72,87.01,0
3932,58.43,-0.36,101.85,0
3933,58.44,-4.78,125.53,0
3934,58.45,-17.18,153.4,0
3935,58.47,-25.62,168.83,0
3936,58.48,-17.62,180.51,0
3937,58.49,-9.18,192.63,0
3938,58.51,-21.77,189.67,0
3939,58.52,-37.83,171.53,0
3940,58.53,-29.87,148.81,0
3941,58.54,-13.92,132.13,0
3942,58.56,-13.24,128.3,1
3943,58.57,-14.59,126.97,1
3944,58.59,-7.97,119.5,1
3945,58.6,-9.72,111.22,1
3946,58.61,-20.85,98.25,1
3947,58.63,-18.09,77.79,1
3948,58.64,-1.2,64.94,1
3949,58.65,-0.48,59.04,1
3950,58.66,-16.81,44.99,1
3951,58.68,-14.12,32.23,1
3952,58.69,8.36,31.41,1
3953,58.7,11.17,30.58,1
3954,58.72,-10.22,23.16,1
3955,58.73,-19.06,14.45,1
3956,58.74,-6.56,9.21,1
3957,58.76,3.4,8.42,1
3958,58.77,4.06,3.49,1
3959,58.78,2.12,-12.9,1
3960,58.8,0.37,-28.74,1
3961,58.81,3.32,-34.17,1
3962,58.82,8.06,-37.8,1
3963,58.84,7.85,-38.5,1
3964,58.85,7.39,-31.58,1
3965,58.86,11.11,-31.07,1
3966,58.88,17.39,-38.64,1
3967,58.89,19.17,-43.11,1
3968,58.9,10.04,-45.25,1
3969,58.92,0.3,-42.47,1
3970,58.93,0.92,-38.66,1
3971,58.95,4.4,-47.86,1
3972,58.96,6.26,-57.49,1
3973,58.97,6.52,-53.11,1
3974,58.99,-1.2,-51.03,1
3975,59.0,-7.53,-56.08,1
3976,59.01,-0.22,-56.91,1
3977,59.03,5.66,-62.23,1
3978,59.04,0.06,-69.24,1
3979,59.05,-3.84,-57.56,1
3980,59.06,-3.99,-38.55,1
3981,59.08,-3.99,-31.89,1
3982,59.09,0.5,-35.96,1
3983,59.11,2.39,-45.55,1
3984,59.12,-1.34,-52.85,1
3985,59.13,2.67,-60.92,1
3986,59.15,12.05,-71.46,1
3987,59.16,14.46,-63.17,1
3988,59.17,13.09,-43.97,1
3989,59.19,9.93,-45.5,1
3990,59.2,3.41,-54.76,1
3991,59.21,4.3,-51.68,1
3992,59.22,11.09,-49.52,1
3993,59.24,8.59,-47.0,1
3994,59.25,4.91,-33.71,1
3995,59.27,11.54,-24.45,1
3996,59.28,10.33,-22.97,1
3997,59.29,-4.61,-18.12,1
3998,59.3,-7.36,-14.89,1
3999,59.32,7.04,-17.17,1
4000,59.33,8.74,-22.87,1
4001,59.34,-8.69,-31.08,1
4002,59.36,-9.86,-29.42,1
4003,59.37,14.44,-16.75,1
4004,59.38,25.97,-11.03,1
4005,59.4,11.72,-11.37,1
4006,59.41,0.08,-9.21,1
4007,59.42,3.38,-12.07,1
4008,59.44,7.46,-15.12,1
4009,59.45,3.61,-13.45,1
4010,59.46,-1.46,-22.54,1
4011,59.48,-2.51,-30.7,1
4012,59.49,-5.64,-17.38,1
4013,59.5,-12.2,-6.91,1
4014,59.52,-9.19,-11.8,1
4015,59.53,6.59,-9.33,1
4016,59.54,13.09,-0.25,1
4017,59.56,-0.76,3.72,1
4018,59.57,-9.99,4.9,1
4019,59.59,-1.58,1.24,1
4020,59.6,4.23,-2.37,1
4021,59.61,1.73,2.48,1
4022,59.63,2.21,6.61,1
4023,59.64,2.14,7.14,1
4024,59.65,0.73,10.34,1
4025,59.67,4.23,7.42,1
4026,59.68,5.84,-0.4,1
4027,59.69,4.57,5.7,1
4028,59.71,8.37,20.26,1
4029,59.72,11.94,23.8,1
4030,59.73,6.66,14.95,1
4031,59.75,-6.68,6.13,1
4032,59.76,-18.54,11.44,1
4033,59.77,-15.51,21.89,1
4034,59.79,-0.92,13.09,1
4035,59.8,7.36,-1.02,1
4036,59.81,4.05,7.65,1
4037,59.83,-1.45,21.59,1
4038,59.84,-3.64,20.35,1
4039,59.85,-5.39,16.03,1
4040,59.87,-7.95,14.83,1
4041,59.88,-10.83,15.86,1
4042,59.89,-10.94,21.61,1
4043,59.9,-1.34,22.07,1
4044,59.92,9.65,17.99,1
4045,59.93,6.07,20.86,1
4046,59.94,-5.28,18.88,1
4047,59.96,-10.34,10.75,1
4048,59.97,-8.6,15.85,1
4049,59.98,-5.15,23.7,1
4050,60.0,-5.74,18.48,1
4051,60.01,-11.11,12.57,1
4052,60.02,-12.67,9.32,1
4053,60.04,-5.59,2.28,1
4054,60.05,1.09,0.45,1
4055,60.06,-3.76,8.52,1
4056,60.08,-14.38,18.45,1
4057,60.09,-14.34,25.08,1
4058,60.1,-5.15,24.24,1
4059,60.12,-0.86,19.04,1
4060,60.13,-0.39,19.69,1
4061,60.14,0.89,22.56,1
4062,60.16,-0.7,23.71,2
4063,60.17,-1.91,27.29,2
4064,60.18,1.03,36.7,2
4065,60.2,2.26,84.8,2
4066,60.21,-1.11,193.77,2
4067,60.22,-4.29,299.97,2
4068,60.24,-4.17,326.36,2
4069,60.25,-7.74,278.46,2
4070,60.27,-24.24,210.58,2
4071,60.28,-36.01,160.78,2
4072,60.29,-15.8,124.3,2
4073,60.31,11.67,71.27,2
4074,60.32,8.3,1.72,2
4075,60.33,-3.69,-56.61,2
4076,60.35,4.44,-103.64,2
4077,60.36,15.85,-151.68,2
4078,60.37,15.72,-189.88,2
4079,60.38,13.0,-206.21,2
4080,60.4,12.41,-201.14,2
4081,60.41,10.72,-184.94,2
4082,60.43,4.44,-175.51,2
4083,60.44,-3.63,-171.53,2
4084,60.45,0.06,-154.97,2
4085,60.47,13.98,-131.67,2
4086,60.48,17.6,-117.68,2
4087,60.49,7.93,-107.56,2
4088,60.51,0.1,-98.62,2
4089,60.52,1.45,-93.89,2
4090,60.53,4.28,-83.94,2
4091,60.54,-0.1,-72.78,2
4092,60.56,-2.72,-67.9,1
4093,60.57,6.36,-60.02,1
4094,60.58,14.0,-52.68,1
4095,60.6,7.92,-49.53,1
4096,60.61,0.56,-40.46,1
4097,60.62,3.91,-37.0,1
4098,60.64,8.98,-41.96,1
4099,60.65,4.67,-28.66,1
4100,60.66,-5.84,-7.38,1
4101,60.68,-7.79,-5.83,1
4102,60.69,5.55,-8.69,1
4103,60.7,15.51,-5.23,1
4104,60.72,5.69,-9.4,1
4105,60.73,-10.84,-12.23,1
4106,60.74,-15.55,-0.74,1
4107,60.76,-6.7,13.96,1
4108,60.77,4.69,20.56,1
4109,60.78,5.27,17.49,1
4110,60.8,-4.61,12.38,1
4111,60.81,-10.05,17.07,1
4112,60.82,-5.78,21.58,1
4113,60.84,-1.31,18.64,1
4114,60.85,1.7,26.81,1
4115,60.87,6.69,39.76,1
4116,60.88,4.88,34.45,1
4117,60.89,-6.59,22.81,1
4118,60.9,-12.27,19.55,1
4119,60.92,-3.12,22.45,1
4120,60.93,10.62,34.43,1
4121,60.95,14.71,45.12,1
4122,60.96,5.77,43.68,1
4123,60.97,-4.07,46.58,1
4124,60.99,-6.34,55.29,1
4125,61.0,-6.13,56.06,1
4126,61.01,-5.94,54.72,1
4127,61.03,-1.34,47.47,1
4128,61.04,6.74,28.53,1
4129,61.05,9.03,21.39,1
4130,61.06,0.89,31.19,1
4131,61.08,-7.68,36.69,1
4132,61.09,-8.98,37.02,1
4133,61.11,-6.54,38.25,1
4134,61.12,-0.22,34.5,1
4135,61.13,2.77,26.67,1
4136,61.15,-8.07,20.33,1
4137,61.16,-16.95,18.95,1
4138,61.17,-5.12,27.3,1
4139,61.19,11.86,36.69,1
4140,61.2,10.73,36.33,1
4141,61.21,-1.57,39.47,1
4142,61.22,-5.42,44.79,1
4143,61.24,4.88,31.62,1
4144,61.25,19.05,17.05,1
4145,61.26,17.28,26.77,1
4146,61.28,-1.0,41.71,1
4147,61.29,-9.56,38.37,1
4148,61.3,-3.03,21.28,1
4149,61.32,-0.16,9.43,1
4150,61.33,-0.5,16.36,1
4151,61.34,2.61,26.43,1
4152,61.36,2.61,16.71,1
4153,61.37,-0.95,5.13,1
4154,61.38,-3.15,13.14,1
4155,61.4,-6.03,18.7,1
4156,61.41,-9.5,7.12,1
4157,61.42,-8.4,-6.37,1
4158,61.44,-4.33,-13.65,1
4159,61.45,-3.09,-9.97,1
4160,61.46,-4.63,0.58,1
4161,61.48,-4.93,3.69,1
4162,61.49,-0.93,5.54,1
4163,61.5,3.19,8.35,1
4164,61.52,1.19,0.03,1
4165,61.53,-2.88,-7.47,1
4166,61.54,-5.26,-0.35,1
4167,61.56,-9.84,6.99,1
4168,61.57,-8.95,4.21,1
4169,61.59,2.53,-0.52,1
4170,61.6,9.3,-1.7,1
4171,61.61,5.39,-0.77,1
4172,61.63,-0.02,-3.69,1
4173,61.64,-7.09,-11.04,1
4174,61.65,-13.82,-10.48,1
4175,61.67,-9.53,-4.99,1
4176,61.68,1.7,-8.04,1
4177,61.69,5.9,-8.79,1
4178,61.71,2.65,-2.38,1
4179,61.72,2.27,-5.16,1
4180,61.73,7.56,-12.78,1
4181,61.75,10.49,-14.99,1
4182,61.76,4.93,-18.42,1
4183,61.77,-1.37,-20.55,1
4184,61.79,-0.85,-15.02,1
4185,61.8,-2.63,-12.76,1
4186,61.81,-8.32,-18.43,1
4187,61.83,-3.78,-20.79,1
4188,61.84,8.05,-17.17,1
4189,61.85,9.98,-13.03,1
4190,61.86,0.9,-13.63,1
4191,61.88,-5.72,-21.12,1
4192,61.89,-2.06,-23.28,1
4193,61.9,4.77,-11.39,1
4194,61.92,4.72,-0.39,1
4195,61.93,0.82,-5.03,1
4196,61.94,-0.89,-20.39,1
4197,61.96,-1.4,-33.57,1
4198,61.97,1.84,-33.31,1
4199,61.98,10.28,-19.15,1
4200,62.0,10.82,-4.77,1
4201,62.01,-1.24,-0.95,1
4202,62.02,-7.02,-7.72,1
4203,62.04,1.52,-16.51,1
4204,62.05,5.29,-13.38,1
4205,62.06,-4.38,-2.26,1
4206,62.08,-13.18,-0.38,1
4207,62.09,-11.44,-3.03,1
4208,62.1,-3.73,-4.09,1
4209,62.12,1.56,-12.77,1
4210,62.13,3.06,-18.57,1
4211,62.14,-0.36,-11.5,1
4212,62.16,-7.09,-16.12,2
4213,62.17,-2.03,-34.77,2
4214,62.19,11.22,-16.09,2
4215,62.2,7.85,48.95,2
4216,62.21,-3.27,74.4,2
4217,62.22,-5.35,9.17,2
4218,62.24,-10.21,-67.3,2
4219,62.25,-13.52,-57.55,2
4220,62.27,-5.96,16.37,2
4221,62.28,2.5,62.12,2
4222,62.29,13.58,62.98,2
4223,62.31,21.32,63.46,2
4224,62.32,11.04,86.12,2
4225,62.33,-2.1,142.07,2
4226,62.35,-4.65,188.45,2
4227,62.36,-7.26,155.9,2
4228,62.37,-19.57,64.64,2
4229,62.38,-38.9,-15.19,2
4230,62.4,-49.48,-39.83,2
4231,62.41,-34.21,-24.17,2
4232,62.43,0.69,-25.57,2
4233,62.44,24.35,-63.29,2
4234,62.45,17.85,-70.12,2
4235,62.47,-0.4,2.85,2
4236,62.48,-1.77,50.98,2
4237,62.49,14.09,-6.79,2
4238,62.5,18.81,-61.51,2
4239,62.52,9.14,-38.43,2
4240,62.53,17.53,-14.09,2
4241,62.54,31.25,-46.38,2
4242,62.56,11.16,-97.0,1
4243,62.57,-8.93,-97.34,1
4244,62.58,9.95,-54.03,1
4245,62.6,27.12,-48.58,1
4246,62.61,13.99,-91.99,1
4247,62.62,3.21,-114.44,1
4248,62.64,9.75,-85.56,1
4249,62.65,13.48,-39.58,1
4250,62.66,10.76,-34.78,1
4251,62.68,13.67,-87.79,1
4252,62.69,17.06,-148.36,1
4253,62.7,12.66,-164.04,1
4254,62.72,9.37,-123.29,1
4255,62.73,15.79,-63.82,1
4256,62.74,24.21,-55.54,1
4257,62.76,22.42,-96.51,1
4258,62.77,7.68,-75.64,1
4259,62.78,-5.72,30.87,1
4260,62.8,2.58,85.69,1
4261,62.81,20.53,36.05,1
4262,62.825,14.3,-29.13,1
4263,62.84,-5.51,-55.73,1
4264,62.85,-2.93,-46.22,1
4265,62.87,2.18,-16.62,1
4266,62.88,-18.25,-1.18,1
4267,62.89,-22.5,-14.92,1
4268,62.9,6.43,-36.47,1
4269,62.92,16.74,-40.3,1
4270,62.93,0.65,-20.4,1
4271,62.95,-10.33,-12.52,1
4272,62.96,-20.27,-17.92,1
4273,62.97,-29.74,21.79,1
4274,62.99,-22.75,65.05,1
4275,63.0,-10.61,43.43,1
4276,63.01,-8.4,13.59,1
4277,63.03,-10.7,18.67,1
4278,63.04,-18.29,30.84,1
4279,63.05,-26.56,42.55,1
4280,63.06,-18.8,48.43,1
4281,63.08,-4.91,33.48,1
4282,63.09,-1.12,21.61,1
4283,63.11,2.81,41.04,1
4284,63.12,6.32,60.43,1
4285,63.13,-0.37,45.83,1
4286,63.14,-4.48,31.92,1
4287,63.16,-0.59,45.0,1
4288,63.17,-4.31,61.32,1
4289,63.18,-10.01,72.6,1
4290,63.2,-4.32,69.9,1
4291,63.21,-4.02,53.14,1
4292,63.22,-20.66,57.45,1
4293,63.24,-33.13,75.06,1
4294,63.25,-23.44,71.21,1
4295,63.26,-4.57,45.74,1
4296,63.28,3.85,6.96,1
4297,63.29,5.01,-10.29,1
4298,63.3,4.78,24.63,1
4299,63.32,1.52,57.19,1
4300,63.33,2.49,54.49,1
4301,63.34,6.91,62.09,1
4302,63.36,7.16,50.01,1
4303,63.37,11.2,-1.29,1
4304,63.38,19.01,6.54,1
4305,63.4,13.1,50.69,1
4306,63.41,3.92,13.52,1
4307,63.42,8.57,-37.81,1
4308,63.44,0.59,1.02,1
4309,63.45,-23.57,45.76,1
4310,63.46,-21.68,27.61,1
4311,63.48,0.6,11.22,1
4312,63.49,10.01,18.62,1
4313,63.51,13.08,28.89,1
4314,63.52,8.45,51.35,1
4315,63.53,-9.85,58.54,1
4316,63.54,-16.0,23.53,1
4317,63.56,-9.78,-4.29,1
4318,63.57,-13.95,16.15,1
4319,63.59,-17.47,35.13,1
4320,63.6,-7.85,15.96,1
4321,63.61,-7.54,19.51,1
4322,63.63,-20.89,55.45,1
4323,63.64,-9.51,34.44,1
4324,63.65,28.2,-28.8,1
4325,63.67,35.29,-38.42,1
4326,63.68,6.14,-23.97,1
4327,63.69,0.33,-41.41,1
4328,63.71,20.74,-36.97,1
4329,63.72,17.8,-3.94,1
4330,63.73,0.19,-0.14,1
4331,63.75,2.76,0.49,1
4332,63.76,3.36,20.06,1
4333,63.77,-14.31,22.97,1
4334,63.78,-19.88,12.96,1
4335,63.8,-10.88,11.78,1
4336,63.81,-6.75,18.04,1
4337,63.82,-6.71,22.58,1
4338,63.84,-7.13,21.1,1
4339,63.85,0.36,15.69,1
4340,63.86,19.7,-5.99,1
4341,63.88,27.52,-69.43,1
4342,63.89,13.29,-137.83,1
4343,63.9,0.67,-111.37,1
4344,63.92,-1.66,-13.17,1
4345,63.93,-4.48,25.22,1
4346,63.94,-2.74,-7.86,1
4347,63.96,3.18,-50.95,1
4348,63.97,2.84,-71.18,1
4349,63.98,3.51,-51.99,1
4350,64.0,3.71,-34.88,1
4351,64.01,-3.03,-42.74,1
4352,64.02,-5.94,-20.72,1
4353,64.04,-4.15,29.35,1
4354,64.05,0.77,38.8,1
4355,64.06,8.95,24.14,1
4356,64.08,-0.2,55.61,1
4357,64.09,-17.1,85.02,1
4358,64.1,-3.42,25.31,1
4359,64.12,20.72,-53.3,1
4360,64.13,19.59,-27.56,1
4361,64.14,14.98,56.13,1
4362,64.16,20.18,54.34,0
4363,64.17,16.37,-23.68,0
4364,64.18,4.43,-49.7,0
4365,64.2,-3.15,-5.96,0
4366,64.21,-4.08,24.26,0
4367,64.22,-3.61,-6.68,0
4368,64.24,-6.67,-82.22,0
4369,64.25,-6.91,-137.54,0
4370,64.26,-3.76,-144.5,0
4371,64.28,-6.63,-161.68,0
4372,64.29,-9.85,-210.23,0
4373,64.3,-11.66,-218.34,0
4374,64.32,-18.09,-148.19,0
4375,64.33,-9.41,-56.99,0
4376,64.34,13.64,-0.77,0
4377,64.36,18.06,29.88,0
4378,64.37,13.03,67.16,0
4379,64.38,18.35,110.46,0
4380,64.4,13.84,127.43,0
4381,64.41,-1.42,110.93,0
4382,64.42,-4.31,94.3,0
4383,64.44,0.75,88.59,0
4384,64.45,-1.01,79.35,0
4385,64.46,-8.9,75.72,0
4386,64.48,-15.1,82.15,0
4387,64.49,-9.2,75.83,0
4388,64.5,8.68,55.78,0
4389,64.52,17.97,40.25,0
4390,64.53,4.36,30.8,0
4391,64.54,-13.79,25.83,0
4392,64.56,-8.2,24.48,1
4393,64.57,13.77,28.13,1
4394,64.58,17.82,44.61,1
4395,64.6,-0.79,55.99,1
4396,64.61,-13.42,41.08,1
4397,64.62,-5.51,26.09,1
4398,64.64,5.04,33.28,1
4399,64.65,-0.99,39.36,1
4400,64.66,-12.03,34.07,1
4401,64.68,-9.95,30.02,1
4402,64.69,-3.92,24.49,1
4403,64.7,-3.57,17.85,1
4404,64.72,-2.07,14.72,1
4405,64.73,0.49,5.59,1
4406,64.74,-0.94,-3.5,1
4407,64.76,-1.3,4.51,1
4408,64.77,-0.33,17.11,1
4409,64.79,-5.35,16.42,1
4410,64.8,-10.5,8.47,1
4411,64.81,-4.68,-1.68,1
4412,64.82,5.43,-14.3,1
4413,64.84,8.91,-18.75,1
4414,64.85,6.86,-10.22,1
4415,64.86,1.55,-2.68,1
4416,64.88,-5.7,-7.48,1
4417,64.89,-4.27,-17.78,1
4418,64.9,4.12,-25.68,1
4419,64.92,-1.38,-32.91,1
4420,64.93,-16.3,-27.39,1
4421,64.94,-16.68,-1.52,1
4422,64.96,-7.86,7.44,1
4423,64.97,-6.13,-20.23,1
4424,64.98,-5.14,-36.74,1
4425,65.0,4.67,-20.09,1
4426,65.01,13.15,-13.43,1
4427,65.02,7.31,-27.47,1
4428,65.04,-4.05,-27.34,1
4429,65.05,-3.09,-14.4,1
4430,65.06,7.13,-10.88,1
4431,65.08,7.46,-15.51,1
4432,65.09,-1.1,-20.66,1
4433,65.1,-1.09,-18.35,1
4434,65.12,2.73,-11.27,1
4435,65.13,-2.78,-15.76,1
4436,65.14,-9.69,-24.22,1
4437,65.16,-9.3,-20.75,1
4438,65.17,-6.28,-19.24,1
4439,65.18,-1.97,-27.35,1
4440,65.2,4.8,-27.3,1
4441,65.21,7.98,-17.94,1
4442,65.22,4.68,-19.14,1
4443,65.24,1.41,-34.48,1
4444,65.25,2.7,-42.49,1
4445,65.26,5.95,-29.98,1
4446,65.28,7.34,-15.44,1
4447,65.29,4.27,-18.0,1
4448,65.3,-0.87,-24.12,1
4449,65.32,-4.42,-20.22,1
4450,65.33,-7.91,-17.14,1
4451,65.34,-8.25,-17.2,1
4452,65.36,0.66,-12.33,1
4453,65.37,12.73,-10.19,1
4454,65.38,15.72,-11.43,1
4455,65.4,9.93,-5.11,1
4456,65.41,5.9,-1.5,1
4457,65.42500000000001,8.16,-6.1,1
4458,65.44,12.04,-6.31,1
4459,65.45,8.92,-7.46,1
4460,65.46,-3.48,-11.04,1
4461,65.48,-14.25,-9.09,1
4462,65.49,-7.98,-10.03,1
4463,65.5,11.08,-11.5,1
4464,65.52,17.01,-9.38,1
4465,65.53,7.47,-14.62,1
4466,65.54,5.72,-15.69,1
4467,65.56,6.98,-5.38,1
4468,65.57,-2.69,-5.75,1
4469,65.58,-7.93,-13.2,1
4470,65.6,-0.69,-14.51,1
4471,65.61,4.68,-20.42,1
4472,65.62,1.56,-21.03,1
4473,65.64,-3.28,-3.61,1
4474,65.65,-0.52,5.26,1
4475,65.66,6.84,-7.81,1
4476,65.68,4.58,-16.01,1
4477,65.69,-3.14,-7.32,1
4478,65.7,-3.12,5.56,1
4479,65.72,0.9,14.03,1
4480,65.73,2.99,12.62,1
4481,65.74,5.57,4.23,1
4482,65.76,6.81,-0.69,1
4483,65.77,2.43,-4.04,1
4484,65.78,-5.53,-2.45,1
4485,65.8,-7.52,7.63,1
4486,65.81,0.98,5.71,1
4487,65.82,6.52,-2.02,1
4488,65.84,1.19,11.02,1
4489,65.85,-3.41,18.57,1
4490,65.86,-6.77,2.57,1
4491,65.88,-13.96,-0.08,1
4492,65.89,-9.93,16.97,1
4493,65.9,2.8,27.74,1
4494,65.92,-1.26,25.38,1
4495,65.93,-14.42,13.03,1
4496,65.94,-13.53,5.09,1
4497,65.96,-7.88,14.16,1
4498,65.97,-10.93,18.73,1
4499,65.98,-10.49,7.9,1
4500,66.0,0.39,6.62,1
4501,66.01,6.87,10.73,1
4502,66.02,2.83,3.78,1
4503,66.04,-2.18,5.51,1
4504,66.05,-5.6,17.45,1
4505,66.06,-7.66,19.74,1
4506,66.08,-8.29,18.02,1
4507,66.09,-10.92,14.62,1
4508,66.11,-10.27,6.39,1
4509,66.12,-2.11,11.54,1
4510,66.13,6.42,30.49,1
4511,66.14,11.37,37.31,1
4512,66.16,11.2,13.99,0
4513,66.17,5.81,-39.19,0
4514,66.18,1.35,-90.49,0
4515,66.2,-0.48,-116.75,0
4516,66.21,-2.74,-142.63,0
4517,66.22,1.53,-173.41,0
4518,66.24,18.39,-176.91,0
4519,66.25,40.98,-156.47,0
4520,66.26,53.94,-139.5,0
4521,66.28,46.56,-123.87,0
4522,66.29,32.54,-100.1,0
4523,66.3,28.36,-67.21,0
4524,66.32,19.45,-25.69,0
4525,66.33,-2.44,7.02,0
4526,66.34,-14.19,27.75,0
4527,66.36,-10.95,59.13,0
4528,66.37,-12.17,90.67,0
4529,66.38,-15.24,107.16,0
4530,66.4,-15.6,129.33,0
4531,66.41,-28.98,155.46,0
4532,66.42,-48.62,168.14,0
4533,66.44,-49.94,177.41,0
4534,66.45,-36.48,184.78,0
4535,66.46,-29.22,181.97,0
4536,66.48,-32.72,176.4,0
4537,66.49,-34.89,165.13,0
4538,66.5,-27.88,143.88,0
4539,66.52,-16.91,128.43,0
4540,66.53,-9.31,120.58,0
4541,66.54,-8.12,108.46,0
4542,66.56,-13.57,94.78,1
4543,66.57,-18.26,82.99,1
4544,66.58,-13.19,73.89,1
4545,66.6,-3.13,69.09,1
4546,66.61,-1.02,54.43,1
4547,66.62,-5.92,32.72,1
4548,66.64,-5.5,30.33,1
4549,66.65,0.7,35.18,1
4550,66.66,0.31,24.32,1
4551,66.68,-8.42,13.97,1
4552,66.69,-6.94,11.17,1
4553,66.7,10.74,7.6,1
4554,66.72,21.45,6.88,1
4555,66.73,15.1,3.22,1
4556,66.75,8.49,-6.1,1
4557,66.76,7.12,-10.67,1
4558,66.77,4.45,-18.4,1
4559,66.79,4.34,-30.14,1
4560,66.8,3.48,-25.97,1
4561,66.81,-5.11,-18.45,1
4562,66.82,-3.2,-28.45,1
4563,66.84,16.58,-42.56,1
4564,66.85,26.08,-59.58,1
4565,66.86,15.46,-79.64,1
4566,66.88,4.95,-73.55,1
4567,66.89,6.19,-46.67,1
4568,66.9,12.72,-34.8,1
4569,66.92,12.5,-35.82,1
4570,66.93,6.46,-32.72,1
4571,66.94,9.43,-27.26,1
4572,66.96,19.6,-25.58,1
4573,66.97,17.12,-32.93,1
4574,66.98,1.43,-41.55,1
4575,67.0,-8.12,-36.68,1
4576,67.01,-0.11,-29.2,1
4577,67.02,17.96,-34.39,1
4578,67.04,22.63,-40.98,1
4579,67.05,7.94,-42.19,1
4580,67.06,1.62,-41.84,1
4581,67.08,9.36,-37.39,1
4582,67.09,8.67,-40.42,1
4583,67.1,3.91,-54.66,1
4584,67.12,4.3,-53.86,1
4585,67.13,3.73,-39.01,1
4586,67.14,8.32,-34.05,1
4587,67.16,16.26,-32.16,1
4588,67.17,14.59,-29.22,1
4589,67.18,8.94,-35.89,1
4590,67.2,3.64,-42.6,1
4591,67.21,-4.48,-47.67,1
4592,67.22,-6.49,-56.3,1
4593,67.24,3.06,-50.5,1
4594,67.25,14.79,-34.39,1
4595,67.26,17.35,-32.59,1
4596,67.28,8.55,-33.91,1
4597,67.29,-0.36,-26.39,1
4598,67.3,-1.63,-20.55,1
4599,67.32,-2.24,-17.21,1
4600,67.33,-4.19,-20.12,1
4601,67.34,-1.77,-30.23,1
4602,67.36,3.28,-30.57,1
4603,67.37,2.94,-24.66,1
4604,67.38,-5.36,-27.36,1
4605,67.4,-10.09,-28.4,1
4606,67.41,-0.53,-23.61,1
4607,67.43,10.21,-21.74,1
4608,67.44,8.14,-18.11,1
4609,67.45,0.36,-15.16,1
4610,67.46,-6.18,-18.39,1
4611,67.48,-12.07,-18.87,1
4612,67.49,-12.98,-18.13,1
4613,67.5,-4.96,-15.35,1
4614,67.52,6.01,2.72,1
4615,67.53,13.06,19.22,1
4616,67.54,13.32,11.58,1
4617,67.56,4.48,0.8,1
4618,67.57,-6.53,0.35,1
4619,67.58,-8.63,-5.66,1
4620,67.6,-4.74,-9.47,1
4621,67.61,-3.09,-1.17,1
4622,67.62,-0.92,3.91,1
4623,67.64,2.49,5.72,1
4624,67.65,0.3,11.21,1
4625,67.66,-3.7,14.81,1
4626,67.68,-5.64,18.16,1
4627,67.69,-12.07,15.91,1
4628,67.7,-14.18,4.46,1
4629,67.72,-1.71,4.92,1
4630,67.73,9.32,16.57,1
4631,67.74,4.68,18.1,1
4632,67.76,-4.32,15.2,1
4633,67.77,-4.22,13.02,1
4634,67.78,-2.81,6.64,1
4635,67.8,-9.35,8.42,1
4636,67.81,-11.51,16.6,1
4637,67.82,-4.39,15.0,1
4638,67.84,-6.24,11.99,1
4639,67.85,-16.93,12.46,1
4640,67.86,-13.91,8.01,1
4641,67.88,-2.31,10.48,1
4642,67.89,-1.12,20.03,1
4643,67.9,-2.78,14.39,1
4644,67.92,-0.22,3.53,1
4645,67.93,-2.41,7.55,1
4646,67.94,-6.45,16.09,1
4647,67.96,-6.86,24.25,1
4648,67.97,-9.06,32.84,1
4649,67.98,-11.4,27.48,1
4650,68.0,-6.24,13.7,1
4651,68.01,2.72,12.48,1
4652,68.02,5.33,21.59,1
4653,68.04,-3.31,27.19,1
4654,68.05,-14.39,25.14,1
4655,68.06,-14.26,21.67,1
4656,68.08,-5.18,21.89,1
4657,68.09,2.48,16.06,1
4658,68.11,4.96,3.89,1
4659,68.12,-0.36,5.3,1
4660,68.13,-7.77,16.19,1
4661,68.14,-0.81,21.91,1
4662,68.16,14.56,35.41,2
4663,68.17,16.34,53.53,2
4664,68.18,8.64,51.91,2
4665,68.2,4.74,37.97,2
4666,68.21,-2.2,26.26,2
4667,68.22,-14.39,23.43,2
4668,68.24,-19.4,73.39,2
4669,68.25,-15.22,194.13,2
4670,68.26,-9.68,306.45,2
4671,68.28,-5.54,333.86,2
4672,68.29,-3.95,287.13,2
4673,68.3,-9.59,221.57,2
4674,68.32,-20.58,166.52,2
4675,68.33,-22.75,101.42,2
4676,68.34,-12.35,17.58,2
4677,68.36,-4.31,-50.31,2
4678,68.37,-2.23,-96.97,2
4679,68.38,6.23,-152.56,2
4680,68.4,14.74,-208.08,2
4681,68.41,10.39,-233.29,2
4682,68.42,7.53,-231.73,2
4683,68.44,17.69,-214.03,2
4684,68.45,22.53,-187.12,2
4685,68.46,14.35,-174.62,2
4686,68.48,12.11,-172.66,2
4687,68.49,16.72,-154.21,2
4688,68.5,10.67,-130.19,2
4689,68.52,1.16,-118.92,2
4690,68.53,4.41,-109.7,2
4691,68.54,13.61,-98.41,2
4692,68.56,20.76,-84.3,1
4693,68.57,26.62,-63.31,1
4694,68.58,23.84,-52.11,1
4695,68.6,11.33,-59.57,1
4696,68.61,4.94,-67.85,1
4697,68.62,10.17,-64.79,1
4698,68.64,12.06,-46.4,1
4699,68.65,5.1,-21.43,1
4700,68.66,1.49,-13.96,1
4701,68.68,5.21,-23.3,1
4702,68.69,6.94,-30.44,1
4703,68.7,2.97,-33.42,1
4704,68.72,-0.23,-28.01,1
4705,68.73,1.68,-6.71,1
4706,68.75,4.59,15.6,1
4707,68.76,1.08,19.38,1
4708,68.77,-7.38,3.43,1
4709,68.79,-10.29,-12.92,1
4710,68.8,-7.9,-1.81,1
4711,68.81,-8.88,27.34,1
4712,68.82,-7.85,33.8,1
4713,68.84,-1.31,25.28,1
4714,68.85,-2.03,32.35,1
4715,68.86,-9.91,37.84,1
4716,68.88,-8.44,33.38,1
4717,68.89,1.48,40.06,1
4718,68.9,5.02,48.24,1
4719,68.92,1.79,46.99,1
4720,68.93,-0.04,44.11,1
4721,68.94,0.1,30.83,1
4722,68.96,1.71,15.56,1
4723,68.97,5.92,23.58,1
4724,68.98,6.86,43.37,1
4725,69.0,3.54,55.32,1
4726,69.01,5.76,56.44,1
4727,69.02,9.43,43.51,1
4728,69.04,-2.78,34.44,1
4729,69.05,-21.61,42.43,1
4730,69.06,-18.04,45.72,1
4731,69.08,2.16,41.68,1
4732,69.09,4.25,44.69,1
4733,69.1,-11.43,47.16,1
4734,69.12,-15.04,46.83,1
4735,69.13,-8.73,44.38,1
4736,69.14,-11.85,31.68,1
4737,69.16,-16.11,27.05,1
4738,69.17,-9.27,42.28,1
4739,69.18,-0.56,43.24,1
4740,69.2,-0.67,23.66,1
4741,69.21,-5.91,19.96,1
4742,69.22,-5.86,28.2,1
4743,69.24,-1.35,25.55,1
4744,69.25,-2.02,21.0,1
4745,69.26,-4.97,22.65,1
4746,69.28,-2.95,28.64,1
4747,69.29,-1.64,32.84,1
4748,69.3,-4.65,23.22,1
4749,69.32,-2.5,13.83,1
4750,69.33,6.16,22.08,1
4751,69.34,9.44,27.79,1
4752,69.36,3.92,23.37,1
4753,69.37,-3.31,27.91,1
4754,69.38,-6.1,31.33,1
4755,69.4,-5.82,19.16,1
4756,69.41,-8.54,6.79,1
4757,69.43,-13.41,2.92,1
4758,69.44,-14.9,7.97,1
4759,69.45,-12.37,17.29,1
4760,69.46,-4.71,10.85,1
4761,69.48,8.54,-6.0,1
4762,69.49,15.24,-5.75,1
4763,69.5,5.14,1.8,1
4764,69.52,-8.34,-4.0,1
4765,69.53,-6.39,-11.03,1
4766,69.54,6.22,-9.38,1
4767,69.56,9.22,-2.46,1
4768,69.57,-1.45,6.73,1
4769,69.58,-5.29,3.4,1
4770,69.6,5.59,-10.7,1
4771,69.61,11.97,-10.08,1
4772,69.62,8.42,-2.04,1
4773,69.64,5.52,-3.44,1
4774,69.65,2.89,1.08,1
4775,69.66,0.18,6.81,1
4776,69.68,-1.48,-3.8,1
4777,69.69,-7.97,-9.99,1
4778,69.7,-12.55,-3.29,1
4779,69.72,-2.06,-3.97,1
4780,69.73,13.42,-11.5,1
4781,69.74,17.4,-15.4,1
4782,69.76,13.42,-16.16,1
4783,69.77,8.29,-11.93,1
4784,69.78,1.92,-6.52,1
4785,69.8,-3.75,-10.83,1
4786,69.81,-5.06,-19.74,1
4787,69.82,-2.72,-21.94,1
4788,69.84,-5.2,-15.59,1
4789,69.85,-12.66,-9.98,1
4790,69.86,-7.67,-21.77,1
4791,69.88,12.79,-35.94,1
4792,69.89,18.8,-21.67,1
4793,69.9,0.65,-3.5,1
4794,69.92,-10.39,-11.74,1
4795,69.93,-3.72,-18.16,1
4796,69.94,-0.56,-8.81,1
4797,69.96,-3.75,-7.61,1
4798,69.97,0.92,-16.03,1
4799,69.98,13.41,-22.03,1
4800,70.0,18.09,-17.63,1
4801,70.01,7.4,-3.14,1
4802,70.02,-4.94,-1.0,1
4803,70.04,-7.11,-16.73,1
4804,70.05,-4.17,-26.92,1
4805,70.06,1.69,-25.19,1
4806,70.08,7.2,-20.66,1
4807,70.09,-1.65,-20.04,1
4808,70.11,-17.29,-29.28,1
4809,70.12,-16.6,-33.12,1
4810,70.13,-4.91,-15.04,1
4811,70.14,3.99,-2.48,1
4812,70.16,9.14,-12.56,2
4813,70.17,6.31,-19.43,2
4814,70.18,2.18,-19.74,2
4815,70.2,5.23,-27.57,2
4816,70.21,2.15,-23.24,2
4817,70.22,-9.02,15.37,2
4818,70.24,-7.5,58.84,2
4819,70.25,9.65,71.99,2
4820,70.26,17.85,69.93,2
4821,70.28,7.45,67.19,2
4822,70.29,2.3,42.47,2
4823,70.3,19.55,17.94,2
4824,70.32,41.71,67.75,2
4825,70.33,44.9,137.17,2
4826,70.34,23.28,107.0,2
4827,70.36,-15.99,60.38,2
4828,70.37,-46.72,84.53,2
4829,70.38,-36.77,69.63,2
4830,70.4,-1.84,-16.66,2
4831,70.41,5.24,-58.58,2
4832,70.42,-12.16,-15.93,2
4833,70.44,-6.57,29.57,2
4834,70.45,8.87,24.25,2
4835,70.46,3.03,16.8,2
4836,70.48,1.44,22.48,2
4837,70.49,13.76,3.54,2
4838,70.5,10.05,-7.04,2
4839,70.52,-11.62,16.69,2
4840,70.53,-27.54,-13.65,2
4841,70.54,-25.18,-136.1,2
4842,70.56,-11.59,-212.56,1
