,Timestamp,Data1,Data2,Label
0,6.0,6.58,9.67,1
1,6.01,15.03,1.97,1
2,6.03,-4.99,-5.65,1
3,6.04,-28.14,-3.97,1
4,6.05,-22.03,11.48,1
5,6.07,-1.75,21.75,1
6,6.08,3.28,7.26,1
7,6.09,-0.26,-16.3,1
8,6.11,7.57,-19.33,1
9,6.12,16.51,-5.29,1
10,6.13,12.34,-0.99,1
11,6.15,3.69,-4.75,2
12,6.16,-12.52,8.2,2
13,6.17,-44.47,38.74,2
14,6.19,-61.85,37.87,2
15,6.2,-41.59,-22.35,2
16,6.21,-15.95,8.5,2
17,6.23,-12.87,266.4,2
18,6.24,-8.22,478.38,2
19,6.25,10.75,317.41,2
20,6.27,2.99,42.75,2
21,6.28,-6.25,101.13,2
22,6.29,68.02,337.67,2
23,6.31,139.17,333.52,2
24,6.32,83.04,169.8,2
25,6.33,22.08,141.67,2
26,6.35,68.81,190.09,2
27,6.36,99.6,151.92,2
28,6.37,31.99,79.96,2
29,6.39,-37.89,55.54,2
30,6.4,-44.31,46.55,2
31,6.41,-28.47,17.57,2
32,6.43,-16.53,-13.74,2
33,6.44,8.94,-32.22,2
34,6.45,30.68,-47.89,2
35,6.47,12.27,-67.13,2
36,6.48,-21.76,-85.18,2
37,6.49,-23.15,-99.57,2
38,6.51,-17.58,-112.47,2
39,6.52,-42.21,-124.37,2
40,6.53,-43.2,-134.59,2
41,6.55,-2.09,-143.57,2
42,6.56,18.77,-151.76,1
43,6.57,32.83,-158.36,1
44,6.59,56.84,-163.32,1
45,6.6,24.3,-167.59,1
46,6.61,-44.91,-171.76,1
47,6.63,-60.99,-174.69,1
48,6.64,-43.93,-175.94,1
49,6.65,-57.36,-176.56,1
50,6.67,-80.83,-176.73,1
51,6.68,-60.19,-175.9,1
52,6.69,5.95,-174.0,1
53,6.71,41.05,-171.59,1
54,6.72,3.2,-169.25,1
55,6.73,-28.07,-166.51,1
56,6.75,-3.23,-162.96,1
57,6.76,25.97,-158.77,1
58,6.77,12.89,-154.06,1
59,6.79,-39.81,-148.81,1
60,6.8,-67.16,-143.69,1
61,6.81,-21.35,-138.73,1
62,6.82,22.07,-132.82,1
63,6.84,-2.57,-126.21,1
64,6.85,-22.11,-119.86,1
65,6.86,13.53,-113.82,1
66,6.88,27.26,-107.42,1
67,6.89,-13.41,-100.61,1
68,6.91,-34.09,-93.37,1
69,6.92,-5.36,-86.26,1
70,6.93,25.36,-79.67,1
71,6.95,19.26,-73.07,1
72,6.96,-9.4,-65.84,1
73,6.97,-15.1,-58.63,1
74,6.99,7.94,-51.7,1
75,7.0,22.11,-45.16,1
76,7.01,15.19,-50.12,1
77,7.03,14.9,-88.91,1
78,7.04,23.39,-164.6,1
79,7.05,-6.67,-262.19,1
80,7.07,-55.38,-341.41,1
81,7.08,-32.73,-314.9,1
82,7.09,33.78,-190.42,1
83,7.11,47.47,-110.84,1
84,7.12,19.65,-118.66,1
85,7.13,13.14,-146.75,1
86,7.15,37.38,-162.17,1
87,7.16,46.13,-132.51,1
88,7.17,18.17,-73.44,1
89,7.19,8.23,-26.52,1
90,7.2,40.64,63.79,1
91,7.21,59.58,160.69,1
92,7.23,40.04,130.17,1
93,7.24,15.54,56.9,1
94,7.25,14.96,63.52,1
95,7.27,37.49,92.65,1
96,7.28,36.76,143.69,1
97,7.29,-10.47,194.04,1
98,7.31,-37.26,123.87,1
99,7.32,-10.48,18.8,1
100,7.33,9.28,34.23,1
101,7.35,-0.12,103.64,1
102,7.36,-1.21,139.01,1
103,7.37,16.35,184.23,1
104,7.39,29.3,244.45,1
105,7.4,16.13,229.14,1
106,7.41,-13.06,141.02,1
107,7.43,-23.76,130.6,1
108,7.44,-5.18,236.26,1
109,7.45,18.58,299.28,1
110,7.47,22.1,260.53,1
111,7.48,9.32,229.46,1
112,7.49,2.04,256.82,1
113,7.51,7.19,288.84,1
114,7.52,12.1,256.23,1
115,7.53,6.76,173.38,1
116,7.55,-6.7,140.91,1
117,7.56,-23.32,200.35,1
118,7.57,-29.9,279.84,1
119,7.59,-9.55,304.17,1
120,7.6,9.9,280.41,1
121,7.61,-9.16,235.96,1
122,7.63,-37.33,182.02,1
123,7.64,-31.7,157.67,1
124,7.65,5.83,194.33,1
125,7.67,37.08,252.27,1
126,7.68,18.42,226.01,1
127,7.69,-26.26,82.05,1
128,7.71,-27.92,-23.48,1
129,7.72,-1.16,45.91,1
130,7.73,-10.0,169.29,1
131,7.75,-30.45,172.27,1
132,7.76,-24.75,92.52,1
133,7.77,-28.03,46.34,1
134,7.79,-33.38,61.3,1
135,7.8,-11.39,109.04,1
136,7.81,-2.92,111.75,1
137,7.83,-21.23,46.11,1
138,7.84,-28.51,24.11,1
139,7.85,-27.87,73.52,1
140,7.87,-35.97,98.02,1
141,7.88,-37.29,85.8,1
142,7.89,-22.69,57.83,1
143,7.91,-16.44,-19.23,1
144,7.92,-24.42,-81.55,1
145,7.93,-17.76,-39.15,1
146,7.95,-8.9,-6.67,1
147,7.96,-17.67,-79.84,1
148,7.97,-5.83,-110.28,1
149,7.99,29.28,4.22,1
150,8.0,35.71,115.27,1
151,8.01,8.49,80.92,1
152,8.03,-16.46,-1.07,1
153,8.04,-28.21,-22.71,1
154,8.05,-44.47,-80.08,1
155,8.07,-57.11,-192.39,1
156,8.08,-37.27,-158.02,1
157,8.09,-15.72,39.36,1
158,8.1,-21.02,115.11,1
159,8.12,-1.53,13.53,1
160,8.13,37.59,-14.02,1
161,8.15,31.03,43.32,0
162,8.16,12.81,-6.13,0
163,8.17,24.56,-100.9,0
164,8.19,21.69,-110.97,0
165,8.2,0.84,-101.47,0
166,8.21,1.31,-94.11,0
167,8.23,15.46,-67.32,0
168,8.24,26.77,-73.92,0
169,8.25,31.4,-77.53,0
170,8.27,19.84,-43.02,0
171,8.28,6.44,-53.02,0
172,8.29,9.69,-106.72,0
173,8.31,10.42,-143.71,0
174,8.32,0.61,-203.16,0
175,8.33,3.87,-306.3,0
176,8.35,21.6,-381.13,0
177,8.36,34.96,-384.71,0
178,8.37,38.91,-338.32,0
179,8.39,34.18,-269.45,0
180,8.4,23.34,-196.69,0
181,8.41,15.23,-128.29,0
182,8.43,12.47,-59.82,0
183,8.44,8.33,1.64,0
184,8.45,1.5,36.73,0
185,8.47,-4.67,44.89,0
186,8.48,-6.25,45.94,0
187,8.49,-2.75,49.48,0
188,8.51,-1.73,46.35,0
189,8.52,-1.29,31.95,0
190,8.53,3.13,20.25,0
191,8.55,2.38,23.44,1
192,8.56,-4.35,31.36,1
193,8.57,-7.99,28.24,1
194,8.59,-9.64,22.51,1
195,8.6,-11.02,28.44,1
196,8.61,-8.53,35.15,1
197,8.63,-3.05,31.31,1
198,8.64,0.91,22.76,1
199,8.65,1.98,13.29,1
200,8.67,-0.19,6.89,1
201,8.68,-5.24,11.14,1
202,8.69,-8.63,17.74,1
203,8.71,-6.33,10.59,1
204,8.72,1.04,-6.45,1
205,8.73,6.92,-13.72,1
206,8.75,5.55,-4.48,1
207,8.76,-0.35,4.87,1
208,8.77,-3.72,-0.38,1
209,8.78,-2.89,-13.46,1
210,8.8,-4.4,-22.19,1
211,8.81,-9.41,-24.45,1
212,8.82,-6.19,-21.7,1
213,8.84,4.98,-12.96,1
214,8.85,3.66,-1.54,1
215,8.87,-10.62,1.4,1
216,8.88,-11.59,-7.08,1
217,8.89,6.32,-14.41,1
218,8.91,17.05,-15.39,1
219,8.92,8.42,-18.04,1
220,8.93,2.86,-19.81,1
221,8.95,13.99,-12.76,1
222,8.96,22.63,-8.64,1
223,8.97,15.28,-22.02,1
224,8.99,-0.38,-37.79,1
225,9.0,-10.11,-34.57,1
226,9.01,-5.62,-23.78,1
227,9.03,2.48,-23.09,1
228,9.04,2.4,-22.03,1
229,9.05,-0.43,-12.99,1
230,9.07,-0.3,-11.42,1
231,9.08,1.02,-24.62,1
232,9.09,4.26,-35.05,1
233,9.11,8.7,-26.07,1
234,9.12,6.65,-10.28,1
235,9.13,-3.91,-10.3,1
236,9.15,-11.39,-22.06,1
237,9.16,-9.99,-25.38,1
238,9.17,-5.68,-13.29,1
239,9.19,0.63,1.56,1
240,9.2,9.43,-1.06,1
241,9.21,12.79,-17.82,1
242,9.23,7.09,-24.88,1
243,9.24,1.36,-24.49,1
244,9.25,6.62,-26.62,1
245,9.27,14.11,-17.37,1
246,9.28,1.59,0.83,1
247,9.29,-20.35,4.3,1
248,9.31,-19.4,-7.71,1
249,9.32,-1.13,-16.7,1
250,9.33,8.02,-18.17,1
251,9.35,7.0,-18.54,1
252,9.36,2.43,-15.98,1
253,9.37,-7.31,-6.98,1
254,9.39,-17.77,0.46,1
255,9.4,-18.07,-2.53,1
256,9.41,-5.11,-6.83,1
257,9.43,4.65,-1.24,1
258,9.44,-2.52,7.62,1
259,9.45,-11.93,11.01,1
260,9.47,-8.82,7.51,1
261,9.48,-0.38,-0.69,1
262,9.49,7.58,-5.42,1
263,9.51,11.19,0.86,1
264,9.52,1.3,13.01,1
265,9.53,-13.27,18.31,1
266,9.55,-12.3,15.02,1
267,9.56,-0.15,10.76,1
268,9.57,4.01,7.28,1
269,9.59,-2.13,2.49,1
270,9.6,-4.64,1.04,1
271,9.61,2.68,7.46,1
272,9.63,6.44,13.73,1
273,9.64,1.91,10.67,1
274,9.65,4.95,3.96,1
275,9.67,10.83,5.58,1
276,9.68,2.6,15.45,1
277,9.69,-4.81,21.92,1
278,9.71,1.44,21.37,1
279,9.72,4.13,19.05,1
280,9.73,-1.46,12.24,1
281,9.75,-0.5,0.65,1
282,9.76,2.18,-2.11,1
283,9.77,-5.94,8.84,1
284,9.79,-14.93,16.77,1
285,9.8,-10.49,15.83,1
286,9.81,3.45,20.19,1
287,9.83,10.06,25.63,1
288,9.84,-0.72,19.71,1
289,9.85,-9.59,14.05,1
290,9.87,3.26,17.19,1
291,9.88,13.02,18.97,1
292,9.89,-2.45,15.06,1
293,9.91,-14.06,13.44,1
294,9.92,-3.36,18.32,1
295,9.93,2.15,23.17,1
296,9.95,-8.58,19.96,1
297,9.96,-5.52,8.9,1
298,9.97,15.48,1.34,1
299,9.99,18.22,5.9,1
300,10.0,2.21,12.14,1
301,10.01,-2.37,10.76,1
302,10.02,-8.49,10.14,1
303,10.04,-32.47,14.31,1
304,10.05,-41.04,13.69,1
305,10.06,-17.33,9.18,1
306,10.08,6.55,12.46,1
307,10.09,8.94,19.04,1
308,10.1,3.49,15.51,1
309,10.12,8.05,6.72,1
310,10.13,16.17,6.04,1
311,10.15,11.11,12.83,0
312,10.16,3.28,16.52,0
313,10.17,12.09,13.27,0
314,10.19,26.04,-1.39,0
315,10.2,33.4,-44.43,0
316,10.21,45.56,-100.2,0
317,10.23,62.46,-121.24,0
318,10.24,64.3,-113.53,0
319,10.25,49.9,-119.17,0
320,10.27,42.8,-141.26,0
321,10.28,40.65,-162.75,0
322,10.29,21.69,-175.22,0
323,10.31,-1.98,-172.74,0
324,10.32,-13.86,-151.22,0
325,10.33,-23.79,-110.29,0
326,10.35,-32.25,-63.65,0
327,10.36,-32.3,-28.65,0
328,10.37,-36.95,6.25,0
329,10.39,-51.45,55.83,0
330,10.4,-58.82,100.2,0
331,10.41,-49.9,125.91,0
332,10.43,-31.19,148.64,0
333,10.44,-16.13,169.05,0
334,10.45,-16.91,182.29,0
335,10.47,-25.63,204.49,0
336,10.48,-27.05,228.23,0
337,10.49,-27.24,225.98,0
338,10.51,-36.1,205.89,0
339,10.52,-38.63,188.56,0
340,10.53,-16.2,171.38,0
341,10.55,11.07,150.62,1
342,10.56,9.27,133.71,1
343,10.57,-9.81,126.95,1
344,10.59,-12.16,126.12,1
345,10.6,-4.29,118.58,1
346,10.61,-7.72,97.78,1
347,10.63,-9.97,73.3,1
348,10.64,-0.63,56.97,1
349,10.65,-1.82,47.49,1
350,10.67,-12.92,44.52,1
351,10.68,-4.71,47.19,1
352,10.69,13.16,42.85,1
353,10.71,7.21,27.61,1
354,10.72,-13.2,14.83,1
355,10.73,-14.21,9.77,1
356,10.75,1.87,0.33,1
357,10.76,10.27,-17.82,1
358,10.77,8.51,-28.45,1
359,10.78,2.61,-25.05,1
360,10.8,-2.8,-23.06,1
361,10.81,2.95,-31.01,1
362,10.83,13.9,-41.07,1
363,10.84,14.18,-47.09,1
364,10.85,8.7,-47.48,1
365,10.87,5.69,-42.13,1
366,10.88,3.08,-35.83,1
367,10.89,3.04,-36.39,1
368,10.91,5.47,-44.79,1
369,10.92,4.84,-53.98,1
370,10.93,6.47,-59.44,1
371,10.95,12.42,-63.56,1
372,10.96,7.91,-66.37,1
373,10.97,-4.38,-64.52,1
374,10.99,8.21,-60.94,1
375,11.0,40.78,-60.04,1
376,11.01,40.47,-59.92,1
377,11.03,8.28,-57.89,1
378,11.04,-2.55,-57.32,1
379,11.05,10.69,-60.32,1
380,11.07,12.33,-58.36,1
381,11.08,0.89,-51.11,1
382,11.09,-3.38,-49.81,1
383,11.11,-1.96,-52.64,1
384,11.12,-2.01,-57.39,1
385,11.13,3.69,-68.35,1
386,11.15,11.65,-69.6,1
387,11.16,8.28,-49.64,1
388,11.17,0.97,-33.22,1
389,11.19,5.95,-37.91,1
390,11.2,18.26,-46.08,1
391,11.21,19.5,-46.82,1
392,11.23,5.27,-48.77,1
393,11.24,-6.97,-54.54,1
394,11.25,-1.83,-57.85,1
395,11.27,11.75,-52.22,1
396,11.28,19.25,-40.84,1
397,11.29,20.35,-35.55,1
398,11.31,16.82,-36.11,1
399,11.32,8.87,-30.85,1
400,11.33,1.36,-22.89,1
401,11.35,-3.54,-27.72,1
402,11.36,-3.66,-40.51,1
403,11.37,3.83,-39.69,1
404,11.39,10.67,-23.08,1
405,11.4,5.91,-9.88,1
406,11.41,-5.19,-12.46,1
407,11.43,-9.34,-23.19,1
408,11.44,-1.72,-26.39,1
409,11.45,16.35,-20.18,1
410,11.47,31.62,-18.95,1
411,11.48,23.56,-27.53,1
412,11.49,-6.77,-31.14,1
413,11.51,-35.03,-18.85,1
414,11.52,-39.48,-1.63,1
415,11.53,-19.77,4.93,1
416,11.55,4.47,4.62,1
417,11.56,14.78,5.15,1
418,11.57,6.99,0.12,1
419,11.59,-11.79,-8.12,1
420,11.6,-23.82,-2.77,1
421,11.61,-18.32,13.96,1
422,11.63,-9.2,20.96,1
423,11.64,-5.96,13.5,1
424,11.65,7.12,4.37,1
425,11.67,25.56,4.43,1
426,11.68,17.81,14.99,1
427,11.69,-12.3,23.83,1
428,11.71,-27.78,20.66,1
429,11.72,-19.58,12.76,1
430,11.73,-4.57,10.28,1
431,11.75,8.71,13.51,1
432,11.76,18.19,18.34,1
433,11.77,10.01,25.14,1
434,11.79,-22.44,35.24,1
435,11.8,-43.2,38.82,1
436,11.81,-19.93,26.66,1
437,11.83,13.93,9.0,1
438,11.84,15.86,0.26,1
439,11.85,2.64,2.86,1
440,11.87,3.17,13.39,1
441,11.88,8.42,22.32,1
442,11.89,3.0,21.21,1
443,11.91,-7.58,14.47,1
444,11.92,-11.41,8.33,1
445,11.93,-3.44,5.0,1
446,11.94,7.44,3.11,1
447,11.96,5.85,-0.19,1
448,11.97,-7.67,0.26,1
449,11.98,-15.42,12.56,1
450,12.0,-6.75,33.32,1
451,12.01,3.79,45.99,1
452,12.02,-9.65,39.46,1
453,12.04,-39.98,25.9,1
454,12.05,-41.33,23.28,1
455,12.06,-4.86,27.45,1
456,12.08,18.26,22.29,1
457,12.09,12.07,16.5,1
458,12.1,10.58,28.61,1
459,12.12,15.4,39.52,1
460,12.13,8.04,27.57,1
461,12.15,-3.04,16.75,2
462,12.16,-2.52,22.03,2
463,12.17,10.92,15.86,2
464,12.19,19.14,-5.82,2
465,12.2,6.62,-9.83,2
466,12.21,-2.79,13.26,2
467,12.23,7.07,37.78,2
468,12.24,4.8,49.75,2
469,12.25,-20.38,79.31,2
470,12.27,-40.37,165.92,2
471,12.28,-48.59,287.23,2
472,12.29,-57.06,369.83,2
473,12.31,-61.8,376.7,2
474,12.32,-56.54,331.09,2
475,12.33,-42.68,258.91,2
476,12.35,-11.36,162.33,2
477,12.36,39.4,59.57,2
478,12.37,78.65,-13.61,2
479,12.39,75.53,-65.98,2
480,12.4,36.19,-134.81,2
481,12.41,-2.7,-213.06,2
482,12.43,-8.61,-261.93,2
483,12.44,7.74,-262.1,2
484,12.45,13.96,-229.42,2
485,12.47,10.51,-203.68,2
486,12.48,14.47,-201.96,2
487,12.49,12.16,-188.65,2
488,12.51,-12.61,-139.37,2
489,12.52,-31.65,-104.39,2
490,12.53,-12.46,-129.98,2
491,12.55,25.6,-169.69,1
492,12.56,41.57,-161.7,1
493,12.57,29.95,-122.45,1
494,12.59,17.47,-93.88,1
495,12.6,20.16,-79.65,1
496,12.61,26.18,-74.65,1
497,12.63,15.42,-80.77,1
498,12.64,-7.74,-81.43,1
499,12.65,-15.81,-61.56,1
500,12.67,-5.73,-35.03,1
501,12.68,9.84,-23.0,1
502,12.69,36.03,-23.81,1
503,12.71,57.55,-16.23,1
504,12.72,42.65,-2.79,1
505,12.73,7.04,-11.83,1
506,12.75,-11.87,-35.44,1
507,12.76,-16.18,-41.21,1
508,12.77,-21.92,-27.47,1
509,12.79,-24.22,-5.52,1
510,12.8,-14.79,15.65,1
511,12.81,5.25,18.98,1
512,12.83,26.92,10.78,1
513,12.84,34.25,20.77,1
514,12.85,15.36,43.98,1
515,12.87,-17.79,45.31,1
516,12.88,-33.95,24.15,1
517,12.89,-25.09,14.16,1
518,12.91,-14.81,28.54,1
519,12.92,-12.74,50.43,1
520,12.93,-7.79,56.28,1
521,12.95,1.03,35.07,1
522,12.96,0.98,11.1,1
523,12.97,-5.88,16.92,1
524,12.99,-2.52,42.31,1
525,13.0,8.56,55.68,1
526,13.01,8.4,46.37,1
527,13.03,-6.73,28.82,1
528,13.04,-24.89,24.45,1
529,13.05,-33.85,33.04,1
530,13.07,-31.42,37.72,1
531,13.08,-24.16,40.5,1
532,13.09,-13.84,48.75,1
533,13.11,4.16,55.22,1
534,13.12,19.86,62.0,1
535,13.13,16.04,66.64,1
536,13.15,1.11,52.03,1
537,13.16,-6.66,28.33,1
538,13.17,-10.32,25.06,1
539,13.19,-14.68,42.89,1
540,13.2,-10.23,53.58,1
541,13.21,0.91,40.86,1
542,13.23,1.12,23.12,1
543,13.24,-7.47,22.66,1
544,13.25,-4.93,33.48,1
545,13.27,6.35,36.8,1
546,13.28,6.27,30.07,1
547,13.29,-5.38,28.32,1
548,13.31,-12.16,37.23,1
549,13.32,-11.09,43.21,1
550,13.33,-2.93,35.96,1
551,13.35,13.98,20.84,1
552,13.36,20.47,11.04,1
553,13.37,5.22,13.22,1
554,13.39,-3.66,16.45,1
555,13.4,6.55,13.85,1
556,13.41,8.19,15.2,1
557,13.43,-4.08,18.58,1
558,13.44,-3.25,14.08,1
559,13.45,9.53,9.23,1
560,13.47,6.84,14.24,1
561,13.48,-10.35,19.22,1
562,13.49,-18.49,11.49,1
563,13.51,-12.12,-0.28,1
564,13.52,-0.94,-4.35,1
565,13.53,6.19,-1.99,1
566,13.55,6.06,2.96,1
567,13.56,2.8,7.24,1
568,13.57,-2.31,14.05,1
569,13.59,-6.88,24.69,1
570,13.6,-2.96,20.65,1
571,13.61,5.04,-6.4,1
572,13.63,1.53,-27.06,1
573,13.64,-9.71,-15.93,1
574,13.65,-9.28,7.98,1
575,13.67,-2.54,12.06,1
576,13.68,-6.75,-3.38,1
577,13.69,-6.09,-12.24,1
578,13.71,13.02,-5.61,1
579,13.72,19.18,2.65,1
580,13.73,-2.7,6.65,1
581,13.75,-14.71,6.96,1
582,13.76,1.35,-4.51,1
583,13.77,12.08,-24.63,1
584,13.79,-0.35,-33.25,1
585,13.8,-11.06,-23.62,1
586,13.81,-4.45,-12.58,1
587,13.83,1.87,-11.95,1
588,13.84,-3.01,-13.48,1
589,13.85,-4.63,-11.37,1
590,13.86,4.51,-12.2,1
591,13.88,10.62,-17.13,1
592,13.89,6.47,-18.01,1
593,13.9,3.49,-12.31,1
594,13.92,3.44,-7.05,1
595,13.93,0.91,-12.51,1
596,13.94,7.03,-26.54,1
597,13.96,19.44,-34.27,1
598,13.97,16.0,-32.0,1
599,13.98,2.36,-27.61,1
600,14.0,1.39,-23.96,1
601,14.01,11.5,-17.66,1
602,14.02,13.47,-8.23,1
603,14.04,-3.58,-4.9,1
604,14.05,-22.54,-13.12,1
605,14.07,-17.69,-22.99,1
606,14.08,-1.96,-26.39,1
607,14.09,-7.74,-31.79,1
608,14.11,-27.64,-26.39,1
609,14.12,-30.95,37.08,1
610,14.13,-18.72,114.37,1
611,14.15,-17.21,93.23,2
612,14.16,-35.85,36.37,2
613,14.17,-40.72,44.54,2
614,14.19,0.81,-25.54,2
615,14.2,53.35,-202.12,2
616,14.21,61.94,-124.58,2
617,14.23,46.34,253.39,2
618,14.24,70.64,394.1,2
619,14.25,123.04,117.22,2
620,14.27,120.24,-134.47,2
621,14.28,45.82,-18.77,2
622,14.29,-22.87,311.63,2
623,14.31,-13.16,426.8,2
624,14.32,33.18,236.7,2
625,14.33,4.11,105.15,2
626,14.35,-58.99,183.77,2
627,14.36,-37.12,235.09,2
628,14.37,1.94,132.99,2
629,14.39,-23.9,-12.55,2
630,14.4,-25.15,-89.8,2
631,14.41,18.43,-83.18,2
632,14.43,7.08,-94.11,2
633,14.44,-43.13,-183.74,2
634,14.45,-58.03,-239.86,2
635,14.47,-53.12,-202.8,2
636,14.48,-51.96,-200.85,2
637,14.49,-52.11,-313.44,2
638,14.51,-61.3,-383.54,2
639,14.52,-58.91,-253.71,2
640,14.53,-20.12,-89.09,2
641,14.55,18.9,-127.02,1
642,14.56,18.69,-249.65,1
643,14.57,1.88,-208.24,1
644,14.59,-4.35,-58.24,1
645,14.6,2.78,-18.58,1
646,14.61,26.74,-97.39,1
647,14.63,40.3,-159.01,1
648,14.64,10.0,-141.82,1
649,14.65,-21.73,-77.27,1
650,14.67,-2.52,-62.01,1
651,14.68,22.36,-88.14,1
652,14.69,-3.87,-36.5,1
653,14.71,-28.55,11.65,1
654,14.72,0.24,-98.5,1
655,14.73,19.96,-244.9,1
656,14.75,-7.03,-255.56,1
657,14.76,-13.36,-194.38,1
658,14.77,22.68,-167.25,1
659,14.79,37.11,-127.12,1
660,14.8,12.85,-6.97,1
661,14.81,6.27,66.23,1
662,14.83,36.39,-36.15,1
663,14.84,38.11,-107.73,1
664,14.85,-13.79,40.06,1
665,14.87,-40.04,158.76,1
666,14.88,-6.04,25.01,1
667,14.89,18.02,-139.62,1
668,14.91,-5.81,-66.3,1
669,14.92,-27.41,134.35,1
670,14.93,-16.35,190.74,1
671,14.95,-5.08,100.57,1
672,14.96,5.86,23.33,1
673,14.97,36.39,-7.55,1
674,14.99,45.39,11.25,1
675,15.0,9.66,73.67,1
676,15.01,-15.43,96.61,1
677,15.03,3.09,78.46,1
678,15.04,37.19,89.14,1
679,15.05,59.19,74.99,1
680,15.07,52.09,18.39,1
681,15.08,11.55,45.72,1
682,15.09,-19.01,103.16,1
683,15.11,-3.1,60.75,1
684,15.12,21.95,4.88,1
685,15.13,27.35,-3.2,1
686,15.15,29.57,0.39,1
687,15.16,1.92,34.02,1
688,15.17,-71.07,74.63,1
689,15.19,-100.86,67.73,1
690,15.2,-41.24,53.52,1
691,15.21,20.3,64.31,1
692,15.23,15.8,57.91,1
693,15.24,-19.72,67.12,1
694,15.25,-28.89,144.2,1
695,15.27,-3.54,171.38,1
696,15.28,26.34,43.52,1
697,15.29,28.05,-70.2,1
698,15.31,2.21,18.21,1
699,15.32,1.36,142.9,1
700,15.33,33.71,101.55,1
701,15.35,24.2,48.51,1
702,15.36,-34.4,117.92,1
703,15.37,-52.71,177.94,1
704,15.39,-12.74,140.14,1
705,15.4,7.24,64.16,1
706,15.41,-18.55,48.06,1
707,15.43,-33.28,90.15,1
708,15.44,-17.43,73.92,1
709,15.45,-2.16,-7.14,1
710,15.47,16.95,-62.97,1
711,15.48,30.77,-66.43,1
712,15.49,1.91,-12.12,1
713,15.51,-35.68,74.44,1
714,15.52,-36.03,118.7,1
715,15.53,-19.02,100.04,1
716,15.55,-6.63,63.11,1
717,15.56,1.2,29.25,1
718,15.57,6.33,-4.38,1
719,15.59,9.57,-8.38,1
720,15.6,9.25,8.42,1
721,15.61,7.59,-33.24,1
722,15.63,7.4,-84.04,1
723,15.64,6.89,-10.49,1
724,15.65,2.26,89.15,1
725,15.67,-9.8,57.88,1
726,15.68,-25.69,-14.58,1
727,15.69,-29.35,-12.21,1
728,15.71,-10.42,24.7,1
729,15.72,14.17,3.1,1
730,15.73,15.57,-86.16,1
731,15.75,-8.97,-95.01,1
732,15.76,-12.77,25.5,1
733,15.77,21.6,73.36,1
734,15.78,28.62,7.68,1
735,15.8,-8.31,18.35,1
736,15.81,-19.56,107.37,1
737,15.82,13.92,138.45,1
738,15.84,41.87,96.99,1
739,15.85,34.77,32.07,1
740,15.86,12.07,-13.13,1
741,15.88,-4.26,1.35,1
742,15.89,-15.12,55.67,1
743,15.9,-19.39,61.2,1
744,15.92,-2.25,-33.36,1
745,15.93,25.92,-114.75,1
746,15.94,19.6,-50.38,1
747,15.96,-18.03,56.33,1
748,15.97,-21.95,73.35,1
749,15.98,18.26,67.94,1
750,16.0,36.27,47.3,1
751,16.01,8.35,-65.39,1
752,16.03,-25.45,-129.44,1
753,16.04,-44.13,-11.83,1
754,16.05,-36.58,73.28,1
755,16.07,1.63,-66.16,1
756,16.08,28.53,-244.08,1
757,16.09,19.06,-205.28,1
758,16.11,-1.34,2.48,1
759,16.12,-8.61,121.14,1
760,16.13,7.88,43.17,1
761,16.15,27.17,-77.11,1
762,16.16,3.7,-65.47,0
763,16.17,-50.28,44.26,0
764,16.19,-71.74,94.18,0
765,16.2,-47.85,66.5,0
766,16.21,-8.36,44.27,0
767,16.23,32.53,22.68,0
768,16.24,53.61,-13.76,0
769,16.25,35.19,-36.71,0
770,16.27,8.78,-58.65,0
771,16.28,16.23,-111.13,0
772,16.29,39.48,-157.73,0
773,16.31,35.71,-138.92,0
774,16.32,6.36,-90.34,0
775,16.33,-16.42,-102.54,0
776,16.35,-14.9,-187.71,0
777,16.36,-0.03,-269.07,0
778,16.37,8.76,-280.5,0
779,16.39,12.39,-233.96,0
780,16.4,18.32,-165.81,0
781,16.41,16.1,-86.68,0
782,16.42,2.05,-18.86,0
783,16.44,-4.64,12.5,0
784,16.45,4.52,24.73,0
785,16.46,10.69,43.98,0
786,16.48,-3.62,64.56,0
787,16.49,-22.12,73.15,0
788,16.5,-16.54,73.66,0
789,16.52,-0.23,75.52,0
790,16.53,-3.13,80.04,0
791,16.54,-14.76,76.92,0
792,16.56,-17.34,56.98,1
793,16.57,-21.44,36.76,1
794,16.58,-25.35,37.06,1
795,16.6,-16.09,44.33,1
796,16.61,-11.77,37.8,1
797,16.62,-24.48,24.74,1
798,16.64,-25.41,21.72,1
799,16.65,-5.01,33.21,1
800,16.67,5.21,47.71,1
801,16.68,-4.99,52.71,1
802,16.69,-13.34,51.14,1
803,16.71,-12.94,47.39,1
804,16.72,-10.84,42.92,1
805,16.73,-4.79,41.76,1
806,16.75,1.74,39.47,1
807,16.76,2.79,33.04,1
808,16.77,5.74,32.97,1
809,16.79,11.34,36.53,1
810,16.8,7.21,34.74,1
811,16.81,-4.77,41.21,1
812,16.83,-8.12,54.37,1
813,16.84,-0.2,50.55,1
814,16.85,8.79,35.51,1
815,16.87,11.02,26.16,1
816,16.88,5.88,19.47,1
817,16.89,3.32,16.1,1
818,16.91,8.53,19.16,1
819,16.92,13.18,19.83,1
820,16.93,15.58,18.14,1
821,16.95,16.94,24.73,1
822,16.96,8.29,32.74,1
823,16.97,-5.11,25.55,1
824,16.99,-6.81,7.86,1
825,17.0,-2.32,1.65,1
826,17.01,-3.06,8.01,1
827,17.03,-2.14,8.12,1
828,17.04,6.16,1.25,1
829,17.05,15.22,-2.93,1
830,17.06,14.23,-5.65,1
831,17.08,0.65,-5.67,1
832,17.09,-8.2,-2.3,1
833,17.1,1.86,-6.52,1
834,17.12,12.89,-17.61,1
835,17.13,5.34,-18.69,1
836,17.14,-8.65,-12.04,1
837,17.16,-12.25,-14.6,1
838,17.17,-7.85,-20.67,1
839,17.18,-2.19,-13.81,1
840,17.2,4.52,-0.79,1
841,17.21,14.26,-1.07,1
842,17.22,22.27,-15.78,1
843,17.24,17.32,-25.63,1
844,17.25,-0.46,-22.71,1
845,17.26,-11.94,-22.39,1
846,17.28,-6.82,-29.81,1
847,17.29,0.77,-28.25,1
848,17.3,2.56,-15.06,1
849,17.32,4.14,-12.25,1
850,17.33,5.48,-25.25,1
851,17.35,7.14,-30.47,1
852,17.36,8.99,-20.78,1
853,17.37,4.92,-17.92,1
854,17.39,0.19,-22.81,1
855,17.4,1.07,-16.25,1
856,17.41,0.7,-8.9,1
857,17.43,0.19,-18.55,1
858,17.44,3.88,-28.29,1
859,17.45,5.04,-20.17,1
860,17.47,3.01,-9.03,1
861,17.48,-0.13,-15.1,1
862,17.49,-5.7,-30.03,1
863,17.51,-8.0,-31.42,1
864,17.52,-6.83,-20.54,1
865,17.53,-7.23,-14.29,1
866,17.55,-4.81,-14.54,1
867,17.56,3.13,-17.51,1
868,17.57,10.63,-23.55,1
869,17.59,10.92,-25.33,1
870,17.6,5.84,-19.72,1
871,17.61,2.78,-18.74,1
872,17.63,3.18,-22.93,1
873,17.64,2.81,-15.6,1
874,17.65,-0.46,0.89,1
875,17.67,-3.94,2.23,1
876,17.68,-3.52,-14.81,1
877,17.69,-2.67,-23.28,1
878,17.7,-9.41,-11.99,1
879,17.72,-15.55,-3.19,1
880,17.73,-4.75,-9.91,1
881,17.75,9.03,-18.93,1
882,17.76,3.32,-21.88,1
883,17.77,-8.6,-22.5,1
884,17.78,-6.64,-23.01,1
885,17.8,1.83,-21.28,1
886,17.81,0.57,-13.02,1
887,17.82,-6.65,-2.96,1
888,17.84,-2.82,-2.86,1
889,17.85,5.33,-6.8,1
890,17.86,-2.75,-0.19,1
891,17.88,-17.2,9.41,1
892,17.89,-12.87,4.38,1
893,17.9,6.05,-8.65,1
894,17.92,13.74,-12.93,1
895,17.93,4.68,-12.9,1
896,17.94,-0.8,-13.58,1
897,17.96,4.7,-4.9,1
898,17.97,4.12,4.66,1
899,17.99,-7.3,-2.56,1
900,18.0,-9.16,-10.24,1
901,18.01,2.61,1.24,1
902,18.03,1.51,13.67,1
903,18.04,-24.27,11.55,1
904,18.05,-42.94,9.34,1
905,18.07,-30.27,11.1,1
906,18.08,-12.1,6.09,1
907,18.09,-8.9,3.91,1
908,18.11,-4.56,14.1,1
909,18.12,3.87,18.35,1
910,18.13,6.1,9.7,1
911,18.15,12.22,7.19,1
912,18.16,27.6,9.23,0
913,18.17,32.83,6.53,0
914,18.19,21.16,5.61,0
915,18.2,16.49,-23.68,0
916,18.21,30.22,-102.51,0
917,18.23,43.67,-158.93,0
918,18.24,53.31,-141.2,0
919,18.25,65.35,-107.97,0
920,18.27,59.0,-111.18,0
921,18.28,34.14,-134.0,0
922,18.29,20.86,-154.18,0
923,18.31,15.08,-157.79,0
924,18.32,-5.39,-131.76,0
925,18.33,-23.7,-89.68,0
926,18.34,-13.28,-54.58,0
927,18.36,9.23,-23.51,0
928,18.37,7.96,15.49,0
929,18.38,-17.25,55.63,0
930,18.4,-36.91,81.99,0
931,18.41,-38.97,99.25,0
932,18.42,-41.58,123.56,0
933,18.44,-54.54,152.48,0
934,18.45,-60.63,172.83,0
935,18.46,-52.3,183.4,0
936,18.48,-40.23,191.47,0
937,18.49,-24.52,201.62,0
938,18.5,-11.38,212.18,0
939,18.52,-13.49,214.34,0
940,18.53,-16.24,201.24,0
941,18.54,-11.56,176.88,0
942,18.56,-15.62,150.77,1
943,18.57,-17.29,131.46,1
944,18.58,-6.09,121.25,1
945,18.6,-6.89,112.76,1
946,18.61,-16.17,95.58,1
947,18.63,-10.68,72.46,1
948,18.64,-5.55,59.04,1
949,18.65,-14.23,58.16,1
950,18.67,-15.59,58.55,1
951,18.68,1.53,53.29,1
952,18.69,18.43,40.09,1
953,18.71,15.13,23.61,1
954,18.72,-2.91,14.7,1
955,18.73,-14.39,13.24,1
956,18.75,-11.31,11.21,1
957,18.76,-2.46,6.4,1
958,18.77,1.13,-0.15,1
959,18.79,1.73,-5.3,1
960,18.8,8.68,-7.23,1
961,18.81,16.71,-10.98,1
962,18.83,15.85,-19.49,1
963,18.84,6.54,-27.72,1
964,18.85,-3.05,-28.71,1
965,18.87,-1.34,-25.77,1
966,18.88,7.63,-32.06,1
967,18.89,11.96,-45.51,1
968,18.91,14.52,-48.94,1
969,18.92,14.98,-44.2,1
970,18.93,7.27,-45.7,1
971,18.95,-2.41,-49.23,1
972,18.96,-6.09,-46.53,1
973,18.97,-5.53,-47.12,1
974,18.98,-1.85,-55.99,1
975,19.0,5.94,-62.89,1
976,19.01,10.85,-64.28,1
977,19.02,8.91,-65.2,1
978,19.04,10.64,-64.57,1
979,19.05,19.42,-59.74,1
980,19.06,21.46,-57.01,1
981,19.08,12.96,-60.51,1
982,19.09,6.64,-60.63,1
983,19.1,10.63,-55.68,1
984,19.12,14.78,-55.98,1
985,19.13,5.54,-59.46,1
986,19.14,-6.37,-60.37,1
987,19.16,-3.35,-61.91,1
988,19.17,8.22,-59.69,1
989,19.18,14.92,-49.66,1
990,19.2,11.67,-41.85,1
991,19.21,2.15,-42.7,1
992,19.22,-0.02,-48.98,1
993,19.24,5.26,-54.3,1
994,19.25,3.02,-49.56,1
995,19.265,-3.19,-36.34,1
996,19.28,1.27,-28.01,1
997,19.29,9.05,-27.77,1
998,19.31,4.96,-27.62,1
999,19.32,-0.58,-26.84,1
1000,19.33,3.84,-28.94,1
1001,19.35,6.95,-29.37,1
1002,19.36,4.93,-29.58,1
1003,19.37,9.27,-35.31,1
1004,19.39,19.97,-33.27,1
1005,19.4,19.73,-17.19,1
1006,19.41,2.47,-7.16,1
1007,19.43,-10.64,-12.25,1
1008,19.44,-9.01,-21.68,1
1009,19.45,-9.86,-25.79,1
1010,19.47,-14.76,-24.57,1
1011,19.48,-5.23,-22.62,1
1012,19.49,11.01,-13.95,1
1013,19.51,8.05,2.92,1
1014,19.52,-11.86,9.95,1
1015,19.53,-19.08,1.91,1
1016,19.55,-0.02,-4.33,1
1017,19.56,22.21,-0.41,1
1018,19.57,21.25,8.36,1
1019,19.59,3.98,12.79,1
1020,19.6,-7.56,8.23,1
1021,19.61,-6.54,2.63,1
1022,19.62,1.33,2.8,1
1023,19.64,8.52,2.99,1
1024,19.65,7.76,2.05,1
1025,19.67,-0.56,5.7,1
1026,19.68,-7.37,9.13,1
1027,19.69,-6.15,1.4,1
1028,19.7,4.99,-7.06,1
1029,19.72,16.46,3.82,1
1030,19.73,8.21,20.62,1
1031,19.75,-15.61,18.9,1
1032,19.76,-23.84,10.98,1
1033,19.77,-7.33,15.08,1
1034,19.78,12.59,21.15,1
1035,19.8,16.97,21.25,1
1036,19.81,4.69,21.13,1
1037,19.82,-6.85,22.17,1
1038,19.84,-3.46,24.91,1
1039,19.85,1.11,25.94,1
1040,19.86,-4.21,14.86,1
1041,19.88,-5.61,-0.4,1
1042,19.89,-3.99,3.98,1
1043,19.9,-11.6,24.36,1
1044,19.92,-14.29,33.65,1
1045,19.93,-0.79,26.14,1
1046,19.95,10.46,18.86,1
1047,19.96,5.71,18.4,1
1048,19.97,-5.86,18.49,1
1049,19.99,-11.48,20.74,1
1050,20.0,-8.71,28.45,1
1051,20.01,-5.64,33.1,1
1052,20.03,-11.97,29.2,1
1053,20.04,-26.46,23.9,1
1054,20.05,-31.74,21.25,1
1055,20.07,-15.49,21.17,1
1056,20.08,-0.17,24.39,1
1057,20.09,-8.86,25.18,1
1058,20.11,-13.24,24.38,1
1059,20.12,9.67,29.21,1
1060,20.13,24.35,30.35,1
1061,20.15,9.77,23.35,1
1062,20.16,-5.76,26.05,2
1063,20.17,-8.75,40.01,2
1064,20.19,-6.97,42.2,2
1065,20.2,-0.14,22.1,2
1066,20.21,7.61,1.67,2
1067,20.23,11.36,27.18,2
1068,20.24,11.78,126.27,2
1069,20.25,-0.98,253.81,2
1070,20.26,-25.04,328.6,2
1071,20.28,-33.63,328.74,2
1072,20.29,-30.15,290.49,2
1073,20.3,-43.1,241.73,2
1074,20.32,-58.7,183.15,2
1075,20.33,-42.03,111.39,2
1076,20.34,1.38,31.33,2
1077,20.36,29.4,-45.64,2
1078,20.37,16.89,-107.73,2
1079,20.38,-6.36,-160.29,2
1080,20.4,3.32,-210.12,2
1081,20.41,33.09,-241.49,2
1082,20.42,42.88,-241.67,2
1083,20.44,36.92,-220.17,2
1084,20.45,36.0,-195.28,2
1085,20.46,33.19,-177.23,2
1086,20.48,21.07,-165.23,2
1087,20.49,10.45,-158.96,2
1088,20.5,9.09,-156.27,2
1089,20.52,12.41,-144.11,2
1090,20.53,19.06,-117.28,2
1091,20.54,32.68,-88.24,2
1092,20.56,40.63,-73.14,1
1093,20.57,27.66,-82.85,1
1094,20.59,7.98,-99.33,1
1095,20.6,2.9,-90.33,1
1096,20.61,5.92,-65.66,1
1097,20.63,4.19,-58.73,1
1098,20.64,4.74,-70.59,1
1099,20.65,9.84,-71.31,1
1100,20.67,6.9,-44.01,1
1101,20.68,2.45,-17.13,1
1102,20.69,9.68,-20.13,1
1103,20.71,12.75,-30.32,1
1104,20.72,0.85,-20.55,1
1105,20.73,-4.26,-12.17,1
1106,20.75,3.71,-18.68,1
1107,20.76,-3.66,-14.43,1
1108,20.77,-30.1,1.84,1
1109,20.79,-40.46,4.11,1
1110,20.8,-23.5,-0.57,1
1111,20.81,-2.03,7.33,1
1112,20.83,8.39,14.85,1
1113,20.84,7.08,14.93,1
1114,20.85,-3.77,27.79,1
1115,20.87,-18.85,52.39,1
1116,20.88,-26.49,59.31,1
1117,20.89,-18.38,40.97,1
1118,20.9,-2.12,27.06,1
1119,20.92,3.78,40.0,1
1120,20.93,-10.2,56.88,1
1121,20.94,-25.95,46.23,1
1122,20.96,-18.61,27.55,1
1123,20.97,1.97,35.27,1
1124,20.98,9.52,56.1,1
1125,21.0,5.34,60.16,1
1126,21.01,1.48,51.61,1
1127,21.02,-7.21,46.55,1
1128,21.04,-17.9,43.91,1
1129,21.05,-15.01,39.52,1
1130,21.06,-5.5,41.72,1
1131,21.08,-5.05,50.7,1
1132,21.09,-8.48,51.59,1
1133,21.1,-6.2,44.9,1
1134,21.12,-1.48,44.83,1
1135,21.13,-3.05,45.43,1
1136,21.14,-7.07,39.94,1
1137,21.16,-4.65,42.05,1
1138,21.17,-2.35,49.7,1
1139,21.18,-2.96,46.16,1
1140,21.2,-0.58,38.34,1
1141,21.21,-1.86,40.18,1
1142,21.23,-5.2,40.09,1
1143,21.24,1.86,25.75,1
1144,21.25,11.41,17.17,1
1145,21.27,6.09,29.83,1
1146,21.28,-10.54,41.11,1
1147,21.29,-17.65,35.66,1
1148,21.31,-6.14,31.75,1
1149,21.32,7.76,35.31,1
1150,21.33,6.71,27.95,1
1151,21.35,-3.19,12.21,1
1152,21.36,-7.1,9.77,1
1153,21.37,-3.56,14.57,1
1154,21.39,2.38,12.33,1
1155,21.4,11.13,13.64,1
1156,21.41,16.25,21.19,1
1157,21.43,3.47,23.26,1
1158,21.44,-19.93,21.72,1
1159,21.45,-27.39,19.35,1
1160,21.47,-14.23,12.76,1
1161,21.48,-0.1,6.24,1
1162,21.49,5.9,6.21,1
1163,21.51,6.97,12.52,1
1164,21.52,3.36,11.27,1
1165,21.53,-0.33,-5.47,1
1166,21.54,2.03,-14.62,1
1167,21.56,3.19,-5.15,1
1168,21.57,-2.85,-0.21,1
1169,21.58,-5.39,-3.42,1
1170,21.6,3.1,1.29,1
1171,21.61,13.39,2.78,1
1172,21.62,15.34,-12.52,1
1173,21.64,6.67,-22.21,1
1174,21.65,-6.19,-14.88,1
1175,21.67,-10.01,-12.65,1
1176,21.68,-1.98,-15.65,1
1177,21.69,7.77,-7.54,1
1178,21.7,8.28,-0.97,1
1179,21.72,1.26,-9.29,1
1180,21.73,0.26,-18.59,1
1181,21.75,3.76,-19.1,1
1182,21.76,0.71,-17.19,1
1183,21.77,-3.0,-16.24,1
1184,21.78,2.03,-16.05,1
1185,21.8,10.19,-14.55,1
1186,21.81,13.52,-8.13,1
1187,21.82,11.75,-4.74,1
1188,21.84,5.89,-14.95,1
1189,21.85,-0.98,-27.04,1
1190,21.87,-0.65,-25.61,1
1191,21.88,5.53,-17.69,1
1192,21.89,4.19,-13.97,1
1193,21.91,-2.5,-12.88,1
1194,21.92,-0.91,-10.11,1
1195,21.93,3.17,-9.78,1
1196,21.95,-1.76,-14.04,1
1197,21.96,-7.66,-12.58,1
1198,21.97,-5.87,-6.62,1
1199,21.99,1.13,-9.88,1
1200,22.0,8.85,-19.66,1
1201,22.01,9.59,-21.97,1
1202,22.03,-1.32,-16.74,1
1203,22.04,-19.31,-17.58,1
1204,22.05,-28.46,-25.95,1
1205,22.07,-15.31,-22.9,1
1206,22.08,1.83,-6.4,1
1207,22.09,3.7,-3.05,1
1208,22.11,4.94,-21.21,1
1209,22.12,12.76,-35.15,1
1210,22.13,18.32,-31.03,1
1211,22.15,20.83,-26.49,1
1212,22.16,21.26,-21.42,2
1213,22.17,13.2,8.73,2
1214,22.18,-29.04,47.34,2
1215,22.2,-111.71,63.25,2
1216,22.21,-173.03,95.21,2
1217,22.22,-153.95,184.28,2
1218,22.24,-72.5,205.95,2
1219,22.25,15.05,38.66,2
1220,22.26,72.92,-45.51,2
1221,22.28,90.67,200.98,2
1222,22.29,79.97,421.41,2
1223,22.3,87.95,326.88,2
1224,22.32,137.38,197.33,2
1225,22.33,161.93,214.47,2
1226,22.34,110.26,219.8,2
1227,22.36,51.23,152.46,2
1228,22.37,48.01,101.64,2
1229,22.38,39.4,86.6,2
1230,22.4,-5.07,64.13,2
1231,22.41,-16.36,29.58,2
1232,22.42,8.25,1.59,2
1233,22.44,16.54,-44.16,2
1234,22.45,0.07,-135.4,2
1235,22.46,-24.02,-210.73,2
1236,22.48,-28.01,-253.23,2
1237,22.49,-20.24,-343.95,2
1238,22.5,-34.11,-393.82,2
1239,22.52,-45.44,-273.86,2
1240,22.53,-31.3,-154.8,2
1241,22.55,-28.36,-230.75,1
1242,22.56,-43.05,-333.66,1
1243,22.57,-40.37,-238.67,1
1244,22.59,-21.08,-136.21,1
1245,22.6,-6.18,-245.13,1
1246,22.61,-4.95,-308.53,1
1247,22.63,-7.82,-126.44,1
1248,22.64,1.95,-0.18,1
1249,22.65,6.95,-141.89,1
1250,22.67,-10.78,-301.51,1
1251,22.68,-29.41,-262.95,1
1252,22.69,-19.21,-172.34,1
1253,22.71,14.47,-216.64,1
1254,22.72,30.15,-256.36,1
1255,22.73,18.33,-89.92,1
1256,22.75,5.53,72.2,1
1257,22.76,-2.05,-7.49,1
1258,22.77,-3.49,-122.17,1
1259,22.79,11.75,-103.99,1
1260,22.8,18.76,-74.34,1
1261,22.81,-13.86,-61.6,1
1262,22.82,-32.83,-10.23,1
1263,22.84,-3.98,28.48,1
1264,22.85,-6.75,-0.07,1
1265,22.86,-52.58,-24.46,1
1266,22.88,-48.57,46.84,1
1267,22.89,8.03,120.46,1
1268,22.9,37.44,69.9,1
1269,22.92,19.07,-8.79,1
1270,22.93,-13.12,-9.37,1
1271,22.94,-40.54,-2.13,1
1272,22.96,-48.12,-9.61,1
1273,22.97,-18.69,27.93,1
1274,22.98,8.53,81.22,1
1275,23.0,-9.04,109.69,1
1276,23.01,-30.18,125.42,1
1277,23.02,-12.78,120.16,1
1278,23.04,14.42,86.54,1
1279,23.05,21.45,51.39,1
1280,23.06,18.92,42.08,1
1281,23.08,14.78,41.79,1
1282,23.09,2.04,11.97,1
1283,23.1,-11.36,-6.11,1
1284,23.12,-7.62,40.65,1
1285,23.13,11.77,72.87,1
1286,23.14,21.86,38.42,1
1287,23.16,-0.21,26.18,1
1288,23.17,-23.82,78.01,1
1289,23.19,4.7,127.99,1
1290,23.2,46.51,124.11,1
1291,23.21,28.01,84.86,1
1292,23.23,-14.38,70.14,1
1293,23.24,-12.44,108.77,1
1294,23.25,16.74,147.67,1
1295,23.27,29.93,130.08,1
1296,23.28,16.2,69.96,1
1297,23.29,-14.08,9.86,1
1298,23.31,-29.8,0.07,1
1299,23.32,-16.06,46.92,1
1300,23.33,4.73,92.75,1
1301,23.35,11.68,100.08,1
1302,23.36,12.87,77.82,1
1303,23.37,24.87,82.16,1
1304,23.39,28.28,121.02,1
1305,23.4,5.03,107.25,1
1306,23.41,-11.36,56.41,1
1307,23.43,-0.72,61.93,1
1308,23.44,4.27,105.86,1
1309,23.45,-19.42,92.47,1
1310,23.46,-30.32,-14.41,1
1311,23.48,4.66,-71.05,1
1312,23.49,28.57,32.13,1
1313,23.5,7.34,126.38,1
1314,23.52,-2.81,80.57,1
1315,23.53,11.36,-2.15,1
1316,23.54,5.67,-41.96,1
1317,23.56,-8.67,-36.63,1
1318,23.57,-5.77,47.73,1
1319,23.58,-10.99,172.54,1
1320,23.6,-33.18,164.56,1
1321,23.61,-30.07,3.92,1
1322,23.62,8.72,-54.03,1
1323,23.64,25.3,44.27,1
1324,23.65,2.58,78.55,1
1325,23.67,-9.58,49.48,1
1326,23.68,-4.72,52.46,1
1327,23.69,-10.75,23.27,1
1328,23.7,-12.64,-14.27,1
1329,23.72,2.02,11.94,1
1330,23.73,6.29,34.39,1
1331,23.75,-3.74,14.8,1
1332,23.76,-10.14,1.17,1
1333,23.77,-17.05,15.39,1
1334,23.78,-12.74,39.83,1
1335,23.8,18.48,20.71,1
1336,23.81,45.78,-27.28,1
1337,23.83,41.31,-36.08,1
1338,23.84,19.32,-46.84,1
1339,23.85,5.75,-70.56,1
1340,23.87,9.84,-28.18,1
1341,23.88,18.37,37.24,1
1342,23.89,9.37,37.83,1
1343,23.91,-13.82,9.87,1
1344,23.92,-13.46,10.69,1
1345,23.93,7.45,32.27,1
1346,23.95,-0.61,41.89,1
1347,23.96,-18.42,25.52,1
1348,23.97,-1.09,9.85,1
1349,23.99,8.3,21.11,1
1350,24.0,-23.86,49.27,1
1351,24.01,-46.83,35.46,1
1352,24.03,-28.65,-50.41,1
1353,24.04,1.19,-78.55,1
1354,24.05,1.32,-11.97,1
1355,24.07,-23.92,-28.26,1
1356,24.08,-19.2,-94.9,1
1357,24.09,13.39,-52.49,1
1358,24.1,7.54,6.61,1
1359,24.12,-21.29,-25.98,1
1360,24.13,-12.55,-55.78,1
1361,24.14,7.2,-19.03,1
1362,24.16,-0.8,-4.94,0
1363,24.17,-8.36,-28.12,0
1364,24.18,-3.24,-18.26,0
1365,24.2,-4.89,-19.98,0
1366,24.21,-0.36,-44.33,0
1367,24.22,19.47,-18.3,0
1368,24.24,35.09,15.88,0
1369,24.25,37.24,-8.03,0
1370,24.26,31.63,-43.74,0
1371,24.28,26.76,-41.0,0
1372,24.29,16.81,-28.37,0
1373,24.3,-7.24,-62.58,0
1374,24.32,-28.04,-136.41,0
1375,24.33,-23.91,-177.52,0
1376,24.34,-2.05,-162.69,0
1377,24.36,18.56,-155.08,0
1378,24.37,31.87,-198.57,0
1379,24.38,36.53,-250.81,0
1380,24.4,30.77,-250.7,0
1381,24.41,22.03,-197.56,0
1382,24.42,20.03,-134.46,0
1383,24.44,25.17,-82.65,0
1384,24.45,27.43,-34.28,0
1385,24.47,18.13,3.35,0
1386,24.48,6.59,18.48,0
1387,24.49,1.29,27.92,0
1388,24.51,-3.37,42.31,0
1389,24.52,-4.52,46.89,0
1390,24.53,2.2,44.04,0
1391,24.55,2.48,51.7,1
1392,24.56,-11.62,60.22,1
1393,24.57,-15.02,43.25,1
1394,24.59,8.64,10.73,1
1395,24.6,24.32,6.62,1
1396,24.61,3.63,42.12,1
1397,24.63,-23.06,75.46,1
1398,24.64,-25.95,78.15,1
1399,24.65,-19.64,71.2,1
1400,24.67,-19.15,75.4,1
1401,24.68,-17.3,79.03,1
1402,24.69,-15.54,76.97,1
1403,24.71,-23.87,78.43,1
1404,24.72,-30.96,74.71,1
1405,24.73,-27.37,56.74,1
1406,24.75,-32.04,44.08,1
1407,24.76,-46.69,54.25,1
1408,24.77,-42.75,70.26,1
1409,24.78,-20.82,73.33,1
1410,24.8,-9.84,67.7,1
1411,24.81,-15.0,60.43,1
1412,24.82,-16.84,55.23,1
1413,24.84,-7.48,56.18,1
1414,24.85,0.68,61.07,1
1415,24.86,0.02,63.67,1
1416,24.88,-1.78,63.77,1
1417,24.89,-0.61,62.99,1
1418,24.9,-0.04,56.74,1
1419,24.92,0.14,43.67,1
1420,24.93,1.19,32.28,1
1421,24.94,1.86,27.92,1
1422,24.96,2.44,26.24,1
1423,24.97,4.01,24.63,1
1424,24.98,6.95,20.98,1
1425,25.0,8.42,12.76,1
1426,25.01,5.39,7.76,1
1427,25.02,1.13,8.85,1
1428,25.04,0.78,5.41,1
1429,25.05,3.22,-1.03,1
1430,25.06,2.46,-1.39,1
1431,25.08,-2.32,1.18,1
1432,25.09,-5.38,1.9,1
1433,25.1,-3.91,-1.24,1
1434,25.12,2.78,-6.1,1
1435,25.13,10.48,-3.31,1
1436,25.15,8.17,3.46,1
1437,25.16,-3.33,-1.77,1
1438,25.17,-8.25,-16.93,1
1439,25.19,0.31,-25.95,1
1440,25.2,9.01,-25.02,1
1441,25.21,4.14,-23.78,1
1442,25.23,-3.49,-25.17,1
1443,25.24,1.56,-23.88,1
1444,25.25,10.61,-24.53,1
1445,25.27,8.45,-29.17,1
1446,25.28,-1.03,-29.12,1
1447,25.29,-3.5,-32.15,1
1448,25.31,2.62,-42.48,1
1449,25.32,5.29,-40.31,1
1450,25.33,0.65,-27.25,1
1451,25.35,0.37,-27.2,1
1452,25.36,9.85,-36.2,1
1453,25.37,13.59,-35.56,1
1454,25.38,2.37,-28.57,1
1455,25.4,-6.69,-25.83,1
1456,25.41,-6.19,-31.36,1
1457,25.42,-3.12,-42.39,1
1458,25.44,7.13,-40.55,1
1459,25.45,19.66,-23.82,1
1460,25.46,17.42,-17.69,1
1461,25.48,7.53,-26.58,1
1462,25.49,5.75,-34.24,1
1463,25.5,5.35,-33.48,1
1464,25.52,-2.45,-26.57,1
1465,25.53,-9.13,-23.8,1
1466,25.54,-5.9,-31.79,1
1467,25.56,4.36,-44.69,1
1468,25.57,13.58,-50.21,1
1469,25.58,13.19,-37.29,1
1470,25.6,5.09,-18.31,1
1471,25.61,1.23,-19.2,1
1472,25.62,-1.35,-33.66,1
1473,25.64,-9.41,-33.28,1
1474,25.65,-11.03,-19.63,1
1475,25.67,-0.1,-18.05,1
1476,25.68,8.58,-24.7,1
1477,25.69,5.39,-16.99,1
1478,25.7,-0.03,-5.8,1
1479,25.72,3.88,-9.68,1
1480,25.73,9.75,-15.07,1
1481,25.75,4.24,-9.83,1
1482,25.76,-7.04,-5.4,1
1483,25.77,-10.22,-7.1,1
1484,25.79,-4.44,-4.62,1
1485,25.8,4.2,0.17,1
1486,25.81,9.66,-7.96,1
1487,25.83,8.01,-22.12,1
1488,25.84,1.45,-17.64,1
1489,25.85,-4.69,-2.4,1
1490,25.87,-2.17,-3.68,1
1491,25.88,6.84,-10.93,1
1492,25.89,5.32,-5.88,1
1493,25.91,-3.45,-3.96,1
1494,25.92,2.05,-8.17,1
1495,25.93,14.7,-0.2,1
1496,25.95,10.99,11.97,1
1497,25.96,-3.99,8.56,1
1498,25.97,-9.11,-4.89,1
1499,25.99,1.52,-11.29,1
1500,26.0,19.69,-7.73,1
1501,26.01,26.01,-2.32,1
1502,26.02,7.1,-1.9,1
1503,26.04,-18.71,-6.26,1
1504,26.05,-27.89,-10.12,1
1505,26.06,-18.99,-9.51,1
1506,26.08,-4.42,-2.12,1
1507,26.09,2.81,8.87,1
1508,26.1,5.74,10.98,1
1509,26.12,11.45,2.56,1
1510,26.13,12.81,2.84,1
1511,26.14,10.17,17.04,1
1512,26.16,14.19,22.5,0
1513,26.17,20.8,11.4,0
1514,26.18,14.59,-2.2,0
1515,26.2,-1.53,-27.39,0
1516,26.21,-8.11,-78.97,0
1517,26.22,-3.3,-131.47,0
1518,26.24,5.29,-158.29,0
1519,26.25,22.19,-166.85,0
1520,26.26,38.16,-169.18,0
1521,26.28,35.51,-169.51,0
1522,26.29,19.7,-169.61,0
1523,26.3,5.99,-167.21,0
1524,26.32,2.75,-149.96,0
1525,26.33,1.8,-102.94,0
1526,26.34,-10.47,-39.66,0
1527,26.36,-19.94,11.25,0
1528,26.37,-8.65,44.75,0
1529,26.38,6.37,71.94,0
1530,26.4,1.77,104.92,0
1531,26.41,-14.61,143.44,0
1532,26.43,-22.08,167.2,0
1533,26.44,-20.53,170.05,0
1534,26.45,-21.47,176.58,0
1535,26.47,-18.52,197.49,0
1536,26.48,-6.98,215.24,0
1537,26.49,-4.68,223.18,0
1538,26.51,-14.67,227.21,0
1539,26.52,-21.66,219.65,0
1540,26.53,-28.0,199.84,0
1541,26.55,-35.97,183.03,1
1542,26.56,-31.07,168.59,1
1543,26.57,-16.18,151.84,1
1544,26.59,-12.52,138.85,1
1545,26.6,-15.55,124.83,1
1546,26.61,-6.3,106.97,1
1547,26.63,7.11,97.2,1
1548,26.64,7.95,91.44,1
1549,26.65,-7.57,75.17,1
1550,26.67,-28.92,57.28,1
1551,26.68,-23.18,50.64,1
1552,26.69,9.89,48.67,1
1553,26.7,23.65,39.66,1
1554,26.72,11.6,23.95,1
1555,26.73,0.34,14.41,1
1556,26.75,-7.92,11.97,1
1557,26.76,-13.45,0.23,1
1558,26.77,-11.31,-18.5,1
1559,26.78,-4.75,-24.8,1
1560,26.8,0.37,-17.52,1
1561,26.81,-3.36,-13.22,1
1562,26.82,-11.19,-20.57,1
1563,26.84,-10.41,-32.15,1
1564,26.85,-6.58,-38.65,1
1565,26.86,-5.66,-42.04,1
1566,26.88,5.02,-48.33,1
1567,26.89,23.42,-54.24,1
1568,26.9,25.0,-54.83,1
1569,26.92,8.18,-54.66,1
1570,26.93,-0.08,-55.37,1
1571,26.94,8.69,-52.08,1
1572,26.96,10.05,-45.94,1
1573,26.97,-4.14,-39.36,1
1574,26.98,-7.92,-37.58,1
1575,27.0,3.61,-49.12,1
1576,27.01,6.47,-63.86,1
1577,27.02,0.55,-66.79,1
1578,27.04,3.18,-65.4,1
1579,27.05,8.69,-65.84,1
1580,27.065,5.46,-61.57,1
1581,27.08,0.69,-53.01,1
1582,27.09,0.29,-45.53,1
1583,27.11,2.14,-45.09,1
1584,27.12,8.75,-56.25,1
1585,27.13,16.74,-69.85,1
1586,27.15,12.51,-69.52,1
1587,27.16,-2.39,-56.32,1
1588,27.17,-8.45,-47.61,1
1589,27.19,0.53,-51.53,1
1590,27.2,9.54,-58.86,1
1591,27.21,8.05,-56.45,1
1592,27.23,-0.6,-46.49,1
1593,27.24,-6.43,-42.97,1
1594,27.25,-2.93,-44.48,1
1595,27.27,2.64,-38.47,1
1596,27.28,0.89,-31.51,1
1597,27.29,1.78,-39.7,1
1598,27.3,12.71,-52.6,1
1599,27.32,17.02,-46.78,1
1600,27.33,6.71,-30.99,1
1601,27.34,-3.71,-27.14,1
1602,27.36,-5.58,-31.76,1
1603,27.37,-3.19,-34.94,1
1604,27.38,-2.25,-34.76,1
1605,27.4,-2.9,-28.57,1
1606,27.41,-0.62,-20.17,1
1607,27.42,8.79,-19.0,1
1608,27.44,21.64,-21.8,1
1609,27.45,22.31,-17.66,1
1610,27.46,6.1,-11.61,1
1611,27.48,-2.62,-16.36,1
1612,27.49,10.12,-25.18,1
1613,27.5,20.46,-21.75,1
1614,27.52,9.19,-9.12,1
1615,27.53,-4.06,-1.81,1
1616,27.54,4.72,-1.66,1
1617,27.56,20.45,-1.91,1
1618,27.57,13.35,1.91,1
1619,27.58,-10.69,6.82,1
1620,27.6,-19.15,7.02,1
1621,27.61,-7.17,7.29,1
1622,27.62,-3.85,6.75,1
1623,27.64,-15.63,-5.61,1
1624,27.65,-16.21,-17.54,1
1625,27.67,-1.43,-9.7,1
1626,27.68,4.77,7.83,1
1627,27.69,-1.47,16.48,1
1628,27.7,0.67,14.23,1
1629,27.72,12.05,10.69,1
1630,27.73,10.07,15.34,1
1631,27.75,-3.5,24.15,1
1632,27.76,-5.46,24.38,1
1633,27.77,-0.85,14.58,1
1634,27.79,-4.38,4.95,1
1635,27.8,-4.04,6.02,1
1636,27.81,3.98,20.19,1
1637,27.83,4.44,30.85,1
1638,27.84,-1.07,23.79,1
1639,27.85,0.66,14.18,1
1640,27.87,4.71,17.01,1
1641,27.88,-1.03,22.37,1
1642,27.89,-12.9,18.24,1
1643,27.91,-17.26,10.29,1
1644,27.92,-9.05,11.09,1
1645,27.93,0.08,21.07,1
1646,27.94,-1.26,27.36,1
1647,27.96,-8.37,24.33,1
1648,27.97,-10.46,21.18,1
1649,27.98,-3.85,21.66,1
1650,28.0,5.45,20.39,1
1651,28.01,7.85,21.95,1
1652,28.02,-0.96,30.23,1
1653,28.04,-13.81,37.04,1
1654,28.05,-17.96,38.25,1
1655,28.06,-12.89,32.53,1
1656,28.08,-5.45,17.71,1
1657,28.09,1.34,4.5,1
1658,28.1,-1.69,6.33,1
1659,28.12,-12.64,16.76,1
1660,28.13,-9.68,22.0,1
1661,28.14,9.65,26.4,1
1662,28.16,25.49,53.07,2
1663,28.17,22.99,129.22,2
1664,28.18,0.81,253.12,2
1665,28.2,-21.7,368.71,2
1666,28.21,-24.16,414.09,2
1667,28.22,-19.19,385.26,2
1668,28.24,-24.25,313.38,2
1669,28.25,-27.05,205.1,2
1670,28.26,-23.43,71.26,2
1671,28.28,-31.76,-33.82,2
1672,28.29,-47.34,-90.18,2
1673,28.3,-44.61,-137.66,2
1674,28.32,-19.55,-186.6,2
1675,28.33,9.19,-220.05,2
1676,28.34,27.54,-244.72,2
1677,28.36,32.33,-262.89,2
1678,28.37,26.64,-250.67,2
1679,28.39,23.52,-204.33,2
1680,28.4,31.07,-166.23,2
1681,28.41,29.71,-163.27,2
1682,28.43,7.0,-166.58,2
1683,28.44,-6.49,-152.49,2
1684,28.45,12.81,-127.89,2
1685,28.47,38.63,-92.22,2
1686,28.48,40.93,-47.74,2
1687,28.49,31.03,-25.57,2
1688,28.51,34.22,-47.37,2
1689,28.52,43.81,-81.74,2
1690,28.53,34.44,-83.63,2
1691,28.55,12.05,-60.47,1
1692,28.56,1.57,-49.1,1
1693,28.57,5.41,-50.5,1
1694,28.58,11.91,-48.89,1
1695,28.6,12.06,-45.84,1
1696,28.61,1.85,-39.86,1
1697,28.62,-9.35,-28.53,1
1698,28.64,-9.81,-21.09,1
1699,28.65,-3.89,-15.56,1
1700,28.67,1.79,-8.9,1
1701,28.68,5.92,-10.42,1
1702,28.69,3.6,-14.47,1
1703,28.7,-3.9,-4.18,1
1704,28.72,-7.02,16.71,1
1705,28.73,-4.8,30.14,1
1706,28.75,-6.58,29.42,1
1707,28.76,-14.24,23.27,1
1708,28.77,-14.01,20.39,1
1709,28.78,-2.07,20.12,1
1710,28.8,3.5,21.52,1
1711,28.81,-1.01,29.15,1
1712,28.82,-1.19,42.21,1
1713,28.84,2.85,51.48,1
1714,28.85,2.74,50.63,1
1715,28.86,-4.04,43.72,1
1716,28.88,-16.13,39.29,1
1717,28.89,-20.66,40.14,1
1718,28.9,-10.68,35.99,1
1719,28.92,-3.33,23.97,1
1720,28.93,-7.35,26.4,1
1721,28.94,-9.86,50.55,1
1722,28.96,-9.0,67.47,1
1723,28.97,-9.11,60.38,1
1724,28.98,-4.4,46.74,1
1725,29.0,0.84,42.72,1
1726,29.01,-2.87,43.93,1
1727,29.03,-8.21,41.72,1
1728,29.04,-3.68,35.32,1
1729,29.05,8.18,30.12,1
1730,29.07,12.76,33.67,1
1731,29.08,0.08,45.34,1
1732,29.09,-20.21,52.02,1
1733,29.11,-29.19,45.33,1
1734,29.12,-22.18,36.55,1
1735,29.13,-9.82,37.88,1
1736,29.15,-1.44,42.29,1
1737,29.16,2.18,38.06,1
1738,29.17,1.84,29.58,1
1739,29.19,-1.77,25.24,1
1740,29.2,-4.83,23.02,1
1741,29.21,-6.45,24.21,1
1742,29.22,-6.78,32.82,1
1743,29.24,-1.22,35.66,1
1744,29.25,5.45,23.77,1
1745,29.26,0.95,15.67,1
1746,29.28,-8.8,22.41,1
1747,29.29,-7.52,25.19,1
1748,29.3,3.71,12.43,1
1749,29.32,10.84,3.64,1
1750,29.33,8.42,15.85,1
1751,29.34,2.59,29.39,1
1752,29.36,-4.26,24.18,1
1753,29.37,-14.66,14.34,1
1754,29.38,-19.67,12.39,1
1755,29.4,-7.48,8.42,1
1756,29.41,10.54,-1.75,1
1757,29.42,13.13,-6.6,1
1758,29.44,-0.84,-0.36,1
1759,29.45,-12.47,4.44,1
1760,29.46,-9.48,-2.17,1
1761,29.48,-4.41,-8.51,1
1762,29.49,-7.01,-0.94,1
1763,29.5,-4.34,9.89,1
1764,29.52,6.01,9.18,1
1765,29.53,12.75,2.67,1
1766,29.54,15.89,-0.59,1
1767,29.56,10.84,-3.18,1
1768,29.57,-5.98,-6.35,1
1769,29.58,-14.53,-5.47,1
1770,29.6,-3.28,-5.79,1
1771,29.61,10.06,-17.78,1
1772,29.62,13.82,-30.72,1
1773,29.64,9.87,-23.89,1
1774,29.65,-3.9,-7.32,1
1775,29.67,-18.13,-5.44,1
1776,29.68,-12.85,-15.57,1
1777,29.69,4.79,-23.46,1
1778,29.71,7.91,-24.79,1
1779,29.72,-2.71,-21.37,1
1780,29.73,-5.12,-19.12,1
1781,29.75,2.37,-19.75,1
1782,29.76,7.37,-19.01,1
1783,29.77,8.52,-15.38,1
1784,29.79,10.71,-14.03,1
1785,29.8,12.53,-17.32,1
1786,29.81,9.12,-15.25,1
1787,29.83,2.33,-5.95,1
1788,29.84,-1.5,-7.85,1
1789,29.85,-2.94,-21.09,1
1790,29.86,-8.82,-26.2,1
1791,29.88,-14.36,-25.86,1
1792,29.89,-6.57,-25.55,1
1793,29.9,5.55,-17.26,1
1794,29.92,5.32,-9.67,1
1795,29.93,2.28,-12.76,1
1796,29.94,7.39,-15.79,1
1797,29.96,11.17,-19.55,1
1798,29.97,6.23,-29.72,1
1799,29.98,-0.27,-27.25,1
1800,30.0,1.07,-9.43,1
1801,30.01,9.14,-4.55,1
1802,30.02,11.41,-11.74,1
1803,30.04,-2.53,-13.29,1
1804,30.05,-21.78,-18.45,1
1805,30.06,-21.79,-28.77,1
1806,30.08,-5.47,-26.47,1
1807,30.09,2.54,-12.54,1
1808,30.1,5.86,-1.86,1
1809,30.12,15.3,-2.69,1
1810,30.13,17.72,-16.02,1
1811,30.14,13.77,-27.92,1
1812,30.16,18.03,-32.31,2
1813,30.17,20.38,-24.82,2
1814,30.18,12.44,45.58,2
1815,30.2,7.4,156.71,2
1816,30.21,3.79,215.1,2
1817,30.22,-9.03,213.0,2
1818,30.24,-26.0,128.41,2
1819,30.25,-26.57,63.35,2
1820,30.26,6.37,230.11,2
1821,30.28,53.25,424.1,2
1822,30.29,67.17,350.72,2
1823,30.3,24.64,196.79,2
1824,30.32,-37.17,176.89,2
1825,30.33,-41.95,191.23,2
1826,30.35,26.37,143.95,2
1827,30.36,84.41,88.93,2
1828,30.37,64.38,66.32,2
1829,30.39,8.5,48.38,2
1830,30.4,-11.65,18.94,2
1831,30.41,-3.44,-8.66,2
1832,30.43,0.21,-28.47,2
1833,30.44,8.66,-46.78,2
1834,30.45,20.98,-65.66,2
1835,30.47,15.08,-82.46,2
1836,30.48,-20.97,-97.15,2
1837,30.49,-67.98,-110.56,2
1838,30.5,-52.34,-122.45,2
1839,30.52,39.48,-132.77,2
1840,30.53,78.35,-144.26,2
1841,30.54,-1.14,-165.49,2
1842,30.56,-73.25,-217.25,1
1843,30.57,-50.02,-309.16,1
1844,30.58,-15.51,-380.21,1
1845,30.6,-35.03,-377.83,1
1846,30.61,-57.93,-371.87,1
1847,30.62,-56.83,-386.56,1
1848,30.64,-66.79,-340.78,1
1849,30.65,-78.86,-286.29,1
1850,30.67,-45.86,-303.8,1
1851,30.68,5.7,-283.53,1
1852,30.69,2.87,-172.51,1
1853,30.7,-25.86,-141.47,1
1854,30.72,-6.25,-273.25,1
1855,30.73,23.18,-354.62,1
1856,30.75,6.38,-233.18,1
1857,30.76,-19.98,-117.87,1
1858,30.77,-20.09,-143.8,1
1859,30.78,3.06,-116.59,1
1860,30.8,29.9,-7.88,1
1861,30.81,28.3,-11.81,1
1862,30.82,8.86,-94.22,1
1863,30.84,-3.03,-100.15,1
1864,30.85,-18.93,-48.26,1
1865,30.86,-31.74,-17.79,1
1866,30.88,-22.58,-13.96,1
1867,30.89,0.63,-15.33,1
1868,30.9,27.24,-34.84,1
1869,30.92,40.62,-54.1,1
1870,30.93,31.02,-6.65,1
1871,30.94,22.69,57.02,1
1872,30.96,22.45,31.95,1
1873,30.97,1.86,-6.91,1
1874,30.99,-25.22,41.4,1
1875,31.0,-14.12,109.32,1
1876,31.01,11.24,126.99,1
1877,31.03,3.07,103.12,1
1878,31.04,-6.28,51.3,1
1879,31.05,16.31,28.42,1
1880,31.07,29.6,106.22,1
1881,31.08,14.89,209.92,1
1882,31.09,5.45,204.54,1
1883,31.11,6.73,130.25,1
1884,31.12,-1.08,69.39,1
1885,31.13,-15.64,40.89,1
1886,31.14,-14.26,102.76,1
1887,31.16,12.76,174.62,1
1888,31.17,37.74,125.65,1
1889,31.18,37.01,93.63,1
1890,31.2,27.62,161.64,1
1891,31.21,18.0,162.56,1
1892,31.22,3.64,78.8,1
1893,31.24,-4.41,55.82,1
1894,31.25,-3.3,107.06,1
1895,31.26,-2.87,157.01,1
1896,31.28,-12.52,164.66,1
1897,31.29,-18.1,123.69,1
1898,31.3,8.06,101.67,1
1899,31.32,46.62,122.8,1
1900,31.33,45.29,82.55,1
1901,31.34,-4.64,4.22,1
1902,31.36,-47.22,10.2,1
1903,31.37,-42.59,60.56,1
1904,31.38,-13.41,106.94,1
1905,31.4,13.08,180.14,1
1906,31.41,28.82,216.94,1
1907,31.42,30.9,153.79,1
1908,31.44,18.79,83.48,1
1909,31.45,-6.72,88.04,1
1910,31.46,-13.6,105.14,1
1911,31.48,9.4,113.62,1
1912,31.49,4.48,172.46,1
1913,31.5,-21.86,219.59,1
1914,31.52,-3.73,191.67,1
1915,31.53,29.72,176.52,1
1916,31.54,28.16,197.89,1
1917,31.56,13.3,171.59,1
1918,31.57,14.42,105.91,1
1919,31.58,34.02,74.74,1
1920,31.6,37.62,61.94,1
1921,31.61,5.69,20.67,1
1922,31.63,-2.52,14.66,1
1923,31.64,31.52,70.37,1
1924,31.65,31.51,50.35,1
1925,31.67,-18.82,-60.12,1
1926,31.68,-53.73,-68.98,1
1927,31.69,-40.8,43.0,1
1928,31.71,-0.32,97.57,1
1929,31.72,27.01,49.0,1
1930,31.73,9.66,-27.21,1
1931,31.75,-24.96,-60.39,1
1932,31.76,-24.52,0.71,1
1933,31.77,-4.02,97.12,1
1934,31.78,0.06,97.75,1
1935,31.8,2.44,-3.06,1
1936,31.81,15.09,-58.03,1
1937,31.82,18.24,-5.61,1
1938,31.84,2.39,28.27,1
1939,31.85,-11.82,-22.34,1
1940,31.86,-8.25,-84.67,1
1941,31.88,-7.87,-126.7,1
1942,31.89,-18.22,-131.21,1
1943,31.9,-11.04,-53.05,1
1944,31.92,5.43,41.03,1
1945,31.93,-3.08,46.16,1
1946,31.94,-25.8,-29.3,1
1947,31.96,-31.62,-118.52,1
1948,31.97,-19.17,-131.36,1
1949,31.98,-6.5,-39.2,1
1950,32.0,10.56,37.05,1
1951,32.01,35.98,14.3,1
1952,32.03,32.66,-50.41,1
1953,32.04,-5.75,-99.54,1
1954,32.05,-36.49,-128.27,1
1955,32.06,-52.3,-135.11,1
1956,32.08,-58.17,-102.82,1
1957,32.09,-34.0,-68.16,1
1958,32.11,-2.76,-78.28,1
1959,32.12,-6.11,-71.3,1
1960,32.13,-6.17,-35.78,1
1961,32.15,27.28,-41.79,1
1962,32.16,32.13,-30.95,0
1963,32.17,-7.0,43.58,0
1964,32.19,-27.08,47.72,0
1965,32.2,-13.26,-69.2,0
1966,32.21,-2.35,-139.75,0
1967,32.22,-9.42,-72.12,0
1968,32.24,-10.35,-2.62,0
1969,32.25,12.24,-61.46,0
1970,32.27,32.98,-198.68,0
1971,32.28,26.94,-304.96,0
1972,32.29,7.91,-339.21,0
1973,32.31,-8.32,-310.87,0
1974,32.32,-19.42,-255.42,0
1975,32.33,-15.99,-214.2,0
1976,32.35,-0.17,-185.74,0
1977,32.36,5.51,-139.83,0
1978,32.37,-3.11,-78.7,0
1979,32.39,-5.5,-26.67,0
1980,32.4,4.24,12.58,0
1981,32.41,13.58,46.13,0
1982,32.43,15.16,69.79,0
1983,32.44,9.46,77.25,0
1984,32.45,2.31,73.86,0
1985,32.47,2.76,68.78,0
1986,32.48,8.46,65.58,0
1987,32.49,8.13,54.14,0
1988,32.51,6.89,24.03,0
1989,32.52,15.86,-4.17,0
1990,32.53,22.03,2.0,0
1991,32.54,11.02,35.57,0
1992,32.56,-2.89,60.39,1
1993,32.57,-7.93,59.78,1
1994,32.59,-14.56,48.28,1
1995,32.6,-20.77,46.45,1
1996,32.61,-12.53,54.28,1
1997,32.63,-0.21,55.19,1
1998,32.64,-1.3,47.34,1
1999,32.65,-5.51,43.28,1
2000,32.67,-0.33,46.45,1
2001,32.68,-0.5,52.0,1
2002,32.69,-12.16,51.43,1
2003,32.71,-15.95,41.13,1
2004,32.72,-9.77,37.77,1
2005,32.73,-10.15,50.68,1
2006,32.75,-14.58,56.08,1
2007,32.76,-11.64,42.37,1
2008,32.77,-5.96,36.07,1
2009,32.79,-8.56,49.18,1
2010,32.8,-13.51,54.81,1
2011,32.81,-4.97,42.28,1
2012,32.83,9.13,36.52,1
2013,32.84,8.35,39.66,1
2014,32.85,-1.3,32.52,1
2015,32.87,-3.97,23.63,1
2016,32.88,-2.36,25.89,1
2017,32.89,-2.29,27.56,1
2018,32.9,-2.85,24.48,1
2019,32.92,0.4,26.74,1
2020,32.93,10.23,30.51,1
2021,32.95,16.74,24.59,1
2022,32.96,10.78,13.64,1
2023,32.97,-0.55,9.17,1
2024,32.99,-8.23,14.34,1
2025,33.0,-11.43,23.16,1
2026,33.01,-9.54,24.99,1
2027,33.03,-1.11,14.98,1
2028,33.04,9.88,1.76,1
2029,33.05,14.21,-2.69,1
2030,33.06,7.44,-1.19,1
2031,33.08,-1.04,-3.06,1
2032,33.09,-0.04,-3.83,1
2033,33.11,5.52,0.49,1
2034,33.12,4.59,2.42,1
2035,33.13,-2.38,2.69,1
2036,33.15,-5.29,7.72,1
2037,33.16,-2.04,9.66,1
2038,33.17,-3.36,-0.71,1
2039,33.19,-9.44,-13.53,1
2040,33.2,-4.44,-16.33,1
2041,33.21,12.16,-11.93,1
2042,33.22,17.36,-9.02,1
2043,33.24,1.77,-10.43,1
2044,33.25,-9.4,-14.71,1
2045,33.27,1.63,-20.64,1
2046,33.28,11.03,-23.79,1
2047,33.29,1.69,-20.38,1
2048,33.31,-6.24,-14.02,1
2049,33.32,-2.6,-9.66,1
2050,33.33,-0.04,-9.86,1
2051,33.35,-0.59,-15.14,1
2052,33.36,0.44,-21.95,1
2053,33.37,5.09,-25.7,1
2054,33.38,13.94,-24.0,1
2055,33.4,17.06,-19.34,1
2056,33.41,7.83,-18.05,1
2057,33.43,-6.79,-24.25,1
2058,33.44,-17.04,-33.88,1
2059,33.45,-13.14,-35.78,1
2060,33.47,1.39,-21.62,1
2061,33.48,10.94,-2.36,1
2062,33.49,15.11,-0.38,1
2063,33.51,20.2,-15.97,1
2064,33.52,16.24,-26.78,1
2065,33.53,0.13,-21.0,1
2066,33.54,-7.64,-8.24,1
2067,33.56,4.84,-1.44,1
2068,33.57,19.71,-2.27,1
2069,33.59,15.96,-10.96,1
2070,33.6,1.52,-25.62,1
2071,33.61,-2.23,-28.86,1
2072,33.63,2.45,-16.32,1
2073,33.64,0.74,-8.32,1
2074,33.65,-3.11,-8.61,1
2075,33.67,-0.72,-5.69,1
2076,33.68,3.67,-6.63,1
2077,33.69,3.85,-17.74,1
2078,33.71,2.9,-24.92,1
2079,33.72,5.09,-18.76,1
2080,33.73,5.3,-7.51,1
2081,33.75,-2.06,-5.57,1
2082,33.76,-11.48,-12.03,1
2083,33.77,-13.09,-10.69,1
2084,33.79,-6.34,-4.12,1
2085,33.8,-2.86,-6.87,1
2086,33.81,-6.13,-11.19,1
2087,33.83,-4.04,-4.87,1
2088,33.84,2.68,5.26,1
2089,33.85,6.13,6.27,1
2090,33.87,10.83,-3.06,1
2091,33.88,12.72,-10.55,1
2092,33.89,3.08,-10.25,1
2093,33.9,-3.79,-13.72,1
2094,33.92,2.8,-20.37,1
2095,33.93,7.0,-13.58,1
2096,33.95,-1.19,2.37,1
2097,33.96,-8.47,12.48,1
2098,33.97,-4.36,15.98,1
2099,33.99,0.17,9.49,1
2100,34.0,-6.26,-6.57,1
2101,34.01,-10.63,-10.88,1
2102,34.03,-2.48,3.71,1
2103,34.04,-0.88,13.1,1
2104,34.05,-19.31,5.9,1
2105,34.06,-34.47,3.89,1
2106,34.08,-22.33,16.61,1
2107,34.09,-1.65,22.16,1
2108,34.11,0.43,11.86,1
2109,34.12,-0.24,-3.97,1
2110,34.13,18.3,-31.69,1
2111,34.15,37.14,-81.68,1
2112,34.16,31.09,-127.02,0
2113,34.17,10.43,-130.67,0
2114,34.19,4.81,-112.76,0
2115,34.2,18.33,-121.62,0
2116,34.21,30.37,-150.87,0
2117,34.23,38.74,-163.65,0
2118,34.24,53.53,-155.49,0
2119,34.25,66.9,-142.42,0
2120,34.27,66.94,-128.92,0
2121,34.28,51.69,-105.54,0
2122,34.29,20.83,-64.2,0
2123,34.31,-15.37,-15.2,0
2124,34.32,-30.19,22.92,0
2125,34.33,-20.1,50.01,0
2126,34.35,-14.59,77.61,0
2127,34.36,-25.91,108.17,0
2128,34.37,-37.68,137.3,0
2129,34.38,-38.09,160.79,0
2130,34.4,-32.49,177.82,0
2131,34.41,-31.49,188.71,0
2132,34.43,-36.91,191.36,0
2133,34.44,-36.92,192.46,0
2134,34.45,-25.64,200.93,0
2135,34.47,-19.53,204.96,0
2136,34.48,-27.83,190.41,0
2137,34.49,-35.26,170.62,0
2138,34.51,-34.09,164.74,0
2139,34.52,-31.21,160.48,0
2140,34.53,-26.3,134.49,0
2141,34.54,-18.56,100.62,0
2142,34.56,-15.31,90.6,1
2143,34.57,-13.87,99.68,1
2144,34.59,-3.71,97.94,1
2145,34.6,5.43,79.78,1
2146,34.61,-3.91,63.97,1
2147,34.63,-15.71,54.63,1
2148,34.64,-7.67,43.13,1
2149,34.65,5.03,36.07,1
2150,34.67,2.96,35.15,1
2151,34.68,-5.14,23.71,1
2152,34.69,-9.05,4.06,1
2153,34.71,-11.51,-3.91,1
2154,34.72,-11.94,-0.83,1
2155,34.73,-5.18,-2.47,1
2156,34.75,4.67,-12.17,1
2157,34.76,4.77,-20.9,1
2158,34.77,-0.77,-24.72,1
2159,34.79,5.42,-28.26,1
2160,34.8,15.29,-31.09,1
2161,34.81,10.33,-31.64,1
2162,34.83,-0.4,-37.91,1
2163,34.84,3.2,-47.13,1
2164,34.85,17.72,-41.85,1
2165,34.87,19.85,-30.94,1
2166,34.88,6.79,-37.51,1
2167,34.89,0.43,-50.7,1
2168,34.91,3.04,-54.15,1
2169,34.92,1.98,-57.6,1
2170,34.93,3.75,-64.03,1
2171,34.95,14.63,-62.04,1
2172,34.96,17.8,-54.88,1
2173,34.97,2.15,-56.49,1
2174,34.99,-10.58,-64.37,1
2175,35.0,-0.25,-67.11,1
2176,35.01,16.55,-66.51,1
2177,35.03,16.3,-66.75,1
2178,35.04,7.06,-63.62,1
2179,35.05,8.85,-59.32,1
2180,35.06,17.53,-62.49,1
2181,35.08,14.58,-65.46,1
2182,35.09,7.21,-54.82,1
2183,35.11,13.69,-42.88,1
2184,35.12,17.98,-46.95,1
2185,35.13,3.26,-57.33,1
2186,35.15,-6.7,-58.68,1
2187,35.16,2.68,-52.85,1
2188,35.17,10.74,-47.05,1
2189,35.19,8.13,-44.46,1
2190,35.2,5.59,-45.32,1
2191,35.21,9.08,-45.04,1
2192,35.22,14.7,-39.72,1
2193,35.24,10.91,-36.23,1
2194,35.25,-0.11,-41.83,1
2195,35.27,0.22,-46.04,1
2196,35.28,7.41,-35.71,1
2197,35.29,5.62,-22.05,1
2198,35.31,3.18,-21.13,1
2199,35.32,5.07,-24.28,1
2200,35.33,-0.71,-20.09,1
2201,35.35,-6.31,-19.24,1
2202,35.36,4.65,-27.82,1
2203,35.37,16.83,-32.95,1
2204,35.38,8.64,-32.05,1
2205,35.4,-8.85,-30.49,1
2206,35.41,-14.35,-21.36,1
2207,35.43,-8.72,-6.5,1
2208,35.44,-4.0,-1.39,1
2209,35.45,-0.13,-5.84,1
2210,35.47,6.28,-5.9,1
2211,35.48,6.35,-0.5,1
2212,35.49,-2.0,-0.99,1
2213,35.51,-2.58,-8.2,1
2214,35.52,7.45,-10.0,1
2215,35.53,8.34,-2.4,1
2216,35.55,-2.4,5.63,1
2217,35.56,-6.87,7.05,1
2218,35.57,-3.44,3.86,1
2219,35.59,-4.23,3.27,1
2220,35.6,-10.93,6.4,1
2221,35.61,-13.84,5.33,1
2222,35.63,-8.27,1.02,1
2223,35.64,-3.78,5.46,1
2224,35.65,-2.09,17.79,1
2225,35.67,7.59,24.04,1
2226,35.68,13.21,20.96,1
2227,35.69,1.38,16.2,1
2228,35.71,-6.56,16.22,1
2229,35.72,1.79,23.53,1
2230,35.73,7.38,29.43,1
2231,35.75,3.42,21.64,1
2232,35.76,1.12,7.44,1
2233,35.77,0.53,5.68,1
2234,35.79,-6.65,19.22,1
2235,35.8,-13.84,31.15,1
2236,35.81,-7.22,25.54,1
2237,35.83,6.83,6.45,1
2238,35.84,10.65,-5.32,1
2239,35.85,4.44,3.38,1
2240,35.87,0.19,19.69,1
2241,35.88,0.38,24.4,1
2242,35.89,0.37,22.56,1
2243,35.9,0.53,27.63,1
2244,35.92,1.61,33.63,1
2245,35.93,0.78,28.54,1
2246,35.95,-2.46,19.74,1
2247,35.96,-6.66,22.1,1
2248,35.97,-10.81,31.24,1
2249,35.99,-12.94,32.34,1
2250,36.0,-10.55,25.06,1
2251,36.01,-0.49,19.86,1
2252,36.03,12.01,19.99,1
2253,36.04,7.48,22.07,1
2254,36.05,-19.86,24.01,1
2255,36.06,-39.29,23.14,1
2256,36.08,-27.5,18.37,1
2257,36.09,-8.09,12.99,1
2258,36.11,-3.1,8.6,1
2259,36.12,-3.19,8.14,1
2260,36.13,-1.22,16.47,1
2261,36.15,2.48,25.46,1
2262,36.16,9.94,27.04,2
2263,36.17,17.4,28.74,2
2264,36.19,15.53,29.34,2
2265,36.2,3.89,23.27,2
2266,36.21,-5.81,21.6,2
2267,36.23,-7.55,39.48,2
2268,36.24,-3.28,95.21,2
2269,36.25,8.49,199.42,2
2270,36.27,20.32,316.32,2
2271,36.28,16.03,383.52,2
2272,36.29,-9.25,374.43,2
2273,36.31,-43.11,302.79,2
2274,36.32,-60.92,199.07,2
2275,36.33,-54.46,104.61,2
2276,36.35,-43.62,36.0,2
2277,36.36,-33.2,-33.6,2
2278,36.37,-10.79,-112.01,2
2279,36.38,11.04,-166.72,2
2280,36.4,15.5,-192.91,2
2281,36.41,16.26,-217.82,2
2282,36.43,20.97,-241.72,2
2283,36.44,16.66,-245.78,2
2284,36.45,8.67,-230.69,2
2285,36.47,11.75,-206.91,2
2286,36.48,18.5,-180.71,2
2287,36.49,18.32,-156.56,2
2288,36.51,15.99,-137.76,2
2289,36.52,17.36,-127.39,2
2290,36.53,19.5,-125.39,2
2291,36.54,17.48,-122.27,2
2292,36.56,12.95,-103.72,1
2293,36.57,12.02,-70.86,1
2294,36.59,11.21,-50.9,1
2295,36.6,5.29,-62.7,1
2296,36.61,2.42,-80.16,1
2297,36.63,8.06,-74.69,1
2298,36.64,12.96,-58.95,1
2299,36.65,8.4,-49.71,1
2300,36.67,1.09,-43.86,1
2301,36.68,1.22,-41.58,1
2302,36.69,7.29,-37.7,1
2303,36.71,16.09,-23.15,1
2304,36.72,22.09,-6.39,1
2305,36.73,18.5,4.15,1
2306,36.75,12.49,7.96,1
2307,36.76,7.51,-0.43,1
2308,36.77,-2.77,-13.97,1
2309,36.79,-8.25,-16.84,1
2310,36.8,-1.06,-7.39,1
2311,36.81,2.8,5.92,1
2312,36.83,-3.69,10.84,1
2313,36.84,-9.29,5.18,1
2314,36.85,-7.2,10.53,1
2315,36.87,1.06,33.2,1
2316,36.88,3.34,45.34,1
2317,36.89,-6.45,34.8,1
2318,36.9,-7.3,23.4,1
2319,36.92,9.6,28.5,1
2320,36.93,14.09,44.71,1
2321,36.95,-3.39,54.27,1
2322,36.96,-16.36,47.51,1
2323,36.97,-15.0,35.35,1
2324,36.99,-5.9,35.49,1
2325,37.0,8.99,45.67,1
2326,37.01,19.12,47.67,1
2327,37.03,12.16,40.86,1
2328,37.04,-5.1,39.83,1
2329,37.05,-17.83,41.97,1
2330,37.06,-20.48,38.85,1
2331,37.08,-16.76,39.85,1
2332,37.09,-12.07,46.44,1
2333,37.11,-3.18,44.46,1
2334,37.12,10.59,35.24,1
2335,37.13,11.24,34.16,1
2336,37.15,-5.97,43.17,1
2337,37.16,-16.86,51.9,1
2338,37.17,-16.13,53.89,1
2339,37.19,-19.21,46.97,1
2340,37.2,-20.41,35.0,1
2341,37.21,-8.86,29.3,1
2342,37.22,5.02,33.38,1
2343,37.24,7.9,39.1,1
2344,37.25,2.64,38.19,1
2345,37.27,-0.08,31.03,1
2346,37.28,-2.0,25.71,1
2347,37.29,-10.14,29.93,1
2348,37.31,-15.61,37.58,1
2349,37.32,-10.41,34.0,1
2350,37.33,-2.29,22.69,1
2351,37.35,2.24,22.53,1
2352,37.36,2.84,32.27,1
2353,37.37,1.99,36.09,1
2354,37.38,0.93,30.43,1
2355,37.4,-3.09,22.88,1
2356,37.41,-10.07,22.52,1
2357,37.43,-13.45,23.95,1
2358,37.44,-7.89,14.01,1
2359,37.45,-0.3,1.69,1
2360,37.47,-0.91,0.69,1
2361,37.48,-7.94,4.15,1
2362,37.49,-12.08,7.32,1
2363,37.51,-9.04,12.72,1
2364,37.52,-4.86,13.52,1
2365,37.53,-2.67,6.15,1
2366,37.54,5.04,-4.76,1
2367,37.56,15.42,-14.88,1
2368,37.57,13.26,-17.98,1
2369,37.59,-3.22,-12.33,1
2370,37.6,-14.42,-8.93,1
2371,37.61,-7.06,-11.42,1
2372,37.63,2.81,-6.6,1
2373,37.64,-1.95,6.83,1
2374,37.65,-8.02,13.21,1
2375,37.67,2.98,7.69,1
2376,37.68,15.74,2.17,1
2377,37.69,11.82,0.16,1
2378,37.71,5.91,-7.51,1
2379,37.72,7.61,-16.34,1
2380,37.73,5.37,-14.68,1
2381,37.75,1.12,-14.05,1
2382,37.76,-0.65,-27.16,1
2383,37.77,-4.74,-33.04,1
2384,37.79,-2.23,-16.0,1
2385,37.8,10.11,-0.67,1
2386,37.81,10.24,-5.37,1
2387,37.83,-4.99,-13.85,1
2388,37.84,-10.59,-14.08,1
2389,37.85,-0.28,-12.85,1
2390,37.87,14.19,-15.19,1
2391,37.88,22.65,-21.05,1
2392,37.89,12.44,-27.77,1
2393,37.9,-8.57,-28.47,1
2394,37.92,-11.87,-21.8,1
2395,37.93,2.62,-12.92,1
2396,37.95,9.16,-13.03,1
2397,37.96,5.2,-24.68,1
2398,37.97,7.88,-27.06,1
2399,37.99,13.53,-18.07,1
2400,38.0,4.42,-21.13,1
2401,38.01,-11.91,-26.31,1
2402,38.03,-10.6,-14.63,1
2403,38.04,2.71,-11.85,1
2404,38.05,-1.94,-33.94,1
2405,38.06,-19.86,-49.18,1
2406,38.08,-17.16,-39.45,1
2407,38.09,1.23,-14.17,1
2408,38.11,4.69,22.27,1
2409,38.12,0.81,46.08,1
2410,38.13,9.86,29.7,1
2411,38.15,26.46,22.62,1
2412,38.16,40.94,78.81,2
2413,38.17,39.29,107.73,2
2414,38.19,15.24,7.64,2
2415,38.2,-10.76,-144.95,2
2416,38.21,-31.13,-213.87,2
2417,38.22,-48.6,-97.79,2
2418,38.24,-42.88,208.92,2
2419,38.25,-12.18,463.65,2
2420,38.27,8.17,453.32,2
2421,38.28,13.98,320.39,2
2422,38.29,30.95,265.82,2
2423,38.31,27.39,260.98,2
2424,38.32,-28.68,221.97,2
2425,38.33,-74.98,166.89,2
2426,38.35,-47.35,133.03,2
2427,38.36,27.51,108.43,2
2428,38.37,61.84,76.46,2
2429,38.38,28.17,44.84,2
2430,38.4,14.54,20.39,2
2431,38.41,48.68,-1.74,2
2432,38.43,52.26,-24.64,2
2433,38.44,18.31,-45.22,2
2434,38.45,-12.37,-62.54,2
2435,38.47,-22.15,-78.97,2
2436,38.48,9.15,-96.15,2
2437,38.49,27.95,-129.93,2
2438,38.51,-16.91,-191.41,2
2439,38.52,-46.92,-233.89,2
2440,38.53,-19.44,-239.35,2
2441,38.54,-5.38,-280.51,2
2442,38.56,-37.81,-364.9,1
2443,38.57,-52.68,-403.46,1
2444,38.59,-3.13,-375.43,1
2445,38.6,39.72,-334.27,1
2446,38.61,15.94,-296.01,1
2447,38.63,-22.77,-257.46,1
2448,38.64,-31.38,-232.8,1
2449,38.65,-14.54,-232.77,1
2450,38.67,11.44,-258.59,1
2451,38.68,22.47,-261.32,1
2452,38.69,9.12,-191.57,1
2453,38.71,-11.2,-136.1,1
2454,38.72,-18.26,-167.52,1
2455,38.73,-11.89,-183.48,1
2456,38.75,-3.44,-147.55,1
2457,38.76,7.7,-143.61,1
2458,38.77,29.73,-155.18,1
2459,38.79,50.75,-131.82,1
2460,38.8,42.42,-71.69,1
2461,38.81,14.39,-11.41,1
2462,38.83,19.35,-45.86,1
2463,38.84,48.16,-122.77,1
2464,38.85,39.15,-78.1,1
2465,38.87,11.6,21.89,1
2466,38.88,6.54,20.97,1
2467,38.89,0.18,-35.4,1
2468,38.9,-9.08,-30.1,1
2469,38.92,-1.85,40.4,1
2470,38.93,2.56,91.32,1
2471,38.95,-4.85,91.61,1
2472,38.96,-18.71,110.74,1
2473,38.97,-48.37,155.08,1
2474,38.99,-71.78,118.74,1
2475,39.0,-51.97,32.67,1
2476,39.01,-6.49,51.88,1
2477,39.03,13.6,127.09,1
2478,39.04,-1.76,110.28,1
2479,39.05,-8.89,50.69,1
2480,39.06,5.34,43.53,1
2481,39.08,4.96,57.39,1
2482,39.09,-8.23,52.79,1
2483,39.11,-2.99,58.82,1
2484,39.12,9.9,74.08,1
2485,39.13,3.41,44.98,1
2486,39.15,-8.21,33.79,1
2487,39.16,-0.54,139.82,1
2488,39.17,8.77,252.98,1
2489,39.19,7.12,215.7,1
2490,39.2,11.66,81.09,1
2491,39.21,4.08,25.13,1
2492,39.22,-25.56,89.02,1
2493,39.24,-28.94,137.02,1
2494,39.25,9.37,107.16,1
2495,39.27,44.31,75.98,1
2496,39.28,37.87,109.26,1
2497,39.29,3.54,191.14,1
2498,39.31,-12.84,201.95,1
2499,39.32,-15.36,96.08,1
2500,39.33,-27.52,33.1,1
2501,39.35,-14.88,70.66,1
2502,39.36,16.24,88.36,1
2503,39.37,6.22,97.04,1
2504,39.38,-24.85,146.4,1
2505,39.4,-26.48,149.65,1
2506,39.41,-10.3,87.29,1
2507,39.43,-0.41,55.35,1
2508,39.44,2.9,76.91,1
2509,39.45,9.16,112.46,1
2510,39.47,19.37,152.75,1
2511,39.48,19.86,162.1,1
2512,39.49,13.11,111.82,1
2513,39.51,9.51,82.41,1
2514,39.52,-2.99,102.74,1
2515,39.53,-15.98,65.83,1
2516,39.54,-5.16,-11.07,1
2517,39.56,8.36,6.5,1
2518,39.57,3.8,93.46,1
2519,39.59,3.74,139.0,1
2520,39.6,8.93,111.14,1
2521,39.61,-1.87,38.83,1
2522,39.63,-13.93,-3.84,1
2523,39.64,-10.9,-4.85,1
2524,39.65,-5.89,-27.07,1
2525,39.67,4.8,-24.03,1
2526,39.68,26.14,56.24,1
2527,39.69,25.73,90.11,1
2528,39.71,4.21,5.94,1
2529,39.72,3.79,-47.11,1
2530,39.73,9.94,18.29,1
2531,39.75,-6.55,63.92,1
2532,39.76,-14.97,9.91,1
2533,39.77,-7.07,-23.76,1
2534,39.79,-11.53,16.1,1
2535,39.8,-20.42,16.96,1
2536,39.81,-17.06,-38.23,1
2537,39.83,-9.28,-48.35,1
2538,39.84,-11.01,-29.97,1
2539,39.85,-14.94,-55.68,1
2540,39.87,1.46,-74.0,1
2541,39.88,23.2,-30.41,1
2542,39.89,21.45,-9.6,1
2543,39.9,4.13,-39.82,1
2544,39.92,-11.05,-20.83,1
2545,39.93,-19.05,10.84,1
2546,39.95,-19.91,-42.73,1
2547,39.96,-14.91,-68.81,1
2548,39.97,-11.11,28.26,1
2549,39.99,-6.53,95.98,1
2550,40.0,5.17,12.31,1
2551,40.01,19.19,-114.13,1
2552,40.03,35.87,-117.19,1
2553,40.04,36.66,-3.85,1
2554,40.05,-1.1,78.08,1
2555,40.06,-36.48,62.77,1
2556,40.08,-28.84,0.79,1
2557,40.09,-11.13,-38.14,1
2558,40.11,-21.08,-61.02,1
2559,40.12,-37.65,-125.6,1
2560,40.13,-21.45,-143.5,1
2561,40.15,13.78,-40.21,1
2562,40.16,25.0,2.62,0
2563,40.17,21.8,-76.5,0
2564,40.19,23.61,-87.71,0
2565,40.2,8.06,-52.24,0
2566,40.21,-8.21,-93.49,0
2567,40.22,10.19,-108.87,0
2568,40.24,19.5,-45.65,0
2569,40.25,-8.25,-10.13,0
2570,40.27,-12.32,-33.06,0
2571,40.28,22.0,-58.57,0
2572,40.29,41.48,-46.92,0
2573,40.31,32.63,-17.75,0
2574,40.32,13.44,-29.21,0
2575,40.33,-5.69,-83.98,0
2576,40.35,-14.06,-125.33,0
2577,40.36,-8.06,-142.79,0
2578,40.37,-2.42,-182.46,0
2579,40.38,-12.7,-257.22,0
2580,40.4,-28.76,-321.96,0
2581,40.41,-29.5,-331.21,0
2582,40.43,-15.42,-281.86,0
2583,40.44,-6.24,-201.14,0
2584,40.45,-4.77,-118.65,0
2585,40.47,13.6,-47.82,0
2586,40.48,43.32,15.38,0
2587,40.49,40.56,64.32,0
2588,40.51,6.71,80.17,0
2589,40.52,-11.26,75.76,0
2590,40.53,-2.73,80.74,0
2591,40.54,6.55,93.27,0
2592,40.56,4.37,95.06,1
2593,40.57,-2.74,85.19,1
2594,40.59,-3.51,74.2,1
2595,40.6,2.15,69.61,1
2596,40.61,-2.64,74.5,1
2597,40.63,-15.15,83.36,1
2598,40.64,-10.41,85.16,1
2599,40.65,3.48,80.8,1
2600,40.67,1.19,79.47,1
2601,40.68,-4.59,80.3,1
2602,40.69,1.18,76.36,1
2603,40.71,4.47,73.26,1
2604,40.72,-0.23,79.0,1
2605,40.73,-2.97,82.33,1
2606,40.75,-2.4,72.53,1
2607,40.76,1.12,62.41,1
2608,40.77,7.78,62.63,1
2609,40.79,6.26,63.39,1
2610,40.8,-5.54,58.3,1
2611,40.81,-10.35,52.2,1
2612,40.83,-4.36,47.59,1
2613,40.84,0.45,45.97,1
2614,40.85,2.08,49.84,1
2615,40.87,4.22,54.76,1
2616,40.88,2.44,52.4,1
2617,40.89,-3.63,43.0,1
2618,40.9,-3.41,35.17,1
2619,40.92,3.33,32.52,1
2620,40.93,1.21,33.1,1
2621,40.95,-12.26,33.58,1
2622,40.96,-17.98,29.62,1
2623,40.97,-6.21,21.62,1
2624,40.99,7.77,13.64,1
2625,41.0,11.5,8.88,1
2626,41.01,9.22,8.04,1
2627,41.03,4.42,5.06,1
2628,41.04,-5.07,-4.47,1
2629,41.05,-15.71,-15.54,1
2630,41.06,-17.99,-20.08,1
2631,41.08,-11.7,-11.65,1
2632,41.09,-3.55,3.94,1
2633,41.11,6.36,10.35,1
2634,41.12,14.64,7.51,1
2635,41.13,11.51,3.36,1
2636,41.15,-2.01,-2.64,1
2637,41.16,-13.71,-9.02,1
2638,41.17,-14.08,-15.79,1
2639,41.19,-3.79,-21.84,1
2640,41.2,4.34,-19.17,1
2641,41.21,1.03,-6.33,1
2642,41.22,-4.12,5.27,1
2643,41.24,-2.86,-1.4,1
2644,41.25,-4.44,-25.55,1
2645,41.27,-7.58,-37.93,1
2646,41.28,2.75,-24.17,1
2647,41.29,11.58,-11.61,1
2648,41.31,-1.2,-20.13,1
2649,41.32,-12.64,-28.91,1
2650,41.33,-7.28,-22.47,1
2651,41.35,-6.03,-16.6,1
2652,41.36,-10.79,-17.71,1
2653,41.37,-3.19,-17.35,1
2654,41.38,10.25,-20.54,1
2655,41.4,10.35,-29.44,1
2656,41.41,1.27,-33.21,1
2657,41.43,-2.78,-29.82,1
2658,41.44,-4.14,-22.82,1
2659,41.45,-5.89,-13.37,1
2660,41.47,2.42,-10.24,1
2661,41.48,16.23,-17.98,1
2662,41.49,13.15,-26.86,1
2663,41.51,-2.68,-28.23,1
2664,41.52,-4.98,-22.75,1
2665,41.53,7.23,-16.47,1
2666,41.54,15.21,-15.28,1
2667,41.56,12.93,-18.7,1
2668,41.57,4.59,-20.65,1
2669,41.59,-1.68,-19.31,1
2670,41.6,1.42,-21.13,1
2671,41.61,5.59,-27.75,1
2672,41.63,-0.69,-32.02,1
2673,41.64,-8.56,-27.8,1
2674,41.65,-5.9,-18.96,1
2675,41.67,2.64,-15.85,1
2676,41.68,11.4,-16.84,1
2677,41.69,19.35,-15.84,1
2678,41.71,19.64,-17.27,1
2679,41.72,9.46,-17.93,1
2680,41.73,-4.87,-12.34,1
2681,41.75,-13.63,-10.85,1
2682,41.76,-8.53,-17.36,1
2683,41.77,1.02,-20.11,1
2684,41.79,-0.34,-13.22,1
2685,41.8,-7.67,-7.19,1
2686,41.81,-7.82,-11.71,1
2687,41.83,-2.83,-12.24,1
2688,41.84,0.21,1.64,1
2689,41.85,3.18,11.22,1
2690,41.87,4.93,9.06,1
2691,41.88,-0.17,4.19,1
2692,41.89,-7.14,-2.74,1
2693,41.9,-7.73,-8.85,1
2694,41.92,-3.03,-8.0,1
2695,41.93,1.43,-2.87,1
2696,41.95,3.03,3.15,1
2697,41.96,4.3,5.81,1
2698,41.97,5.87,-1.08,1
2699,41.99,4.81,-7.16,1
2700,42.0,4.56,-1.99,1
2701,42.01,4.47,-2.77,1
2702,42.03,-2.25,-15.62,1
2703,42.04,-7.67,-14.93,1
2704,42.05,-8.01,1.51,1
2705,42.06,-19.63,5.07,1
2706,42.08,-33.14,-5.24,1
2707,42.09,-18.78,-4.15,1
2708,42.11,9.99,8.35,1
2709,42.12,20.52,8.91,1
2710,42.13,16.5,1.43,1
2711,42.15,14.67,9.74,1
2712,42.16,16.81,23.01,0
2713,42.17,16.6,9.04,0
2714,42.19,8.24,-36.9,0
2715,42.2,-0.78,-87.26,0
2716,42.21,-0.15,-113.41,0
2717,42.22,10.44,-116.73,0
2718,42.24,31.52,-118.2,0
2719,42.25,51.72,-125.26,0
2720,42.27,49.64,-131.66,0
2721,42.28,28.13,-130.5,0
2722,42.29,6.02,-121.18,0
2723,42.31,-4.37,-107.12,0
2724,42.32,-0.58,-89.07,0
2725,42.33,4.93,-71.46,0
2726,42.35,4.58,-57.93,0
2727,42.36,6.04,-35.3,0
2728,42.37,6.54,3.32,0
2729,42.38,-1.29,38.21,0
2730,42.4,-7.61,58.55,0
2731,42.41,-6.15,75.54,0
2732,42.43,-6.67,95.27,0
2733,42.44,-10.91,117.87,0
2734,42.45,-12.34,143.98,0
2735,42.47,-13.89,162.8,0
2736,42.48,-19.38,167.8,0
2737,42.49,-23.34,172.95,0
2738,42.51,-21.53,183.0,0
2739,42.52,-18.32,182.97,0
2740,42.53,-20.37,172.7,0
2741,42.54,-26.0,167.63,0
2742,42.56,-28.01,169.99,1
2743,42.57,-24.79,169.65,1
2744,42.59,-20.99,160.02,1
2745,42.6,-20.19,144.92,1
2746,42.61,-17.9,133.18,1
2747,42.63,-11.71,124.23,1
2748,42.64,-7.64,114.54,1
2749,42.65,-2.07,102.75,1
2750,42.66,5.94,85.38,1
2751,42.68,-0.17,68.81,1
2752,42.69,-21.53,59.27,1
2753,42.71,-32.51,48.0,1
2754,42.72,-19.6,36.15,1
2755,42.73,-2.33,30.69,1
2756,42.75,2.22,20.34,1
2757,42.76,-0.05,3.1,1
2758,42.77,-4.88,-2.9,1
2759,42.79,-8.9,-0.0,1
2760,42.8,-3.22,-4.14,1
2761,42.81,5.61,-12.07,1
2762,42.83,3.97,-17.66,1
2763,42.84,-1.03,-24.26,1
2764,42.85,2.77,-31.15,1
2765,42.87,10.02,-36.71,1
2766,42.88,10.84,-42.09,1
2767,42.89,4.81,-43.68,1
2768,42.9,1.98,-42.4,1
2769,42.92,7.52,-48.04,1
2770,42.93,8.28,-56.08,1
2771,42.95,-2.87,-52.97,1
2772,42.96,-10.93,-45.84,1
2773,42.97,-7.87,-49.43,1
2774,42.99,-2.05,-60.19,1
2775,43.0,6.09,-63.61,1
2776,43.01,17.26,-55.63,1
2777,43.03,18.05,-50.42,1
2778,43.04,6.16,-57.19,1
2779,43.05,-1.97,-64.76,1
2780,43.06,3.37,-65.77,1
2781,43.08,14.76,-65.14,1
2782,43.09,16.34,-62.71,1
2783,43.11,6.82,-56.83,1
2784,43.12,2.82,-53.55,1
2785,43.13,9.19,-56.35,1
2786,43.15,14.28,-61.08,1
2787,43.16,11.13,-63.06,1
2788,43.17,6.19,-60.88,1
2789,43.19,10.79,-56.35,1
2790,43.2,21.91,-51.86,1
2791,43.21,20.01,-49.36,1
2792,43.22,1.72,-51.09,1
2793,43.24,-10.26,-54.0,1
2794,43.25,-4.83,-52.86,1
2795,43.27,3.91,-50.56,1
2796,43.28,7.17,-48.53,1
2797,43.29,10.43,-40.04,1
2798,43.3,12.01,-30.12,1
2799,43.32,6.96,-30.37,1
2800,43.33,4.15,-31.6,1
2801,43.35,8.23,-23.6,1
2802,43.36,8.51,-21.1,1
2803,43.37,5.43,-33.83,1
2804,43.38,6.9,-44.43,1
2805,43.4,7.5,-39.08,1
2806,43.41,2.47,-29.04,1
2807,43.43,-1.96,-26.57,1
2808,43.44,1.18,-25.58,1
2809,43.45,8.59,-18.61,1
2810,43.47,6.92,-11.82,1
2811,43.48,-1.62,-11.4,1
2812,43.49,-0.45,-14.48,1
2813,43.51,2.12,-19.25,1
2814,43.52,-7.77,-20.29,1
2815,43.53,-13.03,-10.02,1
2816,43.54,2.14,1.35,1
2817,43.56,16.28,1.7,1
2818,43.57,6.59,-1.8,1
2819,43.59,-8.45,-0.54,1
2820,43.6,-7.88,2.78,1
2821,43.61,-3.48,4.5,1
2822,43.63,-4.07,6.32,1
2823,43.64,-3.71,6.3,1
2824,43.65,-3.32,-0.78,1
2825,43.67,-5.46,-7.74,1
2826,43.68,-6.53,-0.18,1
2827,43.69,-6.56,17.48,1
2828,43.71,-6.67,23.76,1
2829,43.72,-4.01,13.04,1
2830,43.73,-0.24,4.58,1
2831,43.75,0.7,9.28,1
2832,43.76,-1.86,16.16,1
2833,43.77,-8.41,18.82,1
2834,43.79,-9.86,19.1,1
2835,43.8,4.0,13.94,1
2836,43.81,17.49,6.57,1
2837,43.83,9.78,6.66,1
2838,43.84,-6.14,14.37,1
2839,43.85,-6.87,21.71,1
2840,43.87,5.14,21.89,1
2841,43.88,11.53,14.99,1
2842,43.89,2.21,9.63,1
2843,43.9,-12.37,13.73,1
2844,43.92,-14.54,23.97,1
2845,43.93,-8.74,30.44,1
2846,43.94,-8.42,26.07,1
2847,43.96,-3.69,16.36,1
2848,43.97,7.31,15.26,1
2849,43.99,1.97,22.91,1
2850,44.0,-14.38,27.2,1
2851,44.01,-15.42,28.29,1
2852,44.03,-6.46,30.97,1
2853,44.04,-2.64,33.13,1
2854,44.05,-3.9,33.9,1
2855,44.06,-13.43,30.63,1
2856,44.08,-26.48,23.29,1
2857,44.09,-24.9,20.16,1
2858,44.11,-7.3,21.79,1
2859,44.12,12.18,22.87,1
2860,44.13,23.11,25.81,1
2861,44.15,21.57,29.73,1
2862,44.16,13.63,28.8,2
2863,44.17,10.04,37.62,2
2864,44.19,11.32,88.63,2
2865,44.2,6.2,188.27,2
2866,44.21,-3.66,299.58,2
2867,44.22,-9.32,376.73,2
2868,44.24,-24.02,393.05,2
2869,44.25,-44.47,342.66,2
2870,44.27,-40.91,239.13,2
2871,44.28,-26.35,112.36,2
2872,44.29,-36.07,-1.2,2
2873,44.31,-53.31,-72.46,2
2874,44.32,-45.38,-108.95,2
2875,44.33,-22.94,-146.68,2
2876,44.35,-10.99,-187.04,2
2877,44.36,-3.26,-203.24,2
2878,44.37,14.33,-207.37,2
2879,44.38,25.86,-224.82,2
2880,44.4,21.52,-232.4,2
2881,44.41,23.97,-201.54,2
2882,44.43,36.85,-163.33,2
2883,44.44,35.69,-153.54,2
2884,44.45,24.81,-153.5,2
2885,44.47,30.27,-137.19,2
2886,44.48,42.9,-110.8,2
2887,44.49,37.18,-94.19,2
2888,44.51,20.84,-92.95,2
2889,44.52,18.76,-91.14,2
2890,44.53,36.05,-81.89,2
2891,44.54,56.46,-80.47,2
2892,44.56,58.79,-86.82,1
2893,44.57,39.67,-76.52,1
2894,44.58,21.03,-49.34,1
2895,44.6,14.72,-32.4,1
2896,44.61,7.33,-31.74,1
2897,44.63,-1.08,-32.92,1
2898,44.64,0.75,-29.29,1
2899,44.65,-1.02,-20.71,1
2900,44.67,-18.2,-12.18,1
2901,44.68,-32.54,-10.67,1
2902,44.69,-28.09,-9.65,1
2903,44.71,-13.96,3.26,1
2904,44.72,-7.31,21.57,1
2905,44.73,-10.96,27.67,1
2906,44.75,-11.3,22.68,1
2907,44.76,-0.18,23.5,1
2908,44.77,7.11,30.0,1
2909,44.79,-4.9,28.25,1
2910,44.8,-18.94,20.75,1
2911,44.81,-9.93,20.17,1
2912,44.83,6.64,27.37,1
2913,44.84,-2.15,40.85,1
2914,44.85,-25.99,57.09,1
2915,44.87,-27.82,58.7,1
2916,44.88,-5.53,45.5,1
2917,44.89,12.01,42.63,1
2918,44.9,9.66,47.89,1
2919,44.92,0.44,44.97,1
2920,44.93,-2.41,47.1,1
2921,44.95,-8.54,58.39,1
2922,44.96,-21.5,57.76,1
2923,44.97,-24.93,45.3,1
2924,44.99,-17.46,37.46,1
2925,45.0,-12.63,35.85,1
2926,45.01,-9.02,34.36,1
2927,45.03,-1.53,33.32,1
2928,45.04,1.64,39.72,1
2929,45.05,-0.11,48.45,1
2930,45.06,-2.3,42.77,1
2931,45.08,-10.43,31.5,1
2932,45.09,-16.66,34.27,1
2933,45.11,-7.35,37.36,1
2934,45.12,2.77,28.92,1
2935,45.13,-2.83,28.68,1
2936,45.15,-10.34,41.9,1
2937,45.16,-6.11,50.4,1
2938,45.17,-1.77,46.67,1
2939,45.19,-8.04,34.79,1
2940,45.2,-14.57,26.11,1
2941,45.21,-11.12,28.95,1
2942,45.22,-3.26,28.82,1
2943,45.24,2.53,18.65,1
2944,45.25,3.03,16.83,1
2945,45.26,-1.36,22.37,1
2946,45.28,-2.3,17.77,1
2947,45.29,0.27,12.21,1
2948,45.31,1.19,13.59,1
2949,45.32,6.39,4.9,1
2950,45.33,12.8,-8.16,1
2951,45.35,2.64,-2.37,1
2952,45.36,-18.27,13.82,1
2953,45.37,-21.63,24.54,1
2954,45.38,-6.26,29.37,1
2955,45.4,1.81,23.96,1
2956,45.41,-0.03,9.64,1
2957,45.43,5.75,2.19,1
2958,45.44,14.84,5.05,1
2959,45.45,10.81,2.35,1
2960,45.47,1.99,-7.28,1
2961,45.48,7.09,-9.53,1
2962,45.49,16.2,-6.42,1
2963,45.51,10.57,-9.26,1
2964,45.52,-0.59,-12.6,1
2965,45.53,-5.26,-5.37,1
2966,45.54,-6.55,3.3,1
2967,45.56,-2.98,-0.68,1
2968,45.57,2.18,-9.81,1
2969,45.59,-2.14,-12.31,1
2970,45.6,-7.89,-7.2,1
2971,45.61,-0.57,-0.18,1
2972,45.63,14.28,-1.94,1
2973,45.64,20.42,-11.23,1
2974,45.65,8.91,-14.09,1
2975,45.67,-6.71,-11.78,1
2976,45.68,-4.02,-14.76,1
2977,45.69,7.37,-21.51,1
2978,45.71,3.72,-29.13,1
2979,45.72,-9.71,-33.35,1
2980,45.73,-15.24,-22.38,1
2981,45.75,-9.38,-4.2,1
2982,45.76,2.65,-3.67,1
2983,45.77,11.44,-16.28,1
2984,45.79,12.16,-21.69,1
2985,45.8,11.9,-20.51,1
2986,45.81,16.24,-11.44,1
2987,45.83,19.24,6.91,1
2988,45.84,12.62,13.37,1
2989,45.85,-5.2,-3.17,1
2990,45.86,-23.19,-19.57,1
2991,45.88,-22.89,-13.53,1
2992,45.89,-2.5,1.32,1
2993,45.9,16.52,-3.13,1
2994,45.92,21.23,-20.54,1
2995,45.93,16.27,-23.69,1
2996,45.95,-0.6,-16.01,1
2997,45.96,-20.58,-14.16,1
2998,45.97,-16.03,-12.2,1
2999,45.99,9.34,-4.64,1
3000,46.0,18.52,-5.53,1
3001,46.01,4.81,-17.16,1
3002,46.03,-2.92,-21.12,1
3003,46.04,3.09,-12.87,1
3004,46.05,0.48,-2.65,1
3005,46.06,-18.46,2.04,1
3006,46.08,-27.73,-6.71,1
3007,46.09,-9.85,-19.86,1
3008,46.11,10.0,-17.22,1
3009,46.12,12.94,-10.64,1
3010,46.13,17.42,-15.99,1
3011,46.15,22.61,-18.81,1
3012,46.16,7.67,-18.76,2
3013,46.17,-7.39,-31.17,2
3014,46.19,3.86,-31.18,2
3015,46.2,18.52,42.14,2
3016,46.21,10.75,179.39,2
3017,46.22,-0.23,287.0,2
3018,46.24,9.68,295.08,2
3019,46.25,19.4,190.09,2
3020,46.27,-0.21,32.8,2
3021,46.28,-23.0,-121.25,2
3022,46.29,-11.89,-226.18,2
3023,46.31,14.58,-132.38,2
3024,46.32,26.74,109.47,2
3025,46.33,24.21,224.61,2
3026,46.35,14.55,223.96,2
3027,46.36,4.42,258.5,2
3028,46.37,-3.57,267.84,2
3029,46.38,-5.15,203.68,2
3030,46.4,1.39,143.26,2
3031,46.41,-7.65,121.44,2
3032,46.43,-47.21,106.26,2
3033,46.44,-74.04,77.8,2
3034,46.45,-46.1,45.57,2
3035,46.47,7.68,21.04,2
3036,46.48,39.99,0.53,2
3037,46.49,32.18,-21.07,2
3038,46.5,-10.14,-41.49,2
3039,46.52,-35.01,-58.66,2
3040,46.53,-0.0,-76.86,2
3041,46.54,30.84,-115.95,2
3042,46.56,-6.57,-196.74,1
3043,46.57,-48.19,-285.02,1
3044,46.59,-35.02,-346.88,1
3045,46.6,-11.34,-406.39,1
3046,46.61,-6.56,-417.27,1
3047,46.63,3.71,-340.16,1
3048,46.64,8.35,-287.44,1
3049,46.65,-20.64,-267.2,1
3050,46.67,-41.08,-179.75,1
3051,46.68,-7.63,-117.72,1
3052,46.69,32.12,-193.46,1
3053,46.71,26.56,-287.63,1
3054,46.72,5.0,-253.85,1
3055,46.73,14.34,-142.54,1
3056,46.75,51.6,-96.63,1
3057,46.76,65.27,-129.19,1
3058,46.77,34.16,-123.3,1
3059,46.79,7.38,-58.57,1
3060,46.8,4.1,-45.96,1
3061,46.81,-8.93,-116.83,1
3062,46.83,-21.98,-184.5,1
3063,46.84,-0.0,-187.72,1
3064,46.85,26.58,-118.85,1
3065,46.87,2.34,1.02,1
3066,46.88,-30.79,75.85,1
3067,46.89,2.93,39.68,1
3068,46.9,47.3,-20.21,1
3069,46.92,26.75,-41.28,1
3070,46.93,-5.71,-53.82,1
3071,46.95,-11.29,-28.32,1
3072,46.96,-16.89,37.73,1
3073,46.97,-17.67,40.1,1
3074,46.99,-14.9,-29.37,1
3075,47.0,-23.44,-42.84,1
3076,47.01,-29.61,21.71,1
3077,47.03,-32.6,60.24,1
3078,47.04,-32.22,59.57,1
3079,47.05,2.36,62.23,1
3080,47.06,52.02,31.02,1
3081,47.08,45.55,-29.58,1
3082,47.09,-10.22,-33.86,1
3083,47.11,-37.28,21.92,1
3084,47.12,-14.2,67.09,1
3085,47.13,14.22,80.81,1
3086,47.14,16.16,75.56,1
3087,47.16,11.98,59.34,1
3088,47.17,26.15,54.68,1
3089,47.18,26.5,54.06,1
3090,47.2,-14.05,45.95,1
3091,47.21,-52.86,103.09,1
3092,47.22,-42.77,215.63,1
3093,47.24,-4.03,209.4,1
3094,47.25,12.93,65.19,1
3095,47.27,5.56,-10.75,1
3096,47.28,7.66,75.57,1
3097,47.29,22.56,182.18,1
3098,47.31,22.56,143.1,1
3099,47.32,4.8,42.03,1
3100,47.33,-10.99,71.46,1
3101,47.35,-17.27,156.14,1
3102,47.36,-3.09,142.48,1
3103,47.37,35.08,90.0,1
3104,47.38,51.95,103.84,1
3105,47.4,12.78,165.45,1
3106,47.41,-23.19,162.54,1
3107,47.43,-0.89,68.09,1
3108,47.44,18.86,12.32,1
3109,47.45,-5.91,65.78,1
3110,47.47,-2.31,151.11,1
3111,47.48,42.9,169.95,1
3112,47.49,33.09,106.67,1
3113,47.51,-34.02,68.59,1
3114,47.52,-59.5,115.97,1
3115,47.53,-34.67,160.8,1
3116,47.54,-20.72,159.21,1
3117,47.56,-19.5,131.35,1
3118,47.57,-7.61,87.53,1
3119,47.59,-3.78,83.05,1
3120,47.6,-22.34,120.29,1
3121,47.61,-32.42,111.51,1
3122,47.63,-14.76,66.0,1
3123,47.64,6.63,69.98,1
3124,47.65,6.7,107.57,1
3125,47.67,-5.18,102.34,1
3126,47.68,8.81,72.22,1
3127,47.69,25.83,60.5,1
3128,47.71,-13.79,33.65,1
3129,47.72,-51.0,-5.02,1
3130,47.73,-15.87,-26.98,1
3131,47.75,21.91,-18.36,1
3132,47.76,9.36,52.61,1
3133,47.77,-5.47,99.54,1
3134,47.78,1.16,37.26,1
3135,47.8,-1.17,-24.62,1
3136,47.81,-18.95,-17.8,1
3137,47.82,-22.03,1.71,1
3138,47.84,-4.92,31.22,1
3139,47.85,5.59,41.68,1
3140,47.86,6.86,-30.77,1
3141,47.88,11.82,-97.9,1
3142,47.89,17.65,-60.93,1
3143,47.9,18.45,-2.86,1
3144,47.92,8.26,-18.29,1
3145,47.93,-4.95,-79.11,1
3146,47.95,-1.71,-113.81,1
3147,47.96,12.22,-76.44,1
3148,47.97,21.04,11.71,1
3149,47.99,16.74,69.94,1
3150,48.0,4.01,49.17,1
3151,48.01,1.82,-27.73,1
3152,48.03,-2.56,-92.48,1
3153,48.04,-15.54,-71.86,1
3154,48.05,1.39,14.82,1
3155,48.06,28.31,34.46,1
3156,48.08,8.45,-23.96,1
3157,48.09,-29.07,-23.08,1
3158,48.11,-23.7,10.53,1
3159,48.12,10.26,-26.87,1
3160,48.13,20.54,-79.37,1
3161,48.15,2.84,-87.33,1
3162,48.16,-24.6,-100.21,0
3163,48.17,-42.68,-140.4,0
3164,48.19,-15.01,-104.76,0
3165,48.2,24.21,8.0,0
3166,48.21,14.06,12.35,0
3167,48.22,-3.96,-94.55,0
3168,48.24,6.08,-146.66,0
3169,48.25,18.08,-149.39,0
3170,48.27,32.12,-176.96,0
3171,48.28,38.55,-190.85,0
3172,48.29,11.78,-168.07,0
3173,48.31,-19.41,-177.91,0
3174,48.32,-23.68,-248.98,0
3175,48.33,-11.61,-300.82,0
3176,48.35,7.98,-268.16,0
3177,48.36,26.86,-189.92,0
3178,48.37,26.49,-121.24,0
3179,48.38,9.5,-64.42,0
3180,48.4,0.0,-16.02,0
3181,48.41,7.21,15.43,0
3182,48.42,14.9,41.6,0
3183,48.44,11.39,77.69,0
3184,48.45,5.4,105.03,0
3185,48.46,4.28,106.53,0
3186,48.48,2.46,105.55,0
3187,48.49,-3.61,114.17,0
3188,48.5,-10.24,108.58,0
3189,48.52,-11.59,84.37,0
3190,48.53,-7.07,63.26,0
3191,48.54,-4.11,58.75,0
3192,48.56,-4.92,67.85,1
3193,48.57,-0.01,72.11,1
3194,48.59,12.13,59.16,1
3195,48.6,16.28,38.83,1
3196,48.61,8.77,24.79,1
3197,48.63,4.1,19.88,1
3198,48.64,1.88,20.96,1
3199,48.65,-9.96,22.55,1
3200,48.67,-21.11,19.22,1
3201,48.68,-15.44,10.21,1
3202,48.69,-1.86,1.53,1
3203,48.71,-0.03,2.2,1
3204,48.72,-12.39,14.26,1
3205,48.73,-17.47,27.97,1
3206,48.75,-3.02,32.81,1
3207,48.76,8.56,27.86,1
3208,48.77,-0.49,20.77,1
3209,48.79,-10.47,20.87,1
3210,48.8,-7.57,25.09,1
3211,48.81,-5.09,20.58,1
3212,48.83,-3.36,11.97,1
3213,48.84,2.79,16.58,1
3214,48.85,1.87,26.87,1
3215,48.87,-6.62,22.16,1
3216,48.88,-5.27,13.57,1
3217,48.89,3.6,19.01,1
3218,48.9,-0.77,24.17,1
3219,48.92,-15.06,18.23,1
3220,48.93,-16.58,14.58,1
3221,48.95,-8.03,19.21,1
3222,48.96,-7.6,21.05,1
3223,48.97,-8.42,10.91,1
3224,48.99,0.68,1.52,1
3225,49.0,4.78,9.43,1
3226,49.01,-1.63,18.7,1
3227,49.03,-3.63,12.15,1
3228,49.04,-1.74,2.81,1
3229,49.05,-5.28,-0.32,1
3230,49.06,-9.64,-1.0,1
3231,49.08,-7.33,-1.12,1
3232,49.09,-1.28,-7.02,1
3233,49.1,0.08,-19.36,1
3234,49.12,-4.01,-22.6,1
3235,49.13,-6.41,-9.24,1
3236,49.14,-5.18,2.14,1
3237,49.16,-5.37,-7.68,1
3238,49.17,-5.91,-27.93,1
3239,49.19,-2.67,-32.39,1
3240,49.2,2.12,-17.19,1
3241,49.21,4.99,0.52,1
3242,49.22,2.69,7.19,1
3243,49.24,-6.22,-1.48,1
3244,49.25,-13.17,-11.67,1
3245,49.27,-11.94,-6.93,1
3246,49.28,-9.38,-2.59,1
3247,49.29,-7.01,-14.06,1
3248,49.31,3.7,-23.5,1
3249,49.32,16.71,-21.78,1
3250,49.33,15.16,-20.46,1
3251,49.35,3.26,-22.92,1
3252,49.36,-1.28,-26.99,1
3253,49.37,1.44,-26.4,1
3254,49.38,4.89,-14.71,1
3255,49.4,10.85,-8.03,1
3256,49.41,15.24,-17.72,1
3257,49.43,13.55,-23.22,1
3258,49.44,10.58,-13.06,1
3259,49.45,8.19,-0.79,1
3260,49.47,2.29,3.17,1
3261,49.48,-5.81,-4.14,1
3262,49.49,-7.33,-16.21,1
3263,49.51,-3.05,-19.0,1
3264,49.52,-4.83,-13.49,1
3265,49.53,-11.08,-9.24,1
3266,49.54,-8.33,-7.26,1
3267,49.56,5.56,-10.71,1
3268,49.57,21.71,-23.17,1
3269,49.59,27.19,-29.25,1
3270,49.6,16.15,-16.57,1
3271,49.61,3.2,-3.98,1
3272,49.63,4.52,-6.77,1
3273,49.64,11.29,-9.54,1
3274,49.65,6.96,-0.93,1
3275,49.67,-4.38,8.26,1
3276,49.68,-10.49,8.28,1
3277,49.69,-6.58,0.95,1
3278,49.7,4.94,-7.7,1
3279,49.72,7.32,-11.54,1
3280,49.73,-4.51,-8.39,1
3281,49.74,-11.04,-4.45,1
3282,49.76,-7.56,-3.98,1
3283,49.77,-4.37,-3.76,1
3284,49.78,-2.51,-6.09,1
3285,49.8,-3.8,-14.33,1
3286,49.81,-7.33,-16.7,1
3287,49.83,-2.33,-1.52,1
3288,49.84,11.77,17.46,1
3289,49.85,21.05,20.66,1
3290,49.87,19.56,14.17,1
3291,49.88,10.71,6.4,1
3292,49.89,-2.88,-9.44,1
3293,49.9,-10.28,-23.53,1
3294,49.92,-2.43,-14.96,1
3295,49.93,6.5,3.11,1
3296,49.95,3.83,4.73,1
3297,49.96,3.55,-2.66,1
3298,49.97,17.33,-1.82,1
3299,49.99,25.79,1.64,1
3300,50.0,12.34,-1.76,1
3301,50.01,-5.08,-5.76,1
3302,50.03,-2.63,-3.11,1
3303,50.04,12.33,-0.69,1
3304,50.05,12.2,-2.68,1
3305,50.06,-6.97,0.12,1
3306,50.08,-22.51,5.31,1
3307,50.09,-21.22,-1.3,1
3308,50.11,-8.68,-10.05,1
3309,50.12,4.95,-4.57,1
3310,50.13,11.88,5.53,1
3311,50.15,7.01,12.52,1
3312,50.16,-3.97,10.21,0
3313,50.17,-2.05,-24.78,0
3314,50.19,11.29,-83.7,0
3315,50.2,8.64,-119.6,0
3316,50.21,-5.2,-120.96,0
3317,50.22,-1.04,-124.67,0
3318,50.24,15.43,-151.26,0
3319,50.25,26.75,-179.89,0
3320,50.27,38.92,-186.39,0
3321,50.28,56.89,-169.28,0
3322,50.29,65.41,-139.2,0
3323,50.31,45.86,-103.83,0
3324,50.32,10.09,-63.43,0
3325,50.33,-7.99,-21.41,0
3326,50.34,-9.62,12.52,0
3327,50.36,-17.21,39.69,0
3328,50.37,-18.64,69.87,0
3329,50.38,-6.11,105.91,0
3330,50.4,-5.46,138.85,0
3331,50.41,-19.79,155.84,0
3332,50.42,-28.42,162.98,0
3333,50.44,-32.3,180.39,0
3334,50.45,-37.45,206.67,0
3335,50.46,-36.93,217.52,0
3336,50.48,-31.8,209.98,0
3337,50.49,-29.96,202.57,0
3338,50.51,-27.97,192.8,0
3339,50.52,-18.78,173.51,0
3340,50.53,-9.52,157.54,0
3341,50.54,-12.09,146.58,0
3342,50.56,-23.21,129.66,1
3343,50.57,-31.3,111.59,1
3344,50.59,-27.33,105.81,1
3345,50.6,-12.01,106.39,1
3346,50.61,-0.97,92.7,1
3347,50.63,-5.46,68.11,1
3348,50.64,-12.8,52.39,1
3349,50.65,-8.21,43.98,1
3350,50.67,-1.65,35.71,1
3351,50.68,-6.28,30.52,1
3352,50.69,-7.39,26.4,1
3353,50.71,4.42,18.37,1
3354,50.72,7.05,7.1,1
3355,50.73,-1.48,-3.65,1
3356,50.75,1.48,-11.54,1
3357,50.76,5.03,-16.87,1
3358,50.77,-5.72,-19.28,1
3359,50.79,-8.92,-17.64,1
3360,50.8,2.53,-16.79,1
3361,50.81,4.44,-23.17,1
3362,50.83,-3.37,-31.82,1
3363,50.84,3.65,-35.81,1
3364,50.85,21.83,-41.89,1
3365,50.87,22.5,-54.87,1
3366,50.88,5.18,-59.7,1
3367,50.89,-0.9,-47.79,1
3368,50.9,6.89,-37.76,1
3369,50.92,3.06,-44.49,1
3370,50.93,-7.26,-59.29,1
3371,50.95,1.48,-70.02,1
3372,50.96,20.32,-66.97,1
3373,50.97,22.7,-52.66,1
3374,50.98,11.34,-49.52,1
3375,51.0,4.0,-59.15,1
3376,51.01,2.54,-61.78,1
3377,51.02,-2.7,-59.06,1
3378,51.04,-10.15,-64.87,1
3379,51.05,-9.41,-75.96,1
3380,51.06,-3.96,-75.12,1
3381,51.08,-3.3,-58.71,1
3382,51.09,-0.02,-44.19,1
3383,51.1,8.93,-44.32,1
3384,51.12,6.56,-53.25,1
3385,51.13,-7.74,-57.95,1
3386,51.15,-12.03,-52.65,1
3387,51.16,-1.64,-46.39,1
3388,51.17,4.81,-48.6,1
3389,51.19,0.93,-48.99,1
3390,51.2,1.67,-40.27,1
3391,51.21,12.14,-34.05,1
3392,51.22,14.16,-31.95,1
3393,51.24,2.98,-31.59,1
3394,51.25,2.26,-41.87,1
3395,51.27,15.3,-51.89,1
3396,51.28,15.98,-41.29,1
3397,51.29,3.96,-27.3,1
3398,51.31,3.42,-35.38,1
3399,51.32,12.15,-44.19,1
3400,51.33,9.21,-30.09,1
3401,51.35,-5.5,-18.0,1
3402,51.36,-17.31,-25.26,1
3403,51.37,-17.23,-28.23,1
3404,51.38,-5.5,-18.51,1
3405,51.4,9.51,-16.38,1
3406,51.41,19.01,-21.92,1
3407,51.43,15.94,-15.54,1
3408,51.44,1.99,-3.63,1
3409,51.45,-3.28,-7.55,1
3410,51.47,4.21,-18.59,1
3411,51.48,0.59,-14.4,1
3412,51.49,-13.55,-1.06,1
3413,51.51,-9.63,3.23,1
3414,51.52,6.77,-0.61,1
3415,51.53,9.41,-5.05,1
3416,51.54,7.14,-5.36,1
3417,51.56,14.71,0.06,1
3418,51.57,16.36,2.8,1
3419,51.59,4.38,1.58,1
3420,51.6,-4.28,5.44,1
3421,51.61,0.83,10.3,1
3422,51.62,11.91,7.82,1
3423,51.64,13.16,4.32,1
3424,51.65,1.01,9.25,1
3425,51.66,-8.9,19.05,1
3426,51.68,-7.42,23.43,1
3427,51.69,-2.42,21.09,1
3428,51.7,2.19,19.66,1
3429,51.72,2.74,24.3,1
3430,51.73,-6.41,32.72,1
3431,51.74,-15.87,36.61,1
3432,51.76,-13.82,29.26,1
3433,51.77,-4.66,14.98,1
3434,51.79,-0.08,6.73,1
3435,51.8,-2.42,8.63,1
3436,51.81,-1.22,13.92,1
3437,51.83,7.8,17.26,1
3438,51.84,13.11,19.92,1
3439,51.85,7.68,24.42,1
3440,51.87,-1.19,26.31,1
3441,51.88,-5.85,20.94,1
3442,51.89,-5.21,12.57,1
3443,51.9,-2.79,5.64,1
3444,51.92,-5.63,6.18,1
3445,51.93,-13.71,22.04,1
3446,51.95,-17.8,39.8,1
3447,51.96,-11.18,36.52,1
3448,51.97,2.26,20.51,1
3449,51.99,7.91,16.05,1
3450,52.0,0.91,20.58,1
3451,52.01,-2.2,18.4,1
3452,52.03,3.86,15.61,1
3453,52.04,0.35,22.35,1
3454,52.05,-13.0,26.61,1
3455,52.06,-15.72,18.33,1
3456,52.08,-13.14,13.2,1
3457,52.09,-21.12,22.65,1
3458,52.11,-22.01,29.21,1
3459,52.12,2.14,19.95,1
3460,52.13,25.05,9.16,1
3461,52.15,24.2,22.26,1
3462,52.16,17.66,79.27,2
3463,52.17,14.53,174.17,2
3464,52.19,2.48,280.51,2
3465,52.2,-13.46,370.99,2
3466,52.21,-19.26,407.72,2
3467,52.22,-18.76,370.76,2
3468,52.24,-31.46,295.13,2
3469,52.25,-61.53,203.53,2
3470,52.26,-71.63,69.75,2
3471,52.28,-34.2,-85.9,2
3472,52.29,11.3,-184.73,2
3473,52.3,22.76,-211.14,2
3474,52.32,21.01,-226.69,2
3475,52.33,31.37,-259.08,2
3476,52.34,39.99,-278.56,2
3477,52.36,39.05,-266.46,2
3478,52.37,38.55,-234.6,2
3479,52.38,36.27,-201.81,2
3480,52.4,25.18,-178.87,2
3481,52.41,13.68,-164.9,2
3482,52.42,13.44,-149.64,2
3483,52.44,18.4,-122.37,2
3484,52.45,15.62,-83.22,2
3485,52.47,9.39,-45.6,2
3486,52.48,11.59,-32.11,2
3487,52.49,17.17,-52.04,2
3488,52.51,7.67,-81.17,2
3489,52.52,-14.73,-89.96,2
3490,52.53,-22.9,-77.23,2
3491,52.54,-13.08,-65.06,2
3492,52.56,-7.61,-57.82,1
3493,52.57,-5.85,-41.03,1
3494,52.59,5.3,-26.72,1
3495,52.6,14.32,-30.12,1
3496,52.61,5.51,-30.54,1
3497,52.63,-5.04,-19.93,1
3498,52.64,3.49,-17.46,1
3499,52.65,18.09,-19.9,1
3500,52.67,16.69,-8.36,1
3501,52.68,4.54,11.43,1
3502,52.69,-0.86,21.25,1
3503,52.71,2.94,19.55,1
3504,52.72,7.8,16.02,1
3505,52.73,10.81,15.17,1
3506,52.75,7.4,20.09,1
3507,52.76,-5.64,34.21,1
3508,52.77,-14.26,46.8,1
3509,52.79,-8.67,39.96,1
3510,52.8,-4.29,24.31,1
3511,52.81,-12.04,29.89,1
3512,52.83,-18.77,46.9,1
3513,52.84,-12.09,38.8,1
3514,52.85,-0.61,17.23,1
3515,52.87,-1.46,23.02,1
3516,52.88,-12.56,48.86,1
3517,52.89,-14.55,55.61,1
3518,52.9,-4.35,40.61,1
3519,52.92,2.91,32.44,1
3520,52.93,0.26,39.5,1
3521,52.94,-7.07,48.65,1
3522,52.96,-9.62,54.65,1
3523,52.97,-3.89,55.56,1
3524,52.98,2.64,50.18,1
3525,53.0,3.28,49.29,1
3526,53.01,1.26,55.56,1
3527,53.02,-1.69,53.17,1
3528,53.04,-9.4,36.69,1
3529,53.05,-17.94,21.06,1
3530,53.06,-16.66,16.79,1
3531,53.08,-6.77,20.55,1
3532,53.09,-1.85,23.03,1
3533,53.11,-7.93,23.08,1
3534,53.12,-15.37,30.72,1
3535,53.13,-14.36,43.13,1
3536,53.15,-6.46,41.0,1
3537,53.16,0.46,24.54,1
3538,53.17,1.36,17.79,1
3539,53.19,-0.58,27.73,1
3540,53.2,-1.22,35.46,1
3541,53.21,-2.14,29.24,1
3542,53.22,-5.22,16.41,1
3543,53.24,-9.01,12.07,1
3544,53.25,-8.48,25.84,1
3545,53.27,-0.14,41.36,1
3546,53.28,9.16,31.84,1
3547,53.29,9.85,8.83,1
3548,53.31,1.69,3.01,1
3549,53.32,-5.56,14.05,1
3550,53.33,-2.93,22.14,1
3551,53.35,3.38,19.13,1
3552,53.36,5.86,15.55,1
3553,53.37,9.85,19.17,1
3554,53.38,9.82,19.16,1
3555,53.4,-6.44,13.48,1
3556,53.41,-24.19,14.15,1
3557,53.43,-21.35,14.02,1
3558,53.44,-5.13,4.8,1
3559,53.45,6.64,-0.2,1
3560,53.47,9.34,1.61,1
3561,53.48,2.01,1.36,1
3562,53.49,-6.84,1.89,1
3563,53.51,-1.98,-0.44,1
3564,53.52,7.61,-13.16,1
3565,53.53,4.52,-23.47,1
3566,53.54,-2.86,-20.61,1
3567,53.56,-2.01,-14.81,1
3568,53.57,4.51,-8.22,1
3569,53.58,10.63,3.13,1
3570,53.6,10.61,1.36,1
3571,53.61,3.76,-15.91,1
3572,53.62,-2.7,-20.31,1
3573,53.64,-8.27,-10.98,1
3574,53.65,-15.63,-7.04,1
3575,53.66,-13.79,-8.77,1
3576,53.68,-0.36,-14.94,1
3577,53.69,3.97,-25.73,1
3578,53.7,-3.84,-31.83,1
3579,53.72,-2.28,-30.38,1
3580,53.73,9.36,-24.96,1
3581,53.75,10.35,-13.84,1
3582,53.76,-0.68,-5.72,1
3583,53.77,-4.62,-17.85,1
3584,53.79,1.66,-38.13,1
3585,53.8,3.66,-36.39,1
3586,53.81,3.08,-18.13,1
3587,53.83,11.58,-5.59,1
3588,53.84,20.27,2.17,1
3589,53.85,13.82,3.88,1
3590,53.87,-2.44,-8.97,1
3591,53.88,-9.43,-21.29,1
3592,53.89,2.55,-19.57,1
3593,53.9,18.47,-21.99,1
3594,53.92,17.78,-34.23,1
3595,53.93,7.73,-29.45,1
3596,53.95,2.86,-7.08,1
3597,53.96,-6.47,1.81,1
3598,53.97,-18.31,-5.54,1
3599,53.99,-10.72,-13.45,1
3600,54.0,5.06,-22.49,1
3601,54.01,4.16,-34.31,1
3602,54.03,1.27,-41.86,1
3603,54.04,11.6,-32.2,1
3604,54.05,14.94,-5.66,1
3605,54.06,1.09,7.55,1
3606,54.08,-15.1,-7.35,1
3607,54.09,-20.13,-25.81,1
3608,54.11,-8.29,-37.13,1
3609,54.12,7.33,-47.28,1
3610,54.13,7.74,-36.86,1
3611,54.15,2.69,2.14,1
3612,54.16,7.6,52.61,2
3613,54.17,15.09,113.87,2
3614,54.18,9.17,144.62,2
3615,54.2,-12.08,126.58,2
3616,54.21,-19.5,176.66,2
3617,54.22,0.68,261.43,2
3618,54.24,19.46,208.17,2
3619,54.25,23.97,167.43,2
3620,54.26,20.53,298.99,2
3621,54.28,1.96,368.03,2
3622,54.29,-16.66,257.49,2
3623,54.3,17.22,164.8,2
3624,54.32,80.22,163.13,2
3625,54.33,55.12,150.48,2
3626,54.34,-23.09,99.77,2
3627,54.36,-5.36,60.9,2
3628,54.37,41.96,42.19,2
3629,54.38,-1.0,19.88,2
3630,54.4,-33.85,-8.34,2
3631,54.41,9.42,-31.24,2
3632,54.43,17.29,-48.8,2
3633,54.44,-40.74,-66.57,2
3634,54.45,-62.88,-84.56,2
3635,54.47,-43.49,-99.88,2
3636,54.48,-62.15,-112.59,2
3637,54.49,-78.31,-124.3,2
3638,54.51,-31.63,-135.07,2
3639,54.52,0.75,-144.2,2
3640,54.53,-6.66,-151.68,2
3641,54.54,24.49,-158.26,2
3642,54.56,62.93,-164.36,1
3643,54.57,24.48,-169.1,1
3644,54.59,-35.27,-173.29,1
3645,54.6,-15.98,-195.29,1
3646,54.61,48.26,-252.21,1
3647,54.63,47.63,-332.86,1
3648,54.64,-19.82,-447.17,1
3649,54.65,-50.19,-538.29,1
3650,54.67,-15.92,-494.11,1
3651,54.68,10.67,-409.61,1
3652,54.69,10.86,-374.86,1
3653,54.71,21.97,-284.37,1
3654,54.72,21.64,-183.4,1
3655,54.73,-12.01,-164.02,1
3656,54.75,-15.35,-122.99,1
3657,54.76,20.47,-57.36,1
3658,54.77,6.41,-111.04,1
3659,54.79,-41.58,-214.8,1
3660,54.8,-25.96,-179.94,1
3661,54.81,26.38,-90.29,1
3662,54.82,36.85,-103.77,1
3663,54.84,18.0,-124.24,1
3664,54.85,-5.15,-61.6,1
3665,54.86,-38.7,-15.37,1
3666,54.88,-51.32,-42.66,1
3667,54.89,-14.7,-73.51,1
3668,54.9,21.03,-73.81,1
3669,54.92,5.44,-74.13,1
3670,54.93,-19.17,-37.28,1
3671,54.94,4.18,61.51,1
3672,54.96,42.94,100.59,1
3673,54.97,41.63,31.4,1
3674,54.98,15.9,-3.95,1
3675,55.0,4.56,57.92,1
3676,55.01,1.44,139.51,1
3677,55.025000000000006,-6.59,195.63,1
3678,55.04,-8.49,199.17,1
3679,55.05,-5.5,145.46,1
3680,55.06,-2.12,100.71,1
3681,55.08,20.03,71.0,1
3682,55.09,51.68,15.86,1
3683,55.11,42.4,2.91,1
3684,55.12,-9.67,88.48,1
3685,55.13,-45.94,165.33,1
3686,55.15,-39.42,144.76,1
3687,55.16,-15.1,115.88,1
3688,55.17,-0.74,127.52,1
3689,55.19,1.73,89.56,1
3690,55.2,0.88,41.88,1
3691,55.21,-1.88,122.87,1
3692,55.22,-1.65,237.39,1
3693,55.24,-3.8,201.54,1
3694,55.25,-15.5,113.44,1
3695,55.27,-8.01,127.55,1
3696,55.28,26.74,166.63,1
3697,55.29,39.19,157.8,1
3698,55.31,15.41,122.47,1
3699,55.32,-10.98,101.14,1
3700,55.33,-26.67,166.94,1
3701,55.35,-24.11,255.84,1
3702,55.36,-1.62,218.92,1
3703,55.37,11.34,112.7,1
3704,55.38,-0.59,93.7,1
3705,55.4,-12.93,136.28,1
3706,55.41,0.19,122.9,1
3707,55.43,23.66,98.17,1
3708,55.44,14.06,140.95,1
3709,55.45,-18.56,186.53,1
3710,55.46,-15.33,184.15,1
3711,55.48,12.74,139.52,1
3712,55.49,11.55,82.01,1
3713,55.5,-3.98,95.31,1
3714,55.52,-1.95,165.94,1
3715,55.53,-0.99,172.03,1
3716,55.54,-11.42,96.15,1
3717,55.56,-5.21,30.52,1
3718,55.57,21.3,41.98,1
3719,55.58,19.57,101.43,1
3720,55.6,-17.97,100.57,1
3721,55.61,-28.78,13.54,1
3722,55.62,-4.26,-24.76,1
3723,55.64,8.45,49.2,1
3724,55.65,4.04,110.23,1
3725,55.66,1.38,53.85,1
3726,55.68,10.7,-83.5,1
3727,55.69,24.65,-146.99,1
3728,55.71,18.79,-24.89,1
3729,55.72,1.33,138.84,1
3730,55.73,-5.11,157.32,1
3731,55.75,-10.11,91.76,1
3732,55.76,-8.6,52.59,1
3733,55.77,22.15,25.14,1
3734,55.79,51.37,13.71,1
3735,55.8,28.67,29.28,1
3736,55.81,-14.61,5.93,1
3737,55.83,-22.05,-38.62,1
3738,55.84,-19.89,5.83,1
3739,55.85,-32.36,101.69,1
3740,55.87,-19.52,76.84,1
3741,55.88,11.09,-80.57,1
3742,55.89,15.65,-159.95,1
3743,55.9,9.35,-92.59,1
3744,55.92,6.98,-40.29,1
3745,55.93,-10.42,-34.77,1
3746,55.95,-31.46,-12.02,1
3747,55.96,-30.55,-31.91,1
3748,55.97,-17.3,-92.54,1
3749,55.99,-5.99,-83.27,1
3750,56.0,11.54,-27.71,1
3751,56.01,25.52,-27.9,1
3752,56.03,16.94,-56.34,1
3753,56.04,3.14,-58.32,1
3754,56.05,-2.17,-66.72,1
3755,56.06,-15.6,-92.97,1
3756,56.08,-42.24,-97.28,1
3757,56.09,-50.93,-48.39,1
3758,56.1,-22.3,27.81,1
3759,56.12,0.59,13.5,1
3760,56.13,-9.91,-94.09,1
3761,56.14,-19.45,-108.74,1
3762,56.16,-12.53,-26.75,0
3763,56.17,-0.5,-9.17,0
3764,56.18,7.61,-46.8,0
3765,56.2,7.36,-81.35,0
3766,56.21,17.57,-117.63,0
3767,56.22,37.25,-127.12,0
3768,56.24,36.23,-106.8,0
3769,56.25,17.37,-84.38,0
3770,56.26,4.85,-56.78,0
3771,56.28,11.35,-29.04,0
3772,56.29,27.55,-15.46,0
3773,56.3,26.71,-7.55,0
3774,56.32,8.69,-5.73,0
3775,56.33,-4.86,-40.04,0
3776,56.35,-12.39,-115.03,0
3777,56.36,-19.18,-191.64,0
3778,56.37,-20.35,-262.07,0
3779,56.38,-18.8,-340.13,0
3780,56.4,-17.32,-396.52,0
3781,56.41,-8.3,-393.45,0
3782,56.43,5.4,-335.42,0
3783,56.44,17.67,-249.58,0
3784,56.45,30.09,-148.06,0
3785,56.47,35.99,-41.18,0
3786,56.48,29.49,33.41,0
3787,56.49,20.57,57.58,0
3788,56.51,15.7,64.1,0
3789,56.52,6.61,81.94,0
3790,56.53,-6.36,99.94,0
3791,56.54,-8.62,101.31,0
3792,56.56,-4.64,95.87,1
3793,56.57,-9.2,93.1,1
3794,56.59,-13.55,88.52,1
3795,56.6,-8.84,81.45,1
3796,56.61,-7.91,67.16,1
3797,56.63,-16.65,50.81,1
3798,56.64,-20.28,54.1,1
3799,56.65,-9.18,67.19,1
3800,56.67,7.23,62.33,1
3801,56.68,18.84,53.46,1
3802,56.69,26.38,64.86,1
3803,56.71,26.76,76.44,1
3804,56.72,4.52,64.75,1
3805,56.73,-30.67,51.39,1
3806,56.74,-33.66,59.11,1
3807,56.76,1.37,70.6,1
3808,56.77,22.89,70.33,1
3809,56.78,8.02,72.65,1
3810,56.8,-14.41,80.86,1
3811,56.81,-20.12,73.84,1
3812,56.82,-16.91,51.89,1
3813,56.84,-19.33,44.19,1
3814,56.85,-22.45,53.72,1
3815,56.86,-18.31,49.35,1
3816,56.88,-13.42,31.41,1
3817,56.89,-12.44,28.55,1
3818,56.9,-13.63,32.94,1
3819,56.92,-15.57,24.6,1
3820,56.93,-14.73,21.34,1
3821,56.94,-8.71,34.94,1
3822,56.96,0.55,39.55,1
3823,56.97,7.84,23.83,1
3824,56.99,11.14,10.05,1
3825,57.0,9.11,5.7,1
3826,57.01,1.43,2.49,1
3827,57.03,-2.27,9.19,1
3828,57.04,1.96,22.37,1
3829,57.05,2.03,14.6,1
3830,57.06,-5.69,-10.81,1
3831,57.08,-10.78,-23.02,1
3832,57.09,-7.58,-14.99,1
3833,57.11,0.04,-0.83,1
3834,57.12,5.36,5.74,1
3835,57.13,4.33,1.71,1
3836,57.15,-0.12,-3.05,1
3837,57.16,-1.66,-6.12,1
3838,57.17,4.08,-12.29,1
3839,57.19,11.38,-11.79,1
3840,57.2,7.44,-2.27,1
3841,57.21,-3.46,-3.55,1
3842,57.22,-4.89,-16.65,1
3843,57.24,-1.92,-18.89,1
3844,57.25,-5.92,-5.79,1
3845,57.27,-8.91,4.92,1
3846,57.28,-3.16,-0.24,1
3847,57.29,5.57,-15.15,1
3848,57.31,12.08,-23.17,1
3849,57.32,14.5,-20.43,1
3850,57.33,10.07,-17.18,1
3851,57.35,3.91,-15.09,1
3852,57.36,4.44,-10.32,1
3853,57.37,8.37,-10.09,1
3854,57.38,10.11,-17.75,1
3855,57.4,10.07,-22.61,1
3856,57.41,8.41,-17.66,1
3857,57.42,5.94,-7.85,1
3858,57.44,1.95,-5.39,1
3859,57.45,-2.68,-16.16,1
3860,57.46,-1.25,-27.48,1
3861,57.48,2.98,-25.13,1
3862,57.49,1.85,-14.52,1
3863,57.5,-0.93,-7.26,1
3864,57.52,-2.93,-1.63,1
3865,57.53,-5.87,5.79,1
3866,57.54,-3.87,5.75,1
3867,57.56,6.64,-6.15,1
3868,57.57,14.42,-17.87,1
3869,57.58,10.24,-20.13,1
3870,57.6,3.01,-20.86,1
3871,57.61,2.5,-24.59,1
3872,57.625,2.22,-23.72,1
3873,57.64,-5.17,-18.21,1
3874,57.65,-11.71,-11.66,1
3875,57.67,-4.84,-7.71,1
3876,57.68,8.51,-13.72,1
3877,57.69,11.76,-21.38,1
3878,57.71,7.16,-15.88,1
3879,57.72,1.26,-8.63,1
3880,57.73,-6.28,-12.89,1
3881,57.75,-6.51,-12.2,1
3882,57.76,3.77,-0.65,1
3883,57.77,9.11,1.28,1
3884,57.79,2.86,-7.29,1
3885,57.8,0.49,-13.26,1
3886,57.81,9.66,-16.87,1
3887,57.83,12.03,-13.88,1
3888,57.84,1.21,-2.3,1
3889,57.85,-3.59,6.36,1
3890,57.87,4.14,8.8,1
3891,57.88,8.81,7.13,1
3892,57.89,2.66,1.48,1
3893,57.9,-0.67,-2.37,1
3894,57.92,3.6,-5.11,1
3895,57.93,0.91,-8.14,1
3896,57.95,-5.41,-0.95,1
3897,57.96,-4.27,14.96,1
3898,57.97,-3.1,21.46,1
3899,57.99,1.47,14.58,1
3900,58.0,12.28,3.94,1
3901,58.01,5.99,-9.76,1
3902,58.02,-14.38,-17.94,1
3903,58.04,-10.15,-3.45,1
3904,58.05,11.02,15.85,1
3905,58.06,-1.91,10.96,1
3906,58.08,-42.72,-0.88,1
3907,58.09,-47.95,4.05,1
3908,58.1,-13.01,9.94,1
3909,58.12,0.95,3.17,1
3910,58.13,-14.3,-0.65,1
3911,58.14,-8.15,7.37,1
3912,58.16,22.76,12.19,0
3913,58.17,32.99,6.57,0
3914,58.18,16.33,-7.0,0
3915,58.2,5.61,-51.17,0
3916,58.21,8.59,-125.85,0
3917,58.22,9.83,-162.82,0
3918,58.24,5.43,-133.19,0
3919,58.25,4.47,-99.52,0
3920,58.26,13.77,-102.33,0
3921,58.28,28.8,-110.63,0
3922,58.29,37.2,-93.99,0
3923,58.31,31.3,-67.83,0
3924,58.32,19.65,-62.04,0
3925,58.33,12.55,-75.16,0
3926,58.35,7.64,-81.34,0
3927,58.36,0.58,-71.36,0
3928,58.37,-5.6,-50.56,0
3929,58.38,-2.33,-17.17,0
3930,58.4,10.84,23.48,0
3931,58.41,16.49,56.22,0
3932,58.43,6.13,79.86,0
3933,58.44,-1.2,103.39,0
3934,58.45,4.79,125.77,0
3935,58.47,3.8,136.83,0
3936,58.48,-15.01,137.9,0
3937,58.49,-33.99,147.62,0
3938,58.51,-35.02,169.19,0
3939,58.52,-23.34,179.81,0
3940,58.53,-16.28,173.36,0
3941,58.54,-17.13,172.99,0
3942,58.56,-21.33,183.0,1
3943,58.57,-28.05,177.07,1
3944,58.59,-26.27,150.21,1
3945,58.6,-12.59,128.95,1
3946,58.61,-7.02,123.55,1
3947,58.63,-16.18,119.87,1
3948,58.64,-20.47,109.66,1
3949,58.65,-6.71,96.05,1
3950,58.66,5.86,80.32,1
3951,58.68,-6.1,63.54,1
3952,58.69,-22.11,53.69,1
3953,58.7,-11.6,51.84,1
3954,58.72,5.8,45.26,1
3955,58.73,-1.56,33.49,1
3956,58.74,-15.88,28.85,1
3957,58.76,-8.52,23.92,1
3958,58.77,3.29,5.7,1
3959,58.78,-5.08,-13.84,1
3960,58.8,-18.06,-19.67,1
3961,58.81,-10.42,-15.66,1
3962,58.82,8.72,-15.24,1
3963,58.84,16.85,-22.98,1
3964,58.85,16.51,-27.43,1
3965,58.86,15.82,-22.65,1
3966,58.88,5.99,-19.91,1
3967,58.89,-8.3,-25.33,1
3968,58.9,-5.45,-35.43,1
3969,58.92,9.26,-49.22,1
3970,58.93,9.26,-62.46,1
3971,58.95,-2.2,-68.84,1
3972,58.96,-0.99,-67.12,1
3973,58.97,7.37,-59.13,1
3974,58.99,2.21,-50.16,1
3975,59.0,-7.64,-44.69,1
3976,59.01,-4.54,-44.09,1
3977,59.03,0.09,-49.6,1
3978,59.04,-7.08,-56.03,1
3979,59.05,-6.55,-55.71,1
3980,59.06,13.42,-51.14,1
3981,59.08,24.94,-50.58,1
3982,59.09,11.53,-56.48,1
3983,59.11,0.19,-60.76,1
3984,59.12,8.87,-54.57,1
3985,59.13,12.69,-46.34,1
3986,59.15,-2.4,-49.68,1
3987,59.16,-7.4,-56.66,1
3988,59.17,11.05,-54.32,1
3989,59.19,21.59,-50.04,1
3990,59.2,6.0,-52.88,1
3991,59.21,-12.37,-56.05,1
3992,59.22,-8.23,-52.31,1
3993,59.24,7.31,-44.85,1
3994,59.25,7.91,-41.13,1
3995,59.27,1.86,-44.74,1
3996,59.28,6.4,-52.95,1
3997,59.29,3.23,-58.77,1
3998,59.3,-17.67,-54.55,1
3999,59.32,-24.95,-44.13,1
4000,59.33,-5.25,-40.23,1
4001,59.34,11.48,-40.88,1
4002,59.36,11.05,-36.95,1
4003,59.37,6.68,-31.57,1
4004,59.38,0.74,-28.49,1
4005,59.4,-3.14,-26.98,1
4006,59.41,3.54,-28.92,1
4007,59.42,10.7,-30.25,1
4008,59.44,4.58,-24.29,1
4009,59.45,-7.29,-17.65,1
4010,59.46,-6.12,-15.98,1
4011,59.48,7.01,-10.46,1
4012,59.49,8.33,-2.82,1
4013,59.5,-4.91,-6.01,1
4014,59.52,-2.57,-14.3,1
4015,59.53,18.5,-13.1,1
4016,59.54,18.96,-3.32,1
4017,59.56,-5.31,5.73,1
4018,59.57,-14.05,8.1,1
4019,59.59,-2.43,2.01,1
4020,59.6,0.4,-5.08,1
4021,59.61,-6.27,-1.44,1
4022,59.63,-2.1,11.4,1
4023,59.64,9.86,16.74,1
4024,59.65,11.4,7.19,1
4025,59.67,5.31,-3.46,1
4026,59.68,6.68,-1.77,1
4027,59.69,9.72,6.74,1
4028,59.71,2.33,8.45,1
4029,59.72,-5.02,4.01,1
4030,59.73,-1.61,5.09,1
4031,59.75,1.57,10.99,1
4032,59.76,-1.81,14.05,1
4033,59.77,-3.55,17.74,1
4034,59.79,-5.46,25.16,1
4035,59.8,-12.67,27.12,1
4036,59.81,-12.45,20.65,1
4037,59.83,-0.59,19.46,1
4038,59.84,-1.03,22.95,1
4039,59.85,-13.64,15.65,1
4040,59.87,-4.97,7.47,1
4041,59.88,17.07,15.34,1
4042,59.89,14.97,26.41,1
4043,59.9,-1.16,25.88,1
4044,59.92,-1.73,17.78,1
4045,59.93,7.04,9.48,1
4046,59.94,8.83,7.17,1
4047,59.96,3.75,16.53,1
4048,59.97,-4.31,32.58,1
4049,59.98,-9.5,39.17,1
4050,60.0,-5.97,26.91,1
4051,60.01,-1.67,9.44,1
4052,60.02,1.5,4.63,1
4053,60.04,10.73,9.78,1
4054,60.05,11.19,20.14,1
4055,60.06,-8.07,36.51,1
4056,60.08,-25.67,45.13,1
4057,60.09,-22.68,38.24,1
4058,60.1,-9.4,30.74,1
4059,60.12,-5.57,27.24,1
4060,60.13,-8.25,19.42,1
4061,60.14,-1.31,13.81,1
4062,60.16,11.17,18.83,2
4063,60.17,16.25,23.24,2
4064,60.18,10.92,28.95,2
4065,60.2,1.56,72.29,2
4066,60.21,1.72,169.78,2
4067,60.22,13.01,280.52,2
4068,60.24,22.11,351.86,2
4069,60.25,10.58,368.55,2
4070,60.27,-25.77,338.2,2
4071,60.28,-49.77,252.48,2
4072,60.29,-42.35,122.95,2
4073,60.31,-45.03,15.07,2
4074,60.32,-70.11,-43.61,2
4075,60.33,-68.23,-90.24,2
4076,60.35,-21.98,-132.4,2
4077,60.36,21.52,-156.36,2
4078,60.37,33.27,-175.84,2
4079,60.38,37.32,-196.66,2
4080,60.4,50.61,-207.88,2
4081,60.41,60.85,-208.39,2
4082,60.43,56.76,-202.87,2
4083,60.44,39.48,-194.35,2
4084,60.45,18.42,-181.37,2
4085,60.47,8.05,-159.45,2
4086,60.48,14.53,-133.88,2
4087,60.49,23.59,-116.43,2
4088,60.51,19.4,-109.0,2
4089,60.52,8.58,-106.95,2
4090,60.53,1.01,-102.75,2
4091,60.54,-6.51,-87.24,2
4092,60.56,-10.76,-65.09,1
4093,60.57,-4.73,-49.57,1
4094,60.58,5.53,-41.78,1
4095,60.6,9.64,-37.88,1
4096,60.61,6.43,-40.06,1
4097,60.62,5.06,-45.19,1
4098,60.64,8.81,-43.78,1
4099,60.65,8.25,-33.43,1
4100,60.66,2.78,-21.68,1
4101,60.68,1.66,-16.69,1
4102,60.69,1.7,-12.58,1
4103,60.7,-4.61,0.81,1
4104,60.72,-10.63,14.53,1
4105,60.73,-7.88,19.28,1
4106,60.74,-6.2,22.09,1
4107,60.76,-14.96,22.25,1
4108,60.77,-20.4,17.18,1
4109,60.78,-14.74,20.52,1
4110,60.8,-8.71,31.69,1
4111,60.81,-3.49,32.52,1
4112,60.82,5.49,27.05,1
4113,60.84,10.15,29.48,1
4114,60.85,3.71,33.57,1
4115,60.865,-5.22,31.35,1
4116,60.88,-8.06,29.73,1
4117,60.89,-8.54,33.3,1
4118,60.9,-9.87,35.33,1
4119,60.92,-7.71,33.71,1
4120,60.93,-4.04,35.66,1
4121,60.95,-6.16,44.03,1
4122,60.96,-9.39,49.47,1
4123,60.97,-2.97,44.84,1
4124,60.99,5.13,35.59,1
4125,61.0,-2.84,30.38,1
4126,61.01,-16.13,30.55,1
4127,61.03,-13.85,31.19,1
4128,61.04,-5.87,33.01,1
4129,61.05,-4.25,39.75,1
4130,61.06,-2.17,41.46,1
4131,61.08,-1.96,34.02,1
4132,61.09,-6.63,34.43,1
4133,61.11,-3.56,44.59,1
4134,61.12,7.62,42.54,1
4135,61.13,7.41,28.35,1
4136,61.15,-7.62,24.11,1
4137,61.16,-16.39,28.96,1
4138,61.17,-9.12,30.14,1
4139,61.19,-0.37,34.8,1
4140,61.2,-2.13,43.87,1
4141,61.21,-4.56,39.97,1
4142,61.22,0.42,23.77,1
4143,61.24,0.83,16.31,1
4144,61.25,-5.65,23.87,1
4145,61.26,-3.77,31.21,1
4146,61.28,1.57,26.71,1
4147,61.29,-4.32,19.33,1
4148,61.3,-9.0,21.33,1
4149,61.32,1.67,25.67,1
4150,61.33,8.92,20.12,1
4151,61.34,-0.51,14.1,1
4152,61.36,-4.95,20.4,1
4153,61.37,1.87,24.48,1
4154,61.38,0.44,12.54,1
4155,61.4,-5.09,0.22,1
4156,61.41,-1.36,-3.62,1
4157,61.42,2.39,-4.3,1
4158,61.44,-0.98,7.79,1
4159,61.45,-4.28,23.12,1
4160,61.46,0.16,14.0,1
4161,61.48,14.74,-1.51,1
4162,61.49,21.1,9.32,1
4163,61.5,5.45,25.25,1
4164,61.52,-4.3,12.02,1
4165,61.53,8.45,-10.74,1
4166,61.54,14.23,-9.27,1
4167,61.56,-0.07,1.1,1
4168,61.57,-8.24,-6.0,1
4169,61.59,0.01,-16.47,1
4170,61.6,3.57,-6.78,1
4171,61.61,-4.89,9.69,1
4172,61.63,-6.59,5.07,1
4173,61.64,4.28,-9.91,1
4174,61.65,8.94,-11.2,1
4175,61.67,-0.73,-9.05,1
4176,61.68,-7.96,-16.67,1
4177,61.69,-1.94,-20.09,1
4178,61.71,4.22,-9.37,1
4179,61.72,-1.34,-0.09,1
4180,61.73,-7.24,-8.09,1
4181,61.75,-2.72,-23.12,1
4182,61.76,4.72,-23.73,1
4183,61.77,6.09,-14.23,1
4184,61.79,1.47,-15.49,1
4185,61.8,-1.64,-22.28,1
4186,61.81,-0.59,-22.01,1
4187,61.83,-3.95,-21.52,1
4188,61.84,-11.48,-19.48,1
4189,61.85,-12.78,-15.28,1
4190,61.86,-4.25,-21.18,1
4191,61.88,7.35,-27.33,1
4192,61.89,9.1,-20.46,1
4193,61.9,-1.58,-15.46,1
4194,61.92,-7.44,-21.71,1
4195,61.93,3.15,-25.82,1
4196,61.94,14.87,-21.61,1
4197,61.96,11.86,-18.08,1
4198,61.97,9.21,-18.59,1
4199,61.98,19.13,-23.25,1
4200,62.0,20.36,-24.83,1
4201,62.01,1.89,-0.46,1
4202,62.02,-14.26,41.04,1
4203,62.04,-11.83,69.32,1
4204,62.05,-0.83,120.72,1
4205,62.06,8.11,222.63,1
4206,62.08,18.27,250.75,1
4207,62.09,21.21,114.72,1
4208,62.1,2.08,-41.65,1
4209,62.12,-21.24,-90.46,1
4210,62.13,-24.5,-101.03,1
4211,62.14,-22.59,-131.16,1
4212,62.16,-31.57,-139.95,2
4213,62.17,-33.84,-133.44,2
4214,62.19,-15.3,-172.27,2
4215,62.2,10.05,-216.18,2
4216,62.21,20.63,-161.39,2
4217,62.22,18.69,-61.31,2
4218,62.24,20.69,-42.14,2
4219,62.25,19.65,-65.0,2
4220,62.27,9.52,-36.49,2
4221,62.28,12.46,18.77,2
4222,62.29,33.35,37.68,2
4223,62.31,44.79,2.97,2
4224,62.32,32.93,-43.46,2
4225,62.33,13.72,-43.51,2
4226,62.35,6.98,-25.61,2
4227,62.36,8.62,-43.03,2
4228,62.37,0.7,-57.59,2
4229,62.38,-10.26,-33.47,2
4230,62.4,-2.34,-13.1,2
4231,62.41,12.15,-18.9,2
4232,62.43,8.31,-24.88,2
4233,62.44,-2.53,-50.65,2
4234,62.45,-4.37,-60.47,2
4235,62.47,-6.33,129.31,2
4236,62.48,-11.79,473.19,2
4237,62.49,-9.46,569.84,2
4238,62.5,-5.98,319.8,2
4239,62.52,-10.52,150.29,2
4240,62.53,-11.66,261.7,2
4241,62.54,-2.86,361.3,2
4242,62.56,22.04,302.19,1
4243,62.57,50.89,234.17,1
4244,62.58,48.83,213.48,1
4245,62.6,23.06,184.0,1
4246,62.61,-10.3,139.34,1
4247,62.62,-37.19,104.63,1
4248,62.64,-34.9,79.23,1
4249,62.65,-25.34,51.47,1
4250,62.66,-16.03,22.73,1
4251,62.68,-6.05,-0.95,1
4252,62.69,-24.7,-21.03,1
4253,62.7,-46.14,-41.37,1
4254,62.72,-40.78,-61.23,1
4255,62.73,-23.01,-77.87,1
4256,62.74,14.25,-92.11,1
4257,62.76,40.03,-106.04,1
4258,62.77,-0.77,-119.2,1
4259,62.78,-46.81,-130.25,1
4260,62.8,-19.36,-139.3,1
4261,62.81,11.65,-147.32,1
4262,62.825,-25.87,-154.57,1
4263,62.84,-49.38,-160.43,1
4264,62.85,23.79,-165.07,1
4265,62.87,100.43,-168.8,1
4266,62.88,57.32,-171.37,1
4267,62.89,-36.16,-173.41,1
4268,62.9,-63.58,-174.65,1
4269,62.92,-46.81,-174.76,1
4270,62.93,-15.43,-174.28,1
4271,62.95,31.17,-173.64,1
4272,62.96,40.34,-171.9,1
4273,62.97,6.88,-168.51,1
4274,62.99,-6.87,-164.83,1
4275,63.0,-10.01,-162.2,1
4276,63.01,-41.62,-179.18,1
4277,63.03,-54.35,-230.04,1
4278,63.04,-7.81,-272.16,1
4279,63.05,36.37,-297.55,1
4280,63.06,32.8,-326.86,1
4281,63.08,25.46,-308.4,1
4282,63.09,26.37,-265.61,1
4283,63.11,2.83,-259.64,1
4284,63.12,-5.99,-237.77,1
4285,63.13,35.4,-175.3,1
4286,63.14,56.24,-122.18,1
4287,63.16,15.72,-152.02,1
4288,63.17,-24.58,-274.28,1
4289,63.18,-33.29,-324.56,1
4290,63.2,-37.21,-233.3,1
4291,63.21,-25.32,-166.74,1
4292,63.22,9.07,-178.83,1
4293,63.24,9.94,-174.81,1
4294,63.25,-25.29,-126.42,1
4295,63.26,-38.64,-53.72,1
4296,63.28,-30.68,1.59,1
4297,63.29,-21.87,4.48,1
4298,63.3,-8.42,-6.1,1
4299,63.32,-7.25,42.46,1
4300,63.33,-22.31,123.25,1
4301,63.34,-21.75,123.34,1
4302,63.36,-6.14,42.12,1
4303,63.37,-12.93,9.38,1
4304,63.38,-23.81,86.32,1
4305,63.4,14.66,177.74,1
4306,63.41,64.45,165.36,1
4307,63.42,52.8,72.14,1
4308,63.44,4.28,75.06,1
4309,63.45,-16.32,246.13,1
4310,63.46,4.68,347.64,1
4311,63.48,33.59,206.72,1
4312,63.49,30.3,40.92,1
4313,63.51,2.0,79.07,1
4314,63.52,-5.12,227.53,1
4315,63.53,18.79,297.77,1
4316,63.54,29.57,265.93,1
4317,63.56,4.08,196.37,1
4318,63.57,-31.22,111.23,1
4319,63.59,-46.51,46.51,1
4320,63.6,-12.47,81.41,1
4321,63.61,59.77,204.32,1
4322,63.63,83.6,285.36,1
4323,63.64,33.17,258.4,1
4324,63.65,-4.86,207.27,1
4325,63.67,7.25,205.66,1
4326,63.68,18.1,206.17,1
4327,63.69,-2.41,184.25,1
4328,63.71,-40.98,202.38,1
4329,63.72,-62.6,239.3,1
4330,63.73,-34.2,220.28,1
4331,63.75,8.76,177.41,1
4332,63.76,0.01,146.77,1
4333,63.77,-20.47,124.48,1
4334,63.78,19.35,160.81,1
4335,63.8,59.62,235.21,1
4336,63.81,32.93,246.48,1
4337,63.82,-2.12,196.9,1
4338,63.84,-0.72,146.92,1
4339,63.85,0.92,127.52,1
4340,63.86,-10.15,139.39,1
4341,63.88,-11.05,123.58,1
4342,63.89,-2.09,73.74,1
4343,63.9,7.57,96.01,1
4344,63.92,22.54,176.28,1
4345,63.93,22.71,165.55,1
4346,63.94,-13.3,88.45,1
4347,63.96,-42.4,81.09,1
4348,63.97,-23.47,108.86,1
4349,63.98,13.71,78.4,1
4350,64.0,30.37,28.61,1
4351,64.01,20.97,59.43,1
4352,64.02,-11.52,147.03,1
4353,64.04,-48.9,131.82,1
4354,64.05,-47.89,29.25,1
4355,64.06,-13.37,17.84,1
4356,64.08,-10.22,55.69,1
4357,64.09,-35.33,16.62,1
4358,64.1,-30.65,-22.41,1
4359,64.12,-12.65,-1.72,1
4360,64.13,-10.27,-5.96,1
4361,64.14,8.67,-56.17,1
4362,64.16,33.74,-84.13,0
4363,64.17,17.61,-74.54,0
4364,64.18,-4.47,-58.16,0
4365,64.2,16.11,-42.83,0
4366,64.21,39.03,-32.65,0
4367,64.22,20.05,-47.19,0
4368,64.24,-16.04,-75.95,0
4369,64.25,-27.12,-77.76,0
4370,64.26,-13.43,-59.94,0
4371,64.28,4.17,-56.62,0
4372,64.29,31.22,-51.53,0
4373,64.3,57.61,-44.38,0
4374,64.32,43.22,-61.15,0
4375,64.33,4.06,-72.74,0
4376,64.34,-5.68,-73.88,0
4377,64.36,3.04,-134.35,0
4378,64.37,-15.1,-256.45,0
4379,64.38,-45.73,-349.17,0
4380,64.4,-45.05,-377.44,0
4381,64.41,-18.35,-381.34,0
4382,64.42,4.29,-374.58,0
4383,64.44,21.72,-339.69,0
4384,64.45,35.74,-276.83,0
4385,64.46,33.73,-204.17,0
4386,64.48,21.88,-137.01,0
4387,64.49,14.86,-74.97,0
4388,64.5,11.21,-21.33,0
4389,64.52,11.63,6.75,0
4390,64.53,14.76,15.79,0
4391,64.54,7.77,31.07,0
4392,64.56,-7.3,46.48,1
4393,64.57,-13.08,45.89,1
4394,64.58,-7.76,38.68,1
4395,64.6,-4.84,34.12,1
4396,64.61,-8.81,32.51,1
4397,64.62,-12.51,39.87,1
4398,64.64,-9.83,47.65,1
4399,64.65,0.59,33.04,1
4400,64.66,9.13,7.36,1
4401,64.68,1.74,1.7,1
4402,64.69,-10.02,7.97,1
4403,64.7,-5.44,0.4,1
4404,64.72,5.7,-14.84,1
4405,64.73,2.4,-16.68,1
4406,64.74,-15.71,-3.4,1
4407,64.76,-31.06,8.36,1
4408,64.77,-27.44,10.6,1
4409,64.79,-11.19,9.1,1
4410,64.8,-1.18,7.53,1
4411,64.81,-3.19,7.2,1
4412,64.82,-10.03,6.58,1
4413,64.84,-11.78,1.65,1
4414,64.85,-2.51,-1.34,1
4415,64.86,11.32,0.43,1
4416,64.88,15.33,-2.99,1
4417,64.89,8.07,-8.7,1
4418,64.9,0.01,-3.63,1
4419,64.92,-6.11,3.21,1
4420,64.93,-11.19,-2.16,1
4421,64.94,-10.68,-11.46,1
4422,64.96,-3.74,-20.27,1
4423,64.97,0.78,-30.78,1
4424,64.98,-3.31,-31.89,1
4425,65.0,-9.42,-26.53,1
4426,65.01,-9.43,-27.61,1
4427,65.02,-5.92,-27.15,1
4428,65.04,-2.28,-24.18,1
4429,65.05,4.52,-26.66,1
4430,65.06,13.9,-23.94,1
4431,65.08,19.43,-18.97,1
4432,65.09,15.0,-28.6,1
4433,65.1,2.12,-36.46,1
4434,65.12,-10.49,-22.32,1
4435,65.13,-14.35,-6.71,1
4436,65.14,-8.57,-10.69,1
4437,65.16,2.02,-20.78,1
4438,65.17,12.4,-19.12,1
4439,65.18,15.7,-11.82,1
4440,65.2,8.55,-11.46,1
4441,65.21,-0.02,-15.33,1
4442,65.22,-4.57,-16.62,1
4443,65.24,-10.07,-18.81,1
4444,65.25,-15.33,-22.42,1
4445,65.26,-15.27,-18.46,1
4446,65.28,-10.87,-10.03,1
4447,65.29,-4.18,-8.74,1
4448,65.3,0.59,-7.38,1
4449,65.32,-3.28,2.75,1
4450,65.33,-11.28,5.63,1
4451,65.34,-7.96,-9.56,1
4452,65.36,8.03,-19.81,1
4453,65.37,13.2,-9.06,1
4454,65.38,-1.4,3.45,1
4455,65.4,-7.18,-0.14,1
4456,65.41,5.45,-11.94,1
4457,65.42500000000001,8.93,-12.49,1
4458,65.44,-0.08,-1.51,1
4459,65.45,0.59,0.09,1
4460,65.46,7.3,-9.02,1
4461,65.48,2.95,-11.79,1
4462,65.49,-5.94,-7.34,1
4463,65.5,-4.31,-2.44,1
4464,65.52,4.26,4.23,1
4465,65.53,8.04,12.88,1
4466,65.54,6.34,19.01,1
4467,65.56,3.88,21.3,1
4468,65.57,0.79,22.73,1
4469,65.58,-1.2,20.06,1
4470,65.6,1.9,7.25,1
4471,65.61,7.37,-4.2,1
4472,65.62,9.6,-1.57,1
4473,65.64,8.18,4.92,1
4474,65.65,1.79,8.56,1
4475,65.66,-9.16,15.11,1
4476,65.68,-9.54,18.1,1
4477,65.69,6.43,12.56,1
4478,65.7,14.51,9.25,1
4479,65.72,4.52,10.92,1
4480,65.73,-0.34,10.48,1
4481,65.74,8.02,6.38,1
4482,65.76,10.98,1.79,1
4483,65.77,5.86,3.89,1
4484,65.78,3.77,15.04,1
4485,65.8,1.85,20.72,1
4486,65.81,-1.51,10.83,1
4487,65.82,-0.26,1.68,1
4488,65.84,-2.55,8.5,1
4489,65.85,-12.01,19.17,1
4490,65.86,-8.95,18.98,1
4491,65.88,6.95,12.07,1
4492,65.89,8.53,6.94,1
4493,65.9,-2.58,4.3,1
4494,65.92,1.09,6.07,1
4495,65.93,17.12,14.37,1
4496,65.94,18.69,18.31,1
4497,65.96,4.93,6.88,1
4498,65.97,-4.01,-5.77,1
4499,65.98,-6.48,2.24,1
4500,66.0,-10.87,24.68,1
4501,66.01,-12.85,39.18,1
4502,66.02,-8.25,39.62,1
4503,66.04,-4.96,33.47,1
4504,66.05,-9.08,27.66,1
4505,66.06,-13.27,21.47,1
4506,66.08,-13.47,9.85,1
4507,66.09,-18.08,4.14,1
4508,66.11,-21.01,12.31,1
4509,66.12,-8.53,11.43,1
4510,66.13,8.29,-1.39,1
4511,66.14,14.59,4.19,1
4512,66.16,13.6,21.6,0
4513,66.17,9.0,15.04,0
4514,66.18,1.64,-7.82,0
4515,66.2,0.76,-22.09,0
4516,66.21,5.59,-53.9,0
4517,66.22,-0.2,-125.79,0
4518,66.24,-9.23,-181.42,0
4519,66.25,-2.21,-160.42,0
4520,66.26,9.07,-94.37,0
4521,66.28,8.55,-54.53,0
4522,66.29,9.31,-57.54,0
4523,66.3,23.47,-73.42,0
4524,66.32,36.18,-85.24,0
4525,66.33,35.57,-92.03,0
4526,66.34,32.47,-85.14,0
4527,66.36,35.23,-60.09,0
4528,66.37,34.21,-29.29,0
4529,66.38,22.73,-8.16,0
4530,66.4,13.63,5.83,0
4531,66.41,14.31,30.42,0
4532,66.42,14.38,69.28,0
4533,66.44,8.46,99.62,0
4534,66.45,-0.27,108.58,0
4535,66.46,-11.76,115.13,0
4536,66.48,-24.37,130.8,0
4537,66.49,-28.94,149.17,0
4538,66.5,-23.18,171.73,0
4539,66.52,-20.44,194.64,0
4540,66.53,-25.06,201.35,0
4541,66.54,-25.96,189.75,0
4542,66.56,-23.19,175.28,1
4543,66.57,-25.91,166.28,1
4544,66.58,-30.69,156.55,1
4545,66.6,-25.57,140.05,1
4546,66.61,-10.2,119.2,1
4547,66.62,-3.84,103.21,1
4548,66.64,-12.67,93.36,1
4549,66.65,-15.36,76.63,1
4550,66.66,-8.45,54.73,1
4551,66.68,-7.23,44.4,1
4552,66.69,-10.44,42.3,1
4553,66.7,-9.91,39.42,1
4554,66.72,-2.72,38.45,1
4555,66.73,3.47,32.43,1
4556,66.75,-6.26,19.82,1
4557,66.76,-23.8,13.09,1
4558,66.77,-27.16,6.44,1
4559,66.79,-13.38,-6.77,1
4560,66.8,3.19,-12.71,1
4561,66.81,8.84,-9.22,1
4562,66.82,4.62,-10.04,1
4563,66.84,0.2,-17.88,1
4564,66.85,-5.01,-27.83,1
4565,66.86,-10.84,-37.69,1
4566,66.88,-3.16,-42.44,1
4567,66.89,14.29,-39.18,1
4568,66.9,13.05,-36.45,1
4569,66.92,-3.05,-40.94,1
4570,66.93,0.45,-47.83,1
4571,66.94,17.87,-53.48,1
4572,66.96,14.42,-60.45,1
4573,66.97,-8.59,-68.51,1
4574,66.98,-19.46,-73.67,1
4575,67.0,-4.78,-70.45,1
4576,67.01,14.4,-60.79,1
4577,67.02,13.15,-55.63,1
4578,67.04,0.07,-57.88,1
4579,67.05,-3.98,-63.16,1
4580,67.06,-6.72,-70.07,1
4581,67.08,-14.54,-75.63,1
4582,67.09,-9.92,-79.32,1
4583,67.1,6.02,-80.79,1
4584,67.12,11.28,-75.08,1
4585,67.13,2.1,-68.02,1
4586,67.14,-10.55,-67.03,1
4587,67.16,-15.1,-63.08,1
4588,67.17,-4.81,-53.32,1
4589,67.18,10.43,-49.6,1
4590,67.2,17.38,-53.95,1
4591,67.21,16.82,-54.62,1
4592,67.22,10.82,-47.21,1
4593,67.24,1.3,-43.19,1
4594,67.25,-0.71,-48.2,1
4595,67.26,9.27,-53.13,1
4596,67.28,20.0,-55.1,1
4597,67.29,20.48,-54.09,1
4598,67.3,11.05,-43.35,1
4599,67.32,1.31,-28.13,1
4600,67.33,1.47,-25.02,1
4601,67.34,9.59,-36.45,1
4602,67.36,14.07,-43.16,1
4603,67.37,9.02,-34.88,1
4604,67.38,1.88,-28.49,1
4605,67.4,6.24,-30.95,1
4606,67.41,19.64,-29.2,1
4607,67.43,22.79,-24.36,1
4608,67.44,9.36,-25.33,1
4609,67.45,-5.27,-25.76,1
4610,67.46,-6.44,-16.92,1
4611,67.48,0.25,-4.91,1
4612,67.49,3.33,-0.85,1
4613,67.5,4.0,-5.05,1
4614,67.52,5.88,-11.09,1
4615,67.53,8.2,-13.88,1
4616,67.54,9.13,-9.87,1
4617,67.56,5.6,-5.18,1
4618,67.57,-3.74,-10.91,1
4619,67.58,-13.62,-15.81,1
4620,67.6,-11.22,-1.67,1
4621,67.61,4.7,16.61,1
4622,67.62,10.78,19.18,1
4623,67.64,-2.07,16.21,1
4624,67.65,-10.83,18.47,1
4625,67.66,-5.84,19.67,1
4626,67.68,0.51,16.77,1
4627,67.69,4.26,12.82,1
4628,67.7,7.8,9.32,1
4629,67.72,8.33,7.92,1
4630,67.73,5.31,11.09,1
4631,67.74,1.83,17.95,1
4632,67.76,-1.38,24.33,1
4633,67.77,-2.9,26.11,1
4634,67.78,0.98,23.51,1
4635,67.8,4.17,23.38,1
4636,67.81,-3.46,26.77,1
4637,67.82,-15.48,25.91,1
4638,67.84,-16.41,21.8,1
4639,67.85,-4.54,19.93,1
4640,67.86,4.2,17.78,1
4641,67.88,2.63,16.7,1
4642,67.89,2.36,20.04,1
4643,67.9,7.02,23.87,1
4644,67.92,8.47,26.46,1
4645,67.93,6.89,25.27,1
4646,67.94,7.28,21.7,1
4647,67.96,6.47,25.16,1
4648,67.97,0.66,26.87,1
4649,67.98,-7.44,17.94,1
4650,68.0,-10.83,15.52,1
4651,68.01,-4.36,23.54,1
4652,68.02,4.86,26.42,1
4653,68.04,6.89,26.82,1
4654,68.05,3.4,33.85,1
4655,68.06,0.42,33.51,1
4656,68.08,-4.84,18.93,1
4657,68.09,-20.94,12.57,1
4658,68.11,-34.25,18.18,1
4659,68.12,-21.63,13.97,1
4660,68.13,2.17,6.41,1
4661,68.14,7.5,14.19,1
4662,68.16,-2.67,21.42,2
4663,68.17,-7.59,12.04,2
4664,68.18,2.38,5.34,2
4665,68.2,13.79,15.04,2
4666,68.21,9.64,36.74,2
4667,68.22,4.03,89.48,2
4668,68.24,9.09,184.12,2
4669,68.25,4.64,278.27,2
4670,68.26,-14.47,324.06,2
4671,68.28,-22.71,307.88,2
4672,68.29,-8.92,242.78,2
4673,68.3,0.88,165.82,2
4674,68.32,-14.66,112.59,2
4675,68.33,-33.7,75.82,2
4676,68.34,-34.34,19.46,2
4677,68.36,-27.72,-59.36,2
4678,68.37,-26.28,-121.55,2
4679,68.38,-24.43,-146.38,2
4680,68.4,-14.85,-160.6,2
4681,68.41,-6.47,-190.54,2
4682,68.42,-7.78,-214.73,2
4683,68.44,-5.72,-207.67,2
4684,68.45,11.1,-187.07,2
4685,68.46,28.82,-172.77,2
4686,68.48,28.73,-159.98,2
4687,68.49,18.25,-146.49,2
4688,68.5,16.55,-133.09,2
4689,68.52,19.57,-114.35,2
4690,68.53,14.34,-90.73,2
4691,68.54,8.93,-73.01,2
4692,68.56,10.7,-70.56,1
4693,68.57,10.39,-73.65,1
4694,68.58,9.02,-66.81,1
4695,68.6,14.61,-54.52,1
4696,68.61,19.16,-48.2,1
4697,68.62,14.22,-46.68,1
4698,68.64,7.79,-47.59,1
4699,68.65,5.73,-48.21,1
4700,68.66,0.9,-38.81,1
4701,68.68,-5.46,-21.98,1
4702,68.69,-1.68,-11.16,1
4703,68.7,9.55,-10.53,1
4704,68.72,14.45,-10.02,1
4705,68.73,10.73,-2.85,1
4706,68.75,4.3,3.35,1
4707,68.76,-1.44,2.6,1
4708,68.77,-3.41,1.82,1
4709,68.79,-4.85,4.83,1
4710,68.8,-11.29,9.37,1
4711,68.81,-11.21,16.28,1
4712,68.82,2.83,25.52,1
4713,68.84,9.65,29.83,1
4714,68.85,-1.25,23.05,1
4715,68.86,-8.82,13.94,1
4716,68.88,-2.01,14.18,1
4717,68.89,6.65,22.86,1
4718,68.9,8.7,33.39,1
4719,68.92,9.38,41.31,1
4720,68.93,10.21,43.83,1
4721,68.94,1.75,40.13,1
4722,68.96,-17.86,36.76,1
4723,68.97,-26.49,41.3,1
4724,68.98,-7.75,44.82,1
4725,69.0,12.83,38.27,1
4726,69.01,9.01,31.89,1
4727,69.02,-1.7,33.15,1
4728,69.04,-2.37,36.38,1
4729,69.05,-5.98,39.76,1
4730,69.06,-13.54,42.21,1
4731,69.08,-7.3,40.76,1
4732,69.09,5.04,37.61,1
4733,69.1,-1.95,38.32,1
4734,69.12,-17.79,43.91,1
4735,69.13,-11.7,46.92,1
4736,69.14,7.1,44.62,1
4737,69.16,8.06,41.29,1
4738,69.17,-6.64,36.29,1
4739,69.18,-12.05,30.42,1
4740,69.2,-3.86,30.49,1
4741,69.21,0.53,33.6,1
4742,69.22,-1.41,32.8,1
4743,69.24,0.46,29.97,1
4744,69.25,-0.94,26.24,1
4745,69.26,-9.86,20.48,1
4746,69.28,-12.87,17.68,1
4747,69.29,-4.98,19.86,1
4748,69.3,5.21,21.64,1
4749,69.32,6.76,23.57,1
4750,69.33,-0.87,27.09,1
4751,69.34,-4.55,24.01,1
4752,69.36,-1.82,13.36,1
4753,69.37,-2.02,5.9,1
4754,69.38,-3.65,7.27,1
4755,69.4,-2.93,10.09,1
4756,69.41,-2.86,7.68,1
4757,69.43,-2.73,10.33,1
4758,69.44,-0.53,17.2,1
4759,69.45,3.07,7.32,1
4760,69.46,7.55,-8.83,1
4761,69.48,4.82,-4.34,1
4762,69.49,-8.14,11.86,1
4763,69.5,-12.35,19.98,1
4764,69.52,-0.69,13.45,1
4765,69.53,5.2,-2.73,1
4766,69.54,-1.09,-8.78,1
4767,69.56,-1.94,-2.06,1
4768,69.57,6.55,-3.05,1
4769,69.58,10.49,-9.81,1
4770,69.6,3.48,-7.66,1
4771,69.61,-3.51,-4.13,1
4772,69.62,-2.06,-6.98,1
4773,69.64,-2.43,-9.66,1
4774,69.65,-9.29,-11.32,1
4775,69.66,-10.61,-16.4,1
4776,69.68,-4.15,-21.26,1
4777,69.69,4.15,-18.5,1
4778,69.7,12.32,-6.14,1
4779,69.72,9.93,7.05,1
4780,69.73,-3.1,7.12,1
4781,69.74,-7.62,-8.41,1
4782,69.76,-1.93,-20.94,1
4783,69.77,-0.0,-16.56,1
4784,69.78,3.33,-6.79,1
4785,69.8,13.5,-7.3,1
4786,69.81,13.21,-19.03,1
4787,69.82,-0.17,-24.0,1
4788,69.84,-7.1,-11.48,1
4789,69.85,-4.52,-5.54,1
4790,69.86,-2.76,-17.1,1
4791,69.88,0.19,-19.91,1
4792,69.89,11.09,-9.71,1
4793,69.9,17.2,-9.83,1
4794,69.92,4.02,-20.51,1
4795,69.93,-10.07,-24.4,1
4796,69.94,-4.52,-17.9,1
4797,69.96,7.24,-5.84,1
4798,69.97,6.69,4.3,1
4799,69.98,-1.48,1.26,1
4800,70.0,-3.96,-13.44,1
4801,70.01,-2.14,-22.36,1
4802,70.02,-5.12,-18.34,1
4803,70.04,-10.25,-12.26,1
4804,70.05,-11.61,-11.22,1
4805,70.06,-8.44,-12.45,1
4806,70.08,-1.79,-14.87,1
4807,70.09,-3.15,-17.96,1
4808,70.11,-16.78,-18.12,1
4809,70.12,-22.06,-14.67,1
4810,70.13,-3.79,-7.96,1
