,Timestamp,Data1,Data2,Label
0,6.0,-3.73,-3.13,1
1,6.01,0.1,-4.46,1
2,6.03,2.06,-3.69,1
3,6.04,3.18,-1.12,1
4,6.05,4.35,3.44,1
5,6.07,2.57,8.03,1
6,6.08,-0.19,5.1,1
7,6.09,1.98,-7.06,1
8,6.11,5.11,-16.12,1
9,6.12,0.05,-12.07,1
10,6.13,-9.62,-3.24,1
11,6.15,-8.53,6.73,2
12,6.16,7.39,28.67,2
13,6.17,21.92,68.94,2
14,6.19,25.16,126.3,2
15,6.2,23.39,150.4,2
16,6.21,8.25,128.24,2
17,6.23,-26.82,165.54,2
18,6.24,-39.04,218.44,2
19,6.25,5.18,169.21,2
20,6.27,41.88,151.25,2
21,6.28,18.82,189.9,2
22,6.29,1.8,100.18,2
23,6.31,22.5,-4.24,2
24,6.32,23.7,70.62,2
25,6.33,-8.85,115.08,2
26,6.35,-39.4,-62.64,2
27,6.36,-29.85,-191.47,2
28,6.37,27.25,-8.41,2
29,6.39,62.67,252.17,2
30,6.4,32.08,260.48,2
31,6.41,-3.12,119.02,2
32,6.43,-24.49,51.74,2
33,6.44,-53.38,13.47,2
34,6.45,-32.73,-28.67,2
35,6.47,29.03,6.11,2
36,6.48,28.6,42.88,2
37,6.49,-28.81,-13.73,2
38,6.51,-59.66,-106.96,2
39,6.52,-59.36,-188.02,2
40,6.53,-58.37,-228.93,2
41,6.55,-48.53,-198.68,2
42,6.56,-32.6,-175.45,1
43,6.57,-25.91,-220.59,1
44,6.59,-21.35,-223.53,1
45,6.6,-20.32,-144.73,1
46,6.61,-24.11,-135.66,1
47,6.63,-12.24,-218.14,1
48,6.64,14.54,-226.14,1
49,6.65,16.0,-173.12,1
50,6.67,-17.58,-227.93,1
51,6.68,-27.16,-288.41,1
52,6.69,5.17,-144.75,1
53,6.71,24.08,5.48,1
54,6.72,23.35,-115.82,1
55,6.73,30.16,-292.33,1
56,6.75,20.83,-232.49,1
57,6.76,-13.63,-107.37,1
58,6.77,-27.25,-136.41,1
59,6.79,-8.72,-189.34,1
60,6.8,4.04,-117.66,1
61,6.81,-2.1,-22.6,1
62,6.82,-12.21,-48.66,1
63,6.84,-6.7,-127.38,1
64,6.85,22.52,-121.33,1
65,6.86,43.88,-75.75,1
66,6.88,31.44,-60.07,1
67,6.89,12.23,-53.29,1
68,6.91,11.62,-69.69,1
69,6.92,31.01,-78.37,1
70,6.93,64.37,-12.56,1
71,6.95,72.79,41.98,1
72,6.96,31.76,11.18,1
73,6.97,-16.2,5.14,1
74,6.99,-31.06,46.91,1
75,7.0,-21.38,9.35,1
76,7.01,-6.49,-58.11,1
77,7.03,4.27,-14.27,1
78,7.04,10.13,58.15,1
79,7.05,16.48,46.62,1
80,7.07,16.73,31.34,1
81,7.08,3.56,56.28,1
82,7.09,-2.58,42.71,1
83,7.11,11.66,-0.72,1
84,7.12,26.54,4.32,1
85,7.13,29.79,47.6,1
86,7.15,32.57,77.81,1
87,7.16,43.25,92.21,1
88,7.17,44.27,104.39,1
89,7.19,12.74,91.22,1
90,7.2,-24.46,65.46,1
91,7.21,-21.67,95.47,1
92,7.23,-6.18,154.51,1
93,7.24,-27.31,126.41,1
94,7.25,-53.05,22.2,1
95,7.27,-34.1,-9.6,1
96,7.28,9.8,14.94,1
97,7.29,32.74,-20.62,1
98,7.31,23.04,11.86,1
99,7.32,-0.59,167.82,1
100,7.33,-18.2,217.61,1
101,7.35,-16.0,135.09,1
102,7.36,-1.81,96.8,1
103,7.37,-4.33,124.13,1
104,7.39,-22.13,151.01,1
105,7.4,-24.3,145.52,1
106,7.41,-11.57,148.42,1
107,7.43,-12.4,202.78,1
108,7.44,-24.3,217.32,1
109,7.45,-18.3,142.3,1
110,7.47,11.64,96.43,1
111,7.48,40.36,122.2,1
112,7.49,39.85,118.66,1
113,7.51,8.1,61.01,1
114,7.52,-26.35,23.27,1
115,7.53,-36.29,30.84,1
116,7.55,-22.77,78.32,1
117,7.56,-4.96,144.29,1
118,7.57,7.05,144.71,1
119,7.59,11.84,98.17,1
120,7.6,6.53,113.51,1
121,7.61,-1.79,119.19,1
122,7.63,-4.29,33.42,1
123,7.64,-5.95,-3.49,1
124,7.65,-9.05,70.63,1
125,7.67,-8.04,113.96,1
126,7.68,-5.49,75.13,1
127,7.69,-10.75,48.42,1
128,7.71,-21.15,67.3,1
129,7.72,-13.53,60.28,1
130,7.73,24.47,-8.18,1
131,7.75,48.91,-47.9,1
132,7.76,20.4,-1.8,1
133,7.77,-14.77,27.96,1
134,7.79,-12.12,-3.49,1
135,7.8,-4.78,-17.37,1
136,7.81,-15.79,-17.87,1
137,7.83,-13.61,-39.0,1
138,7.84,5.27,-35.7,1
139,7.85,-2.68,-5.69,1
140,7.87,-28.39,6.85,1
141,7.88,-16.01,-5.45,1
142,7.89,19.83,-43.89,1
143,7.91,22.38,-67.86,1
144,7.92,2.44,-39.84,1
145,7.93,7.7,-12.93,1
146,7.95,28.57,8.74,1
147,7.96,21.99,46.42,1
148,7.97,-6.35,26.39,1
149,7.99,-19.38,-18.29,1
150,8.0,-18.95,12.12,1
151,8.01,-26.87,12.42,1
152,8.03,-26.84,-86.37,1
153,8.04,1.17,-126.92,1
154,8.05,30.38,-49.25,1
155,8.07,37.89,15.87,1
156,8.08,28.17,-9.32,1
157,8.09,3.76,-49.34,1
158,8.1,-10.6,-31.05,1
159,8.12,-0.87,-17.82,1
160,8.13,-1.47,-79.57,1
161,8.15,-13.18,-130.66,0
162,8.16,-4.91,-57.33,0
163,8.17,9.09,48.64,0
164,8.19,6.2,29.58,0
165,8.2,-0.92,-61.7,0
166,8.21,5.15,-122.72,0
167,8.23,15.8,-181.32,0
168,8.24,10.53,-236.14,0
169,8.25,-3.46,-239.28,0
170,8.27,-6.4,-223.56,0
171,8.28,-8.89,-227.93,0
172,8.29,-19.85,-215.89,0
173,8.31,-15.22,-158.95,0
174,8.32,8.73,-92.12,0
175,8.33,14.27,-49.87,0
176,8.35,-5.6,-27.21,0
177,8.36,-13.07,-10.44,0
178,8.37,-3.13,2.55,0
179,8.39,-5.2,14.04,0
180,8.4,-14.93,28.16,0
181,8.41,-13.96,40.45,0
182,8.43,-10.46,41.14,0
183,8.44,-8.39,34.45,0
184,8.45,-4.81,35.13,0
185,8.47,-6.64,32.03,0
186,8.48,-6.19,5.76,0
187,8.49,6.58,-15.5,0
188,8.51,9.59,-1.98,0
189,8.52,-11.66,13.96,0
190,8.53,-26.67,3.65,0
191,8.55,-12.83,-1.11,1
192,8.56,2.44,20.5,1
193,8.57,-5.0,40.21,1
194,8.59,-13.62,40.87,1
195,8.6,-2.57,37.72,1
196,8.61,12.02,41.82,1
197,8.63,7.77,48.87,1
198,8.64,-6.4,50.2,1
199,8.65,-2.37,37.61,1
200,8.67,19.91,18.26,1
201,8.68,27.26,15.61,1
202,8.69,6.55,33.52,1
203,8.71,-13.0,45.7,1
204,8.72,-8.75,37.88,1
205,8.73,1.52,25.61,1
206,8.75,-0.81,26.1,1
207,8.76,-1.45,35.0,1
208,8.77,10.75,33.92,1
209,8.78,14.22,17.59,1
210,8.8,-0.67,4.69,1
211,8.81,-7.78,11.18,1
212,8.82,0.33,24.82,1
213,8.84,4.29,25.43,1
214,8.85,2.31,12.0,1
215,8.87,2.64,-0.59,1
216,8.88,5.95,2.46,1
217,8.89,9.3,16.75,1
218,8.91,6.29,20.36,1
219,8.92,-0.15,8.46,1
220,8.93,-0.44,0.82,1
221,8.95,0.11,6.47,1
222,8.96,-2.97,11.15,1
223,8.97,-0.8,8.38,1
224,8.99,3.9,8.83,1
225,9.0,3.13,11.84,1
226,9.01,3.63,6.47,1
227,9.03,2.96,-3.57,1
228,9.04,-9.04,-6.24,1
229,9.05,-13.63,-0.89,1
230,9.07,8.13,1.8,1
231,9.08,31.15,-3.88,1
232,9.09,21.85,-8.74,1
233,9.11,-13.08,-5.29,1
234,9.12,-33.83,-4.48,1
235,9.13,-18.69,-12.8,1
236,9.15,6.52,-18.0,1
237,9.16,11.29,-15.66,1
238,9.17,1.42,-14.23,1
239,9.19,-8.68,-13.98,1
240,9.2,-15.57,-14.6,1
241,9.21,-8.45,-20.72,1
242,9.23,12.84,-25.32,1
243,9.24,25.8,-19.15,1
244,9.25,22.13,-9.14,1
245,9.27,15.19,-4.52,1
246,9.28,8.1,-4.75,1
247,9.29,-3.14,-9.39,1
248,9.31,-7.5,-17.84,1
249,9.32,3.39,-21.99,1
250,9.33,12.78,-17.84,1
251,9.35,6.89,-14.18,1
252,9.36,-1.55,-18.29,1
253,9.37,-0.39,-25.87,1
254,9.39,4.49,-28.42,1
255,9.4,8.5,-25.27,1
256,9.41,13.12,-20.09,1
257,9.43,13.47,-11.6,1
258,9.44,4.2,-3.99,1
259,9.45,-8.88,-3.93,1
260,9.47,-15.43,-2.78,1
261,9.48,-11.22,1.24,1
262,9.49,-0.64,-7.58,1
263,9.51,6.2,-24.43,1
264,9.52,8.51,-25.67,1
265,9.53,14.11,-11.43,1
266,9.55,16.58,-3.69,1
267,9.56,3.16,-7.39,1
268,9.57,-18.83,-8.97,1
269,9.59,-28.1,-5.32,1
270,9.6,-15.04,-5.01,1
271,9.61,3.11,-7.96,1
272,9.63,5.36,-8.65,1
273,9.64,0.65,-6.0,1
274,9.65,3.4,-2.72,1
275,9.67,2.71,-5.95,1
276,9.68,-3.36,-11.3,1
277,9.69,-0.87,-1.13,1
278,9.71,3.92,17.85,1
279,9.72,2.37,19.42,1
280,9.73,2.77,5.54,1
281,9.75,3.88,-3.21,1
282,9.76,-0.53,-3.57,1
283,9.77,0.01,-2.95,1
284,9.79,7.97,-4.15,1
285,9.8,5.15,-5.17,1
286,9.81,-13.51,-4.72,1
287,9.83,-26.32,-5.51,1
288,9.84,-16.94,-5.04,1
289,9.85,-0.66,0.66,1
290,9.87,-2.82,4.24,1
291,9.88,-14.75,0.77,1
292,9.89,-11.29,-2.4,1
293,9.91,-0.01,-2.18,1
294,9.92,2.67,0.16,1
295,9.93,10.24,5.17,1
296,9.95,25.21,6.51,1
297,9.96,16.46,6.43,1
298,9.97,-14.11,14.88,1
299,9.99,-19.91,20.64,1
300,10.0,3.98,13.36,1
301,10.01,11.4,9.77,1
302,10.02,-7.29,21.03,1
303,10.04,-14.78,33.27,1
304,10.05,0.05,32.43,1
305,10.06,12.18,19.78,1
306,10.08,9.35,5.9,1
307,10.09,2.53,0.18,1
308,10.1,0.85,0.27,1
309,10.12,-0.18,2.76,1
310,10.13,-3.0,12.71,1
311,10.15,0.4,15.43,0
312,10.16,4.26,-28.06,0
313,10.17,-6.29,-108.75,0
314,10.19,-18.59,-158.04,0
315,10.2,-5.99,-157.7,0
316,10.21,28.95,-154.78,0
317,10.23,50.96,-161.51,0
318,10.24,34.24,-155.86,0
319,10.25,2.04,-141.19,0
320,10.27,-12.66,-125.63,0
321,10.28,-15.72,-97.2,0
322,10.29,-19.47,-53.09,0
323,10.31,-15.64,-7.7,0
324,10.32,-1.99,27.47,0
325,10.33,6.71,51.52,0
326,10.35,-4.18,71.13,0
327,10.36,-23.97,95.71,0
328,10.37,-26.09,124.94,0
329,10.39,-13.91,146.05,0
330,10.4,-10.89,152.75,0
331,10.41,-15.94,155.58,0
332,10.43,-17.57,165.83,0
333,10.44,-20.04,173.7,0
334,10.45,-24.04,165.98,0
335,10.47,-16.24,156.47,0
336,10.48,-1.47,156.66,0
337,10.49,-2.05,148.57,0
338,10.51,-8.55,126.66,0
339,10.52,5.32,112.11,0
340,10.53,23.7,108.47,0
341,10.55,17.56,97.76,1
342,10.56,0.52,76.53,1
343,10.57,-6.0,59.86,1
344,10.59,-8.16,55.53,1
345,10.6,-9.6,54.09,1
346,10.61,-5.87,44.91,1
347,10.63,2.3,31.86,1
348,10.64,14.43,26.97,1
349,10.65,21.0,27.68,1
350,10.67,14.72,22.05,1
351,10.68,13.28,15.8,1
352,10.69,26.68,15.42,1
353,10.71,33.84,8.3,1
354,10.72,22.16,-6.04,1
355,10.73,5.3,-12.44,1
356,10.75,-9.17,-12.95,1
357,10.76,-24.07,-17.4,1
358,10.77,-26.83,-22.09,1
359,10.78,-8.47,-21.98,1
360,10.8,6.03,-20.06,1
361,10.81,2.08,-18.57,1
362,10.83,3.21,-20.72,1
363,10.84,13.15,-32.14,1
364,10.85,5.57,-45.52,1
365,10.87,-17.72,-48.38,1
366,10.88,-26.8,-46.78,1
367,10.89,-12.21,-48.32,1
368,10.91,3.07,-45.37,1
369,10.92,2.39,-39.69,1
370,10.93,0.41,-41.5,1
371,10.95,9.3,-45.07,1
372,10.96,16.15,-42.79,1
373,10.97,13.8,-43.19,1
374,10.99,8.93,-50.32,1
375,11.0,5.88,-49.91,1
376,11.01,5.04,-36.63,1
377,11.03,0.56,-28.85,1
378,11.04,-9.28,-37.41,1
379,11.05,-12.49,-49.31,1
380,11.07,-2.9,-54.0,1
381,11.08,7.22,-55.16,1
382,11.09,6.2,-52.37,1
383,11.11,-4.42,-44.32,1
384,11.12,-11.02,-40.21,1
385,11.13,-1.71,-43.07,1
386,11.15,11.76,-41.76,1
387,11.16,9.66,-34.23,1
388,11.17,-2.82,-34.07,1
389,11.19,-5.54,-45.31,1
390,11.2,5.11,-55.12,1
391,11.21,11.89,-51.35,1
392,11.23,5.14,-37.23,1
393,11.24,0.58,-26.69,1
394,11.25,9.13,-23.43,1
395,11.27,13.25,-24.13,1
396,11.28,3.78,-29.67,1
397,11.29,1.31,-34.28,1
398,11.31,10.91,-33.21,1
399,11.32,10.14,-31.21,1
400,11.33,-4.59,-25.82,1
401,11.35,-16.46,-17.5,1
402,11.36,-19.28,-17.92,1
403,11.37,-9.38,-23.64,1
404,11.39,7.44,-21.35,1
405,11.4,7.93,-15.96,1
406,11.41,-4.87,-17.56,1
407,11.43,-4.01,-20.22,1
408,11.44,5.55,-18.29,1
409,11.45,-0.2,-16.64,1
410,11.47,-10.96,-18.7,1
411,11.48,-2.9,-19.22,1
412,11.49,11.95,-11.18,1
413,11.51,5.67,3.38,1
414,11.52,-15.77,13.15,1
415,11.53,-21.72,12.86,1
416,11.55,-2.97,11.19,1
417,11.56,20.45,11.4,1
418,11.57,28.18,4.02,1
419,11.59,16.94,-5.82,1
420,11.6,-1.24,-1.56,1
421,11.61,-9.61,11.68,1
422,11.63,-5.26,13.25,1
423,11.64,-1.79,4.77,1
424,11.65,-3.64,8.23,1
425,11.67,-2.9,20.2,1
426,11.68,1.35,18.39,1
427,11.69,3.1,7.75,1
428,11.71,-1.09,6.04,1
429,11.72,-2.33,11.45,1
430,11.73,9.69,12.96,1
431,11.75,21.54,9.65,1
432,11.76,15.11,8.3,1
433,11.77,-2.58,10.52,1
434,11.79,-14.91,16.73,1
435,11.8,-13.12,24.38,1
436,11.81,-1.42,24.3,1
437,11.83,2.85,19.79,1
438,11.84,-7.1,16.9,1
439,11.85,-15.86,8.85,1
440,11.87,-11.51,2.52,1
441,11.88,0.07,16.39,1
442,11.89,5.64,36.24,1
443,11.91,-2.26,29.85,1
444,11.92,-13.75,9.3,1
445,11.93,-12.08,9.75,1
446,11.94,0.61,21.35,1
447,11.96,8.17,17.07,1
448,11.97,6.61,9.12,1
449,11.98,-1.51,14.05,1
450,12.0,-15.5,17.78,1
451,12.01,-21.32,11.85,1
452,12.02,-8.4,9.1,1
453,12.04,6.68,14.7,1
454,12.05,7.6,21.97,1
455,12.06,-0.06,25.2,1
456,12.08,-4.17,22.9,1
457,12.09,-3.14,18.07,1
458,12.11,-3.21,15.67,1
459,12.12,-2.67,17.37,1
460,12.13,5.1,21.05,1
461,12.15,10.76,22.56,2
462,12.16,0.06,21.87,2
463,12.17,-12.74,21.1,2
464,12.19,-6.6,16.91,2
465,12.2,4.71,10.96,2
466,12.21,3.19,12.23,2
467,12.23,1.34,15.13,2
468,12.24,2.83,8.15,2
469,12.25,-6.96,4.63,2
470,12.27,-17.3,33.37,2
471,12.28,-10.52,105.49,2
472,12.29,3.32,203.1,2
473,12.31,11.23,286.23,2
474,12.32,10.17,321.92,2
475,12.33,-1.61,311.44,2
476,12.35,-16.2,269.87,2
477,12.36,-22.73,199.46,2
478,12.37,-23.67,106.12,2
479,12.39,-23.48,13.4,2
480,12.4,-17.38,-62.84,2
481,12.41,-7.47,-123.79,2
482,12.43,-4.29,-171.5,2
483,12.44,-6.75,-211.51,2
484,12.45,-4.82,-246.02,2
485,12.47,6.4,-258.44,2
486,12.48,21.77,-239.0,2
487,12.49,29.44,-207.55,2
488,12.51,24.64,-184.83,2
489,12.52,15.41,-169.08,2
490,12.53,8.78,-149.45,2
491,12.55,4.15,-126.67,1
492,12.56,3.78,-111.79,1
493,12.57,15.48,-106.68,1
494,12.59,34.2,-98.29,1
495,12.6,40.85,-83.05,1
496,12.61,30.41,-67.66,1
497,12.63,17.67,-49.78,1
498,12.64,13.64,-35.37,1
499,12.65,12.49,-40.08,1
500,12.67,3.97,-50.77,1
501,12.68,-7.97,-43.91,1
502,12.69,-6.94,-26.59,1
503,12.71,7.03,-14.58,1
504,12.72,11.23,-8.74,1
505,12.73,-1.67,-4.98,1
506,12.75,-12.6,-2.55,1
507,12.76,-10.43,-0.59,1
508,12.77,-4.39,-0.87,1
509,12.79,-2.97,-5.46,1
510,12.8,-5.47,-4.68,1
511,12.81,-8.44,8.96,1
512,12.83,-6.43,22.91,1
513,12.84,0.65,26.46,1
514,12.85,0.83,23.77,1
515,12.87,-10.31,21.83,1
516,12.88,-15.91,23.1,1
517,12.89,-5.05,24.16,1
518,12.91,7.23,22.53,1
519,12.92,5.31,22.84,1
520,12.93,-3.35,27.86,1
521,12.95,-3.57,31.67,1
522,12.96,2.84,32.75,1
523,12.97,1.49,38.11,1
524,12.99,-4.95,45.18,1
525,13.0,-1.08,40.89,1
526,13.01,8.69,29.66,1
527,13.03,9.87,29.82,1
528,13.04,4.35,36.04,1
529,13.05,4.89,34.01,1
530,13.07,12.31,35.36,1
531,13.08,14.17,46.98,1
532,13.09,5.38,51.17,1
533,13.11,-7.68,42.88,1
534,13.12,-17.51,34.9,1
535,13.13,-21.72,28.95,1
536,13.15,-21.59,20.88,1
537,13.16,-14.73,21.3,1
538,13.17,-1.58,36.29,1
539,13.19,7.25,46.52,1
540,13.2,6.46,41.66,1
541,13.21,2.0,39.5,1
542,13.23,-3.71,46.75,1
543,13.24,-9.64,44.09,1
544,13.25,-10.22,27.94,1
545,13.27,-4.92,19.27,1
546,13.28,1.11,23.43,1
547,13.29,3.16,25.26,1
548,13.31,1.53,20.18,1
549,13.32,2.06,19.91,1
550,13.33,4.86,25.67,1
551,13.35,1.56,26.27,1
552,13.36,-8.08,22.59,1
553,13.37,-11.5,22.14,1
554,13.39,-2.95,22.79,1
555,13.4,6.15,21.51,1
556,13.41,3.77,22.47,1
557,13.43,-4.1,26.19,1
558,13.44,-4.81,20.17,1
559,13.45,-3.0,1.25,1
560,13.47,-5.74,-7.47,1
561,13.48,-3.25,7.31,1
562,13.49,4.75,21.49,1
563,13.51,3.01,17.61,1
564,13.52,-4.97,12.6,1
565,13.53,-4.64,16.22,1
566,13.55,-1.78,11.77,1
567,13.56,-2.84,-5.16,1
568,13.57,-1.08,-12.63,1
569,13.59,-1.04,-1.72,1
570,13.6,-9.12,3.82,1
571,13.61,-15.24,-9.87,1
572,13.63,-13.53,-21.81,1
573,13.64,-7.25,-15.41,1
574,13.65,2.5,-1.97,1
575,13.67,8.26,1.39,1
576,13.68,3.18,-9.65,1
577,13.69,-3.0,-21.02,1
578,13.71,-1.78,-15.84,1
579,13.72,-2.96,-3.8,1
580,13.73,-11.38,-3.65,1
581,13.75,-14.67,-11.56,1
582,13.76,-6.35,-13.4,1
583,13.77,7.43,-8.47,1
584,13.79,17.95,-8.3,1
585,13.8,17.37,-15.37,1
586,13.81,7.25,-16.76,1
587,13.83,-0.55,-8.51,1
588,13.84,-0.92,-3.63,1
589,13.85,0.89,-8.68,1
590,13.86,2.16,-16.11,1
591,13.88,6.9,-22.23,1
592,13.89,14.03,-27.06,1
593,13.9,13.99,-23.53,1
594,13.92,6.64,-10.11,1
595,13.93,2.54,-0.8,1
596,13.94,4.69,-7.21,1
597,13.96,8.54,-15.31,1
598,13.97,7.85,-8.86,1
599,13.98,0.3,-6.41,1
600,14.0,-8.81,-26.58,1
601,14.01,-12.81,-44.99,1
602,14.02,-6.97,-35.01,1
603,14.04,4.76,-14.68,1
604,14.05,8.71,-12.89,1
605,14.07,3.91,-23.12,1
606,14.08,2.43,-26.16,1
607,14.09,4.68,-23.32,1
608,14.11,3.95,-23.45,1
609,14.12,4.01,-24.17,1
610,14.13,5.6,-17.38,1
611,14.15,3.16,-6.15,2
612,14.16,0.23,10.75,2
613,14.17,8.51,36.08,2
614,14.19,31.08,32.95,2
615,14.2,44.04,12.7,2
616,14.21,27.3,50.11,2
617,14.23,3.15,90.5,2
618,14.24,-11.55,37.19,2
619,14.25,-28.12,-30.09,2
620,14.27,-37.79,14.07,2
621,14.28,-22.18,117.56,2
622,14.29,5.6,128.39,2
623,14.31,12.34,58.95,2
624,14.32,-5.81,29.09,2
625,14.33,-13.17,25.89,2
626,14.35,-0.97,-11.74,2
627,14.36,1.01,-54.0,2
628,14.37,-12.82,-52.18,2
629,14.39,-26.14,-28.46,2
630,14.4,-31.94,-33.85,2
631,14.41,-28.7,-46.11,2
632,14.43,-19.72,-25.78,2
633,14.44,-12.49,-22.04,2
634,14.45,-6.83,-75.09,2
635,14.47,-0.61,-119.88,2
636,14.48,1.22,-92.75,2
637,14.49,-1.31,-37.72,2
638,14.51,-1.51,-33.35,2
639,14.52,0.92,-75.42,2
640,14.53,6.75,-99.27,2
641,14.55,16.44,-80.96,1
642,14.56,14.94,-56.13,1
643,14.57,-5.86,-58.55,1
644,14.59,-24.51,-81.52,1
645,14.6,-17.61,-94.46,1
646,14.61,7.96,-60.27,1
647,14.63,22.82,-8.21,1
648,14.64,16.0,-34.11,1
649,14.65,2.86,-92.47,1
650,14.67,-3.85,-63.13,1
651,14.68,-5.13,13.24,1
652,14.69,-9.3,61.4,1
653,14.71,-5.51,65.53,1
654,14.72,19.67,8.21,1
655,14.73,31.42,-54.97,1
656,14.75,6.38,-35.64,1
657,14.76,-14.16,18.38,1
658,14.77,-6.07,14.36,1
659,14.79,5.63,-16.06,1
660,14.8,7.08,-6.45,1
661,14.81,-0.4,27.06,1
662,14.83,-13.06,42.02,1
663,14.84,-15.15,38.64,1
664,14.85,-2.27,30.05,1
665,14.87,15.15,4.76,1
666,14.88,24.95,-19.82,1
667,14.89,17.97,6.51,1
668,14.91,7.11,55.15,1
669,14.92,7.07,52.51,1
670,14.93,4.33,28.51,1
671,14.95,-13.83,43.14,1
672,14.96,-24.23,56.62,1
673,14.97,2.05,26.28,1
674,14.99,34.09,2.45,1
675,15.0,20.33,35.9,1
676,15.01,-16.92,74.14,1
677,15.03,-18.12,39.24,1
678,15.04,21.46,-25.98,1
679,15.05,52.92,-28.83,1
680,15.07,42.64,12.13,1
681,15.08,5.03,34.92,1
682,15.09,-26.34,42.25,1
683,15.11,-27.26,40.82,1
684,15.12,-3.36,32.9,1
685,15.13,13.13,52.41,1
686,15.15,8.59,68.48,1
687,15.16,-0.01,21.31,1
688,15.17,-1.95,-15.05,1
689,15.19,-5.82,26.96,1
690,15.2,-14.31,59.2,1
691,15.21,-12.39,35.87,1
692,15.23,1.71,16.63,1
693,15.24,6.06,10.65,1
694,15.25,0.99,3.2,1
695,15.27,0.19,8.47,1
696,15.28,-5.26,11.1,1
697,15.29,-16.58,8.98,1
698,15.31,-18.67,35.56,1
699,15.32,-6.42,59.13,1
700,15.33,12.44,31.23,1
701,15.35,15.54,-0.0,1
702,15.36,-6.23,6.51,1
703,15.37,-20.38,8.49,1
704,15.39,-7.1,-13.22,1
705,15.4,5.64,-19.96,1
706,15.41,5.22,3.85,1
707,15.43,6.68,13.17,1
708,15.44,3.71,-21.57,1
709,15.45,-8.61,-37.29,1
710,15.47,-10.7,8.25,1
711,15.48,-4.99,41.0,1
712,15.49,-15.19,20.74,1
713,15.51,-28.21,5.31,1
714,15.52,-12.12,8.63,1
715,15.53,18.96,-7.07,1
716,15.55,25.43,-23.59,1
717,15.56,10.98,-10.94,1
718,15.57,8.69,0.84,1
719,15.59,10.09,-7.71,1
720,15.6,-8.33,-15.29,1
721,15.61,-19.6,-24.46,1
722,15.63,-3.0,-43.81,1
723,15.64,6.79,-43.42,1
724,15.65,-5.48,-7.35,1
725,15.67,-13.68,41.1,1
726,15.68,-11.85,77.71,1
727,15.69,-5.06,65.97,1
728,15.71,10.75,8.23,1
729,15.72,19.09,-7.2,1
730,15.73,10.86,35.39,1
731,15.75,8.36,25.95,1
732,15.76,14.7,-57.74,1
733,15.77,13.14,-96.92,1
734,15.78,0.88,-43.85,1
735,15.8,-14.25,13.17,1
736,15.81,-17.92,12.54,1
737,15.82,-5.02,-19.1,1
738,15.84,4.41,-30.85,1
739,15.85,-4.15,-9.63,1
740,15.86,-13.47,0.08,1
741,15.88,-6.85,-9.35,1
742,15.89,0.66,-0.91,1
743,15.9,-12.3,10.9,1
744,15.92,-23.53,-6.92,1
745,15.93,-3.1,-46.0,1
746,15.94,13.71,-55.24,1
747,15.96,-6.7,-11.22,1
748,15.97,-25.35,20.47,1
749,15.98,-15.14,8.46,1
750,16.0,4.85,1.87,1
751,16.01,23.66,5.97,1
752,16.03,24.07,-0.74,1
753,16.04,-6.33,2.31,1
754,16.05,-24.91,8.14,1
755,16.07,-7.5,-27.47,1
756,16.08,8.73,-67.04,1
757,16.09,13.64,-38.11,1
758,16.11,22.49,0.17,1
759,16.12,19.23,-18.9,1
760,16.13,3.22,-16.2,1
761,16.15,3.0,35.48,1
762,16.16,11.29,36.76,0
763,16.17,2.61,-6.63,0
764,16.19,-11.14,-5.05,0
765,16.2,-6.71,6.56,0
766,16.21,13.54,-26.27,0
767,16.23,22.8,-33.04,0
768,16.24,3.89,12.89,0
769,16.25,-13.94,28.89,0
770,16.27,0.58,9.94,0
771,16.28,20.3,21.05,0
772,16.29,12.64,29.76,0
773,16.31,-0.81,-36.17,0
774,16.32,3.62,-128.7,0
775,16.33,9.67,-165.47,0
776,16.35,-0.87,-169.18,0
777,16.36,-19.86,-170.82,0
778,16.37,-25.58,-151.7,0
779,16.39,-12.33,-122.41,0
780,16.4,-1.72,-94.8,0
781,16.41,-7.58,-47.4,0
782,16.42,-10.41,12.4,0
783,16.44,1.31,53.1,0
784,16.45,8.1,75.09,0
785,16.46,0.89,93.93,0
786,16.48,-8.35,104.59,0
787,16.49,-12.11,100.3,0
788,16.5,-7.58,93.96,0
789,16.52,4.99,94.13,0
790,16.53,15.94,90.34,0
791,16.54,14.35,80.33,0
792,16.56,1.8,70.11,1
793,16.57,-1.23,54.04,1
794,16.58,17.17,40.18,1
795,16.6,30.92,49.9,1
796,16.61,19.87,69.71,1
797,16.62,6.76,69.97,1
798,16.64,4.38,55.77,1
799,16.65,-2.46,48.23,1
800,16.67,-9.03,52.51,1
801,16.68,-0.38,59.12,1
802,16.69,8.85,56.65,1
803,16.71,2.59,50.2,1
804,16.72,-7.04,51.81,1
805,16.73,-9.74,54.21,1
806,16.75,-8.66,47.55,1
807,16.76,-2.56,37.24,1
808,16.77,-0.42,29.26,1
809,16.79,-13.82,21.39,1
810,16.8,-22.91,8.12,1
811,16.81,-10.49,-3.1,1
812,16.83,3.82,1.33,1
813,16.84,4.27,10.8,1
814,16.85,-1.98,6.96,1
815,16.87,-11.66,-2.8,1
816,16.88,-22.34,-3.9,1
817,16.89,-22.16,2.3,1
818,16.91,-11.75,8.72,1
819,16.92,-3.51,10.92,1
820,16.93,2.88,3.39,1
821,16.95,8.39,-11.04,1
822,16.96,3.96,-20.01,1
823,16.97,-8.09,-18.22,1
824,16.99,-12.88,-11.54,1
825,17.0,-5.0,-9.47,1
826,17.01,5.36,-14.84,1
827,17.03,11.74,-18.04,1
828,17.04,16.35,-15.03,1
829,17.05,17.47,-16.78,1
830,17.06,8.18,-23.98,1
831,17.08,-12.5,-23.11,1
832,17.09,-22.95,-15.42,1
833,17.1,-7.05,-12.4,1
834,17.12,14.29,-14.4,1
835,17.13,18.13,-16.65,1
836,17.14,7.08,-19.68,1
837,17.16,-5.21,-26.28,1
838,17.17,-5.4,-34.14,1
839,17.18,3.09,-35.14,1
840,17.2,0.37,-29.62,1
841,17.21,-10.83,-26.14,1
842,17.22,-9.1,-25.26,1
843,17.24,0.06,-25.46,1
844,17.25,-0.35,-28.4,1
845,17.26,-2.24,-29.23,1
846,17.28,1.43,-24.59,1
847,17.29,1.68,-20.56,1
848,17.3,-2.72,-21.24,1
849,17.32,-5.28,-26.51,1
850,17.33,-2.63,-33.0,1
851,17.35,4.5,-29.79,1
852,17.36,5.13,-14.55,1
853,17.37,-3.99,-5.43,1
854,17.39,-6.3,-11.48,1
855,17.4,0.11,-18.32,1
856,17.41,2.75,-19.34,1
857,17.43,3.4,-22.78,1
858,17.44,4.72,-24.46,1
859,17.45,4.86,-12.95,1
860,17.47,7.08,-3.02,1
861,17.48,7.53,-14.76,1
862,17.49,5.77,-27.1,1
863,17.51,10.71,-14.55,1
864,17.52,14.32,1.53,1
865,17.53,4.83,-4.8,1
866,17.55,-6.41,-18.77,1
867,17.56,-8.64,-17.83,1
868,17.57,-7.72,-8.23,1
869,17.59,-5.5,-5.67,1
870,17.6,1.37,-8.25,1
871,17.61,8.94,-9.64,1
872,17.63,12.08,-9.54,1
873,17.64,8.75,-2.79,1
874,17.65,-0.59,7.87,1
875,17.67,-6.54,7.59,1
876,17.68,-3.17,-0.17,1
877,17.69,-0.25,-2.68,1
878,17.7,-4.54,-6.29,1
879,17.72,-9.32,-14.76,1
880,17.73,-6.18,-16.73,1
881,17.75,5.34,-12.12,1
882,17.76,11.31,-9.96,1
883,17.77,0.11,-9.7,1
884,17.78,-11.09,-7.88,1
885,17.8,-4.93,-3.82,1
886,17.81,4.96,-1.39,1
887,17.82,6.35,-1.95,1
888,17.84,6.52,2.54,1
889,17.85,5.87,8.68,1
890,17.86,0.61,5.35,1
891,17.88,-0.47,-2.72,1
892,17.89,9.36,-8.02,1
893,17.9,17.97,-7.79,1
894,17.92,13.82,-0.25,1
895,17.93,3.08,6.71,1
896,17.94,-4.02,6.58,1
897,17.96,-3.93,4.74,1
898,17.97,-0.08,5.52,1
899,17.99,0.83,7.16,1
900,18.0,-1.47,11.99,1
901,18.01,-5.08,17.38,1
902,18.03,-11.34,10.7,1
903,18.04,-14.64,-2.53,1
904,18.05,-5.57,-2.52,1
905,18.07,7.92,7.39,1
906,18.08,9.02,10.46,1
907,18.09,1.31,7.39,1
908,18.11,0.59,6.98,1
909,18.12,5.71,9.95,1
910,18.13,5.53,14.45,1
911,18.15,0.03,10.59,1
912,18.16,-2.01,-25.97,0
913,18.17,-0.99,-89.7,0
914,18.19,-0.06,-132.23,0
915,18.2,9.4,-140.76,0
916,18.21,23.12,-147.82,0
917,18.23,18.94,-157.23,0
918,18.24,6.42,-150.86,0
919,18.25,10.96,-136.5,0
920,18.27,15.68,-122.2,0
921,18.28,-1.26,-93.66,0
922,18.29,-21.69,-51.94,0
923,18.31,-19.89,-15.21,0
924,18.32,-1.49,16.91,0
925,18.33,2.2,47.99,0
926,18.34,-16.29,66.83,0
927,18.36,-26.13,82.82,0
928,18.37,-13.36,113.81,0
929,18.38,-0.94,139.12,0
930,18.4,-5.83,143.5,0
931,18.41,-14.25,157.7,0
932,18.42,-8.82,192.79,0
933,18.44,3.21,215.89,0
934,18.45,4.05,214.73,0
935,18.46,-6.3,208.31,0
936,18.48,-9.82,195.06,0
937,18.49,3.12,160.08,0
938,18.5,12.23,120.04,0
939,18.52,-2.21,99.91,0
940,18.53,-17.02,97.36,0
941,18.54,-7.47,97.9,0
942,18.56,8.67,93.56,1
943,18.57,8.21,85.57,1
944,18.58,-4.99,73.35,1
945,18.6,-14.2,51.31,1
946,18.61,-9.5,27.57,1
947,18.63,4.39,21.66,1
948,18.64,14.21,35.79,1
949,18.65,11.09,49.56,1
950,18.67,-3.74,45.17,1
951,18.68,-21.05,25.95,1
952,18.69,-27.35,8.98,1
953,18.71,-13.6,2.86,1
954,18.72,6.82,-0.66,1
955,18.73,9.82,-7.86,1
956,18.75,-3.33,-15.92,1
957,18.76,-10.5,-23.27,1
958,18.77,-6.75,-29.23,1
959,18.79,-5.81,-32.33,1
960,18.8,-12.34,-33.41,1
961,18.81,-21.08,-35.94,1
962,18.83,-22.2,-41.98,1
963,18.84,-5.5,-43.82,1
964,18.85,17.17,-40.55,1
965,18.87,19.99,-46.23,1
966,18.88,1.81,-55.05,1
967,18.89,-13.16,-53.52,1
968,18.91,-8.21,-53.02,1
969,18.92,8.85,-55.24,1
970,18.93,15.13,-47.06,1
971,18.95,5.28,-39.97,1
972,18.96,0.69,-45.53,1
973,18.97,6.17,-50.13,1
974,18.98,2.98,-51.03,1
975,19.0,-6.43,-58.39,1
976,19.01,-6.76,-65.21,1
977,19.02,-1.47,-61.64,1
978,19.04,4.44,-54.91,1
979,19.05,11.47,-56.41,1
980,19.06,11.89,-65.52,1
981,19.08,2.18,-67.62,1
982,19.09,-4.64,-53.58,1
983,19.1,5.2,-37.7,1
984,19.12,22.22,-34.79,1
985,19.13,21.28,-41.11,1
986,19.14,2.77,-46.94,1
987,19.16,-4.56,-45.9,1
988,19.17,3.16,-38.43,1
989,19.18,-0.17,-32.01,1
990,19.2,-14.34,-34.48,1
991,19.21,-12.37,-43.61,1
992,19.22,5.63,-46.41,1
993,19.24,16.57,-40.44,1
994,19.25,17.09,-37.52,1
995,19.26,15.36,-38.0,1
996,19.28,8.61,-33.3,1
997,19.29,-1.3,-25.53,1
998,19.31,-4.59,-22.52,1
999,19.32,-0.46,-26.8,1
1000,19.33,4.64,-31.68,1
1001,19.35,4.07,-28.1,1
1002,19.36,-1.48,-14.96,1
1003,19.37,-0.55,-1.89,1
1004,19.39,10.13,-0.55,1
1005,19.4,16.34,-8.7,1
1006,19.41,11.09,-14.06,1
1007,19.43,4.63,-14.11,1
1008,19.44,3.49,-12.95,1
1009,19.45,5.5,-8.62,1
1010,19.47,8.03,-1.07,1
1011,19.48,4.69,0.92,1
1012,19.49,-8.77,-3.13,1
1013,19.51,-18.74,-1.98,1
1014,19.52,-11.28,5.23,1
1015,19.53,2.18,7.66,1
1016,19.55,6.49,4.96,1
1017,19.56,2.83,5.77,1
1018,19.57,-4.15,6.68,1
1019,19.59,-6.88,0.64,1
1020,19.6,0.89,-2.42,1
1021,19.61,7.95,5.68,1
1022,19.62,7.22,14.96,1
1023,19.64,7.34,16.18,1
1024,19.65,7.29,8.83,1
1025,19.67,2.45,-0.65,1
1026,19.68,-1.12,-2.07,1
1027,19.69,-2.93,0.88,1
1028,19.7,-7.74,-1.01,1
1029,19.72,-12.32,-1.58,1
1030,19.73,-10.4,7.38,1
1031,19.75,-6.39,17.08,1
1032,19.76,-7.19,14.62,1
1033,19.77,-5.51,6.17,1
1034,19.78,4.26,4.92,1
1035,19.8,8.31,11.88,1
1036,19.81,0.69,23.52,1
1037,19.82,-1.7,33.59,1
1038,19.84,4.49,33.7,1
1039,19.85,1.49,26.07,1
1040,19.86,-11.56,18.83,1
1041,19.88,-15.37,14.72,1
1042,19.89,-5.66,14.31,1
1043,19.9,2.7,17.52,1
1044,19.92,4.48,20.64,1
1045,19.93,9.89,19.75,1
1046,19.95,18.74,15.6,1
1047,19.96,19.16,12.24,1
1048,19.97,12.85,15.93,1
1049,19.99,9.9,28.07,1
1050,20.0,10.42,37.04,1
1051,20.01,6.85,33.39,1
1052,20.03,-2.9,25.57,1
1053,20.04,-11.79,26.42,1
1054,20.05,-16.45,35.92,1
1055,20.07,-17.59,39.37,1
1056,20.08,-12.54,27.71,1
1057,20.09,-3.44,14.99,1
1058,20.11,-1.04,14.07,1
1059,20.12,-7.35,18.3,1
1060,20.13,-9.44,23.47,1
1061,20.15,-1.21,26.75,1
1062,20.16,8.3,21.29,2
1063,20.17,11.45,15.68,2
1064,20.19,6.32,16.56,2
1065,20.2,-2.1,15.2,2
1066,20.21,-3.16,28.85,2
1067,20.23,2.25,95.15,2
1068,20.24,7.49,203.14,2
1069,20.25,14.09,293.2,2
1070,20.26,12.28,329.12,2
1071,20.28,-4.88,316.05,2
1072,20.29,-14.12,258.39,2
1073,20.3,-6.06,161.29,2
1074,20.32,-9.64,59.68,2
1075,20.33,-32.72,-12.99,2
1076,20.34,-43.81,-63.53,2
1077,20.36,-30.34,-111.1,2
1078,20.37,-17.37,-158.54,2
1079,20.38,-16.06,-202.63,2
1080,20.4,-11.35,-232.83,2
1081,20.41,-3.02,-230.66,2
1082,20.42,-0.13,-204.88,2
1083,20.44,4.46,-183.87,2
1084,20.45,11.81,-170.68,2
1085,20.46,9.53,-154.88,2
1086,20.48,0.28,-136.77,2
1087,20.49,-1.44,-119.16,2
1088,20.5,1.98,-107.47,2
1089,20.52,1.77,-102.15,2
1090,20.53,2.85,-94.49,2
1091,20.54,6.57,-88.31,2
1092,20.56,7.32,-91.48,1
1093,20.57,6.32,-92.36,1
1094,20.59,6.78,-80.65,1
1095,20.6,12.46,-70.34,1
1096,20.61,20.85,-68.23,1
1097,20.63,19.26,-57.87,1
1098,20.64,10.12,-39.26,1
1099,20.65,8.62,-30.0,1
1100,20.67,10.34,-27.0,1
1101,20.68,1.48,-21.61,1
1102,20.69,-11.82,-14.06,1
1103,20.71,-10.01,0.22,1
1104,20.72,8.58,15.15,1
1105,20.73,20.43,14.41,1
1106,20.75,13.41,5.45,1
1107,20.76,3.36,7.28,1
1108,20.77,4.36,13.46,1
1109,20.79,9.17,11.39,1
1110,20.8,6.94,10.86,1
1111,20.81,0.99,20.45,1
1112,20.83,-2.06,31.09,1
1113,20.84,-3.71,36.63,1
1114,20.85,-6.11,38.57,1
1115,20.87,-6.67,34.4,1
1116,20.88,-5.84,26.77,1
1117,20.89,-9.64,26.62,1
1118,20.9,-13.06,29.63,1
1119,20.92,-3.97,28.51,1
1120,20.93,8.68,35.18,1
1121,20.94,7.84,49.33,1
1122,20.96,-0.18,50.88,1
1123,20.97,-5.32,42.37,1
1124,20.98,-12.02,43.18,1
1125,21.0,-13.46,48.3,1
1126,21.01,-3.2,45.27,1
1127,21.02,4.61,44.94,1
1128,21.04,4.81,52.48,1
1129,21.05,2.93,52.92,1
1130,21.06,0.67,46.28,1
1131,21.08,3.72,43.95,1
1132,21.09,9.01,43.55,1
1133,21.1,5.57,42.15,1
1134,21.12,-1.34,41.41,1
1135,21.13,-1.66,37.99,1
1136,21.14,-0.6,34.4,1
1137,21.16,-3.47,37.29,1
1138,21.17,-1.59,40.09,1
1139,21.18,5.55,38.27,1
1140,21.2,4.52,38.12,1
1141,21.21,-0.83,38.91,1
1142,21.23,1.77,36.73,1
1143,21.24,3.16,33.18,1
1144,21.25,-5.19,26.75,1
1145,21.27,-9.9,19.53,1
1146,21.28,-5.6,20.21,1
1147,21.29,-5.48,21.77,1
1148,21.31,-9.05,10.81,1
1149,21.32,-2.93,0.67,1
1150,21.33,7.16,6.43,1
1151,21.35,3.0,11.7,1
1152,21.36,-9.54,5.52,1
1153,21.37,-8.4,5.5,1
1154,21.39,-1.1,14.35,1
1155,21.4,-6.32,13.9,1
1156,21.41,-8.44,1.81,1
1157,21.43,5.36,-7.04,1
1158,21.44,14.64,-3.04,1
1159,21.45,8.7,6.82,1
1160,21.47,0.99,8.98,1
1161,21.48,-1.1,5.9,1
1162,21.49,-0.98,6.01,1
1163,21.51,-0.64,4.66,1
1164,21.52,-2.19,-0.84,1
1165,21.53,-9.18,-1.9,1
1166,21.54,-15.32,3.65,1
1167,21.56,-8.55,7.15,1
1168,21.57,2.9,3.33,1
1169,21.58,2.49,-0.15,1
1170,21.6,-1.07,2.35,1
1171,21.61,4.05,1.71,1
1172,21.62,6.44,-6.42,1
1173,21.64,2.18,-12.85,1
1174,21.65,0.27,-11.71,1
1175,21.67,-3.83,-8.59,1
1176,21.68,-9.12,-8.49,1
1177,21.69,-2.1,-5.31,1
1178,21.7,9.62,-1.35,1
1179,21.72,8.46,-7.82,1
1180,21.73,-2.06,-17.14,1
1181,21.75,-7.0,-16.33,1
1182,21.76,-2.31,-12.64,1
1183,21.77,5.94,-16.67,1
1184,21.78,11.22,-22.23,1
1185,21.8,6.33,-21.96,1
1186,21.81,-7.48,-17.97,1
1187,21.82,-10.77,-7.82,1
1188,21.84,6.79,6.03,1
1189,21.85,21.69,4.19,1
1190,21.87,12.11,-14.94,1
1191,21.88,-7.36,-27.26,1
1192,21.89,-12.31,-22.92,1
1193,21.91,-4.19,-13.98,1
1194,21.92,-0.27,-8.44,1
1195,21.93,-4.35,-5.0,1
1196,21.95,-6.11,-5.12,1
1197,21.96,-2.99,-8.64,1
1198,21.97,0.38,-10.97,1
1199,21.99,3.03,-17.31,1
1200,22.0,4.46,-31.26,1
1201,22.01,1.84,-40.2,1
1202,22.03,-5.77,-34.42,1
1203,22.04,-12.69,-20.32,1
1204,22.05,-11.38,-11.25,1
1205,22.07,-4.72,-16.3,1
1206,22.08,0.5,-24.55,1
1207,22.09,4.99,-18.75,1
1208,22.11,7.28,-9.94,1
1209,22.12,5.36,-16.7,1
1210,22.13,6.24,-26.34,1
1211,22.15,9.36,-22.61,1
1212,22.16,3.24,-14.68,2
1213,22.17,-9.94,-6.43,2
1214,22.18,-14.33,29.33,2
1215,22.2,-0.09,95.94,2
1216,22.21,26.28,137.37,2
1217,22.22,39.04,135.44,2
1218,22.24,17.72,122.34,2
1219,22.25,-11.07,86.43,2
1220,22.26,0.0,43.81,2
1221,22.28,23.99,40.33,2
1222,22.29,-1.23,36.19,2
1223,22.3,-42.22,50.68,2
1224,22.32,-35.74,131.77,2
1225,22.33,-7.31,130.23,2
1226,22.34,0.76,-2.86,2
1227,22.36,-0.35,-55.78,2
1228,22.37,-4.34,6.16,2
1229,22.38,-21.79,-5.51,2
1230,22.4,-33.1,-105.62,2
1231,22.41,-19.7,-153.86,2
1232,22.42,3.26,-145.9,2
1233,22.44,20.27,-142.25,2
1234,22.45,23.4,-133.83,2
1235,22.46,3.46,-150.98,2
1236,22.48,-28.56,-176.23,2
1237,22.49,-43.49,-119.66,2
1238,22.5,-28.63,-54.64,2
1239,22.52,-0.12,-85.81,2
1240,22.53,18.05,-117.3,2
1241,22.55,18.73,-58.51,1
1242,22.56,15.6,4.06,1
1243,22.57,19.66,-10.73,1
1244,22.59,21.6,-54.18,1
1245,22.6,13.54,-65.89,1
1246,22.61,8.32,-48.65,1
1247,22.63,10.03,-31.14,1
1248,22.64,5.04,-37.62,1
1249,22.65,-2.61,-59.83,1
1250,22.67,-3.59,-63.88,1
1251,22.68,-6.81,-41.66,1
1252,22.69,-10.92,-11.95,1
1253,22.71,-0.7,8.83,1
1254,22.72,18.37,3.77,1
1255,22.73,23.5,-24.39,1
1256,22.75,10.44,-23.83,1
1257,22.76,-1.8,30.13,1
1258,22.77,-2.7,49.45,1
1259,22.79,5.44,-8.82,1
1260,22.8,19.82,-32.82,1
1261,22.81,24.22,21.75,1
1262,22.82,5.26,48.33,1
1263,22.84,-12.38,2.17,1
1264,22.85,1.01,-22.95,1
1265,22.86,24.18,22.36,1
1266,22.88,22.59,65.93,1
1267,22.89,14.51,72.52,1
1268,22.9,26.31,54.12,1
1269,22.92,29.9,10.66,1
1270,22.93,3.0,-5.7,1
1271,22.94,-15.07,11.1,1
1272,22.96,2.81,-12.1,1
1273,22.97,17.42,-30.82,1
1274,22.98,-0.7,25.82,1
1275,23.0,-21.57,58.01,1
1276,23.01,-17.3,0.3,1
1277,23.02,-2.82,-31.64,1
1278,23.04,0.85,22.89,1
1279,23.05,-1.62,59.15,1
1280,23.06,1.82,15.54,1
1281,23.08,3.26,-4.92,1
1282,23.09,-8.11,58.35,1
1283,23.1,-17.34,96.39,1
1284,23.12,-11.56,46.72,1
1285,23.13,-4.69,-7.6,1
1286,23.14,-5.46,-9.15,1
1287,23.16,-5.45,19.8,1
1288,23.17,-4.49,57.42,1
1289,23.19,-7.39,71.23,1
1290,23.2,-10.35,36.21,1
1291,23.21,-10.89,10.1,1
1292,23.23,-14.15,43.31,1
1293,23.24,-21.68,93.52,1
1294,23.25,-23.48,98.37,1
1295,23.27,-11.8,60.24,1
1296,23.28,1.94,39.78,1
1297,23.29,2.69,48.02,1
1298,23.31,-6.08,46.9,1
1299,23.32,-10.45,36.98,1
1300,23.33,-3.32,14.08,1
1301,23.35,6.32,-20.39,1
1302,23.36,4.71,-25.65,1
1303,23.37,-5.46,-8.48,1
1304,23.39,-11.42,8.21,1
1305,23.4,-9.97,37.22,1
1306,23.41,-15.19,46.24,1
1307,23.43,-28.08,8.13,1
1308,23.44,-17.05,-14.08,1
1309,23.45,18.2,13.09,1
1310,23.46,28.65,30.86,1
1311,23.48,5.29,5.21,1
1312,23.49,-12.27,-7.76,1
1313,23.5,-14.61,32.25,1
1314,23.52,-12.72,60.63,1
1315,23.53,-0.25,28.41,1
1316,23.54,13.4,-11.8,1
1317,23.56,11.98,-10.52,1
1318,23.57,7.03,24.53,1
1319,23.58,4.62,61.74,1
1320,23.6,-0.16,55.38,1
1321,23.61,4.7,3.07,1
1322,23.62,19.82,-33.21,1
1323,23.64,17.12,-30.6,1
1324,23.65,-8.65,-25.65,1
1325,23.67,-25.23,-19.42,1
1326,23.68,-18.77,7.18,1
1327,23.69,-6.6,16.57,1
1328,23.7,3.28,-27.25,1
1329,23.72,12.25,-63.09,1
1330,23.73,14.12,-18.44,1
1331,23.75,7.87,48.55,1
1332,23.76,2.73,37.7,1
1333,23.77,2.22,-24.3,1
1334,23.78,2.91,-44.73,1
1335,23.8,8.16,-1.39,1
1336,23.81,13.83,59.68,1
1337,23.83,3.12,78.78,1
1338,23.84,-13.33,33.03,1
1339,23.85,-10.85,-35.63,1
1340,23.87,2.86,-69.31,1
1341,23.88,6.89,-52.73,1
1342,23.89,3.53,-20.83,1
1343,23.91,8.02,-9.18,1
1344,23.92,12.61,7.73,1
1345,23.93,-1.27,34.07,1
1346,23.95,-17.67,-3.24,1
1347,23.96,-15.5,-81.71,1
1348,23.97,-11.68,-65.98,1
1349,23.99,-15.77,27.39,1
1350,24.0,-9.58,42.63,1
1351,24.01,8.49,-27.9,1
1352,24.03,22.31,-61.9,1
1353,24.04,20.26,-31.65,1
1354,24.05,4.05,-16.65,1
1355,24.07,-6.79,-49.93,1
1356,24.08,-3.7,-63.04,1
1357,24.09,2.59,-19.98,1
1358,24.1,11.3,16.55,1
1359,24.12,20.04,9.37,1
1360,24.13,14.7,-3.74,1
1361,24.14,2.37,5.56,1
1362,24.16,1.97,22.72,0
1363,24.17,1.68,17.26,0
1364,24.18,-13.23,-15.19,0
1365,24.2,-20.32,-40.5,0
1366,24.21,-5.21,-57.55,0
1367,24.22,11.81,-111.26,0
1368,24.24,17.92,-187.26,0
1369,24.25,18.24,-216.53,0
1370,24.26,22.03,-197.84,0
1371,24.28,28.72,-178.35,0
1372,24.29,17.44,-157.65,0
1373,24.3,-7.25,-102.86,0
1374,24.32,-5.26,-17.64,0
1375,24.33,13.62,50.87,0
1376,24.34,3.73,76.07,0
1377,24.36,-21.17,80.3,0
1378,24.37,-23.61,80.2,0
1379,24.38,-11.75,74.09,0
1380,24.4,-2.54,72.19,0
1381,24.41,5.42,78.85,0
1382,24.42,7.56,80.77,0
1383,24.44,0.47,68.0,0
1384,24.45,-5.66,52.2,0
1385,24.46,-3.34,54.78,0
1386,24.48,-2.05,64.76,0
1387,24.49,-9.01,53.62,0
1388,24.51,-12.53,30.84,0
1389,24.52,-11.33,24.15,0
1390,24.53,-15.61,33.94,0
1391,24.55,-13.32,47.52,1
1392,24.56,-1.84,56.79,1
1393,24.57,-3.26,57.59,1
1394,24.59,-8.85,54.84,1
1395,24.6,8.27,55.66,1
1396,24.61,25.35,56.85,1
1397,24.63,8.5,51.67,1
1398,24.64,-14.52,42.54,1
1399,24.65,-8.83,36.47,1
1400,24.67,1.89,34.91,1
1401,24.68,-5.42,36.15,1
1402,24.69,-10.14,34.59,1
1403,24.71,-1.24,23.44,1
1404,24.72,3.87,5.71,1
1405,24.73,-0.44,-5.58,1
1406,24.75,-1.59,-0.58,1
1407,24.76,0.61,15.24,1
1408,24.77,-3.19,27.49,1
1409,24.78,-5.62,29.55,1
1410,24.8,0.04,23.49,1
1411,24.81,1.2,12.94,1
1412,24.82,-3.23,1.14,1
1413,24.84,-1.3,-7.05,1
1414,24.85,-0.36,-7.89,1
1415,24.86,-8.02,-2.58,1
1416,24.88,-10.58,1.74,1
1417,24.89,-0.49,-2.57,1
1418,24.9,11.58,-9.13,1
1419,24.92,11.1,-9.06,1
1420,24.93,-3.26,-10.73,1
1421,24.94,-14.7,-19.86,1
1422,24.96,-10.52,-24.37,1
1423,24.97,3.9,-20.46,1
1424,24.98,14.84,-18.4,1
1425,25.0,13.23,-17.58,1
1426,25.01,5.05,-15.48,1
1427,25.02,3.17,-14.97,1
1428,25.04,9.16,-12.91,1
1429,25.05,10.2,-11.49,1
1430,25.06,-1.25,-16.42,1
1431,25.08,-10.84,-19.46,1
1432,25.09,-6.31,-11.71,1
1433,25.1,-0.59,-1.19,1
1434,25.12,-4.39,-3.09,1
1435,25.13,-6.23,-16.03,1
1436,25.15,3.85,-21.2,1
1437,25.16,13.8,-14.96,1
1438,25.17,7.2,-15.07,1
1439,25.19,-10.05,-23.88,1
1440,25.2,-13.54,-26.29,1
1441,25.21,4.48,-25.92,1
1442,25.23,16.18,-34.07,1
1443,25.24,1.25,-41.19,1
1444,25.25,-14.84,-38.41,1
1445,25.27,-5.05,-32.46,1
1446,25.28,9.52,-27.69,1
1447,25.29,2.15,-20.91,1
1448,25.31,-7.68,-12.08,1
1449,25.32,-0.35,-9.84,1
1450,25.33,5.06,-18.79,1
1451,25.35,-1.16,-24.59,1
1452,25.36,-1.57,-16.15,1
1453,25.37,5.81,-5.65,1
1454,25.38,8.21,-3.55,1
1455,25.4,6.15,-4.83,1
1456,25.41,4.45,-8.19,1
1457,25.42,4.49,-15.08,1
1458,25.44,5.08,-16.84,1
1459,25.45,2.07,-9.19,1
1460,25.46,-2.31,-0.95,1
1461,25.48,-4.68,-0.61,1
1462,25.49,-7.0,-7.46,1
1463,25.5,-4.92,-11.89,1
1464,25.52,4.6,-9.5,1
1465,25.53,11.36,-6.58,1
1466,25.54,5.91,-2.49,1
1467,25.56,-5.69,3.91,1
1468,25.57,-6.14,-0.46,1
1469,25.58,9.78,-15.8,1
1470,25.6,20.85,-19.36,1
1471,25.61,13.73,-6.35,1
1472,25.62,2.61,1.07,1
1473,25.64,-2.91,-5.12,1
1474,25.65,-8.99,-10.98,1
1475,25.67,-16.48,-8.51,1
1476,25.68,-14.41,-1.73,1
1477,25.69,-3.37,1.25,1
1478,25.7,-2.16,-5.34,1
1479,25.72,-8.8,-12.79,1
1480,25.73,0.99,-8.93,1
1481,25.75,14.11,1.06,1
1482,25.76,-0.66,4.05,1
1483,25.77,-18.73,-0.05,1
1484,25.79,-7.37,-1.21,1
1485,25.8,9.28,5.21,1
1486,25.81,8.93,10.84,1
1487,25.83,6.3,5.57,1
1488,25.84,8.05,-2.15,1
1489,25.85,4.6,2.19,1
1490,25.87,-1.99,11.38,1
1491,25.88,-1.29,12.57,1
1492,25.89,3.71,7.41,1
1493,25.91,2.23,-0.51,1
1494,25.92,-6.27,-7.56,1
1495,25.93,-11.3,-6.26,1
1496,25.95,0.12,2.89,1
1497,25.96,20.43,8.56,1
1498,25.97,20.22,6.55,1
1499,25.99,-2.4,7.15,1
1500,26.0,-15.54,13.25,1
1501,26.01,-10.38,14.28,1
1502,26.02,-1.92,12.78,1
1503,26.04,7.29,17.86,1
1504,26.05,11.2,20.95,1
1505,26.06,-0.34,14.77,1
1506,26.08,-11.91,8.22,1
1507,26.09,-8.03,8.4,1
1508,26.1,1.34,15.09,1
1509,26.12,5.1,23.49,1
1510,26.13,3.36,25.26,1
1511,26.14,0.99,12.39,1
1512,26.16,1.02,-27.1,0
1513,26.17,3.18,-85.28,0
1514,26.18,10.46,-117.62,0
1515,26.2,18.9,-114.27,0
1516,26.21,11.24,-125.25,0
1517,26.22,-6.84,-160.79,0
1518,26.24,-4.59,-172.79,0
1519,26.25,16.93,-145.26,0
1520,26.26,26.43,-105.98,0
1521,26.28,18.02,-73.43,0
1522,26.29,7.28,-47.47,0
1523,26.3,-3.78,-22.72,0
1524,26.32,-14.51,6.11,0
1525,26.33,-16.71,33.01,0
1526,26.34,-17.65,49.67,0
1527,26.36,-24.72,68.8,0
1528,26.37,-25.53,98.34,0
1529,26.38,-18.15,116.57,0
1530,26.4,-14.74,114.29,0
1531,26.41,-13.35,115.52,0
1532,26.43,-10.47,133.14,0
1533,26.44,-11.8,147.12,0
1534,26.45,-15.25,138.53,0
1535,26.47,-14.87,121.41,0
1536,26.48,-8.68,120.73,0
1537,26.49,-2.0,132.59,0
1538,26.51,-1.89,139.11,0
1539,26.52,-3.35,135.83,0
1540,26.53,-0.95,121.16,0
1541,26.55,3.67,100.25,1
1542,26.56,7.23,91.57,1
1543,26.57,5.57,96.62,1
1544,26.59,3.7,95.15,1
1545,26.6,5.39,85.99,1
1546,26.61,3.98,80.83,1
1547,26.63,1.11,70.77,1
1548,26.64,0.45,53.42,1
1549,26.65,-3.5,44.78,1
1550,26.67,-9.14,41.78,1
1551,26.68,-7.62,31.31,1
1552,26.69,-2.26,20.59,1
1553,26.7,-4.09,19.01,1
1554,26.72,-8.2,17.03,1
1555,26.73,-5.29,2.66,1
1556,26.75,-2.25,-14.51,1
1557,26.76,-3.45,-17.42,1
1558,26.77,-3.08,-11.06,1
1559,26.78,-3.43,-12.93,1
1560,26.8,-5.61,-25.47,1
1561,26.81,-3.15,-34.3,1
1562,26.82,2.42,-33.37,1
1563,26.84,3.79,-33.53,1
1564,26.85,-0.45,-40.71,1
1565,26.86,-3.49,-47.14,1
1566,26.88,1.56,-49.21,1
1567,26.89,9.36,-51.09,1
1568,26.9,8.97,-49.11,1
1569,26.92,1.13,-40.97,1
1570,26.93,-4.52,-38.28,1
1571,26.94,-3.84,-44.75,1
1572,26.96,0.01,-50.1,1
1573,26.97,1.43,-52.5,1
1574,26.98,1.12,-57.25,1
1575,27.0,4.13,-61.11,1
1576,27.01,9.07,-59.2,1
1577,27.02,14.06,-54.36,1
1578,27.04,19.13,-51.04,1
1579,27.05,20.63,-50.06,1
1580,27.065,17.64,-51.56,1
1581,27.08,15.12,-53.3,1
1582,27.09,12.25,-50.48,1
1583,27.11,1.56,-45.66,1
1584,27.12,-12.52,-41.69,1
1585,27.13,-13.89,-36.45,1
1586,27.15,-2.82,-38.64,1
1587,27.16,5.54,-49.74,1
1588,27.17,9.41,-51.28,1
1589,27.19,14.27,-43.38,1
1590,27.2,15.93,-42.34,1
1591,27.21,12.6,-45.55,1
1592,27.23,7.98,-44.47,1
1593,27.24,0.36,-41.29,1
1594,27.25,-6.12,-37.13,1
1595,27.27,-2.52,-31.32,1
1596,27.28,3.39,-28.92,1
1597,27.29,1.79,-32.16,1
1598,27.3,0.4,-33.3,1
1599,27.32,2.7,-29.69,1
1600,27.33,0.84,-31.42,1
1601,27.34,-6.69,-37.73,1
1602,27.36,-13.16,-34.07,1
1603,27.37,-10.07,-22.55,1
1604,27.38,1.23,-18.47,1
1605,27.4,6.9,-20.84,1
1606,27.41,3.07,-19.63,1
1607,27.42,0.69,-15.0,1
1608,27.44,2.8,-9.06,1
1609,27.45,0.39,-3.43,1
1610,27.46,-4.5,-4.36,1
1611,27.48,-0.49,-9.02,1
1612,27.49,5.47,-7.48,1
1613,27.5,-0.24,-4.82,1
1614,27.52,-6.71,-8.48,1
1615,27.53,1.94,-9.4,1
1616,27.54,15.41,-3.76,1
1617,27.56,11.1,-0.85,1
1618,27.57,-9.03,-1.26,1
1619,27.58,-16.75,1.38,1
1620,27.6,-1.9,6.6,1
1621,27.61,10.54,8.39,1
1622,27.62,6.83,5.72,1
1623,27.64,0.65,5.65,1
1624,27.65,-3.86,9.09,1
1625,27.67,-8.89,8.68,1
1626,27.68,-5.25,6.72,1
1627,27.69,1.91,9.66,1
1628,27.7,1.54,14.93,1
1629,27.72,3.24,17.58,1
1630,27.73,7.32,16.05,1
1631,27.75,2.76,13.26,1
1632,27.76,-3.16,13.59,1
1633,27.77,-4.96,17.89,1
1634,27.79,-4.82,20.56,1
1635,27.8,1.26,16.92,1
1636,27.81,5.97,16.21,1
1637,27.83,0.33,23.15,1
1638,27.84,-2.19,23.93,1
1639,27.85,5.36,16.86,1
1640,27.87,4.86,15.04,1
1641,27.88,-8.51,18.41,1
1642,27.89,-11.7,16.89,1
1643,27.91,0.35,12.45,1
1644,27.92,6.41,17.79,1
1645,27.93,3.08,29.17,1
1646,27.94,3.94,30.66,1
1647,27.96,7.77,22.27,1
1648,27.97,6.09,17.56,1
1649,27.98,2.14,23.6,1
1650,28.0,-1.03,29.53,1
1651,28.01,-6.8,23.45,1
1652,28.02,-10.56,15.38,1
1653,28.04,-6.44,17.85,1
1654,28.05,-1.74,21.53,1
1655,28.06,-5.54,16.46,1
1656,28.08,-12.95,14.08,1
1657,28.09,-13.84,23.47,1
1658,28.1,-9.48,26.66,1
1659,28.12,-5.4,15.73,1
1660,28.13,-0.84,14.01,1
1661,28.14,1.86,24.23,1
1662,28.16,0.67,24.91,2
1663,28.17,1.51,16.83,2
1664,28.18,5.13,10.01,2
1665,28.2,6.88,5.72,2
1666,28.21,4.07,11.43,2
1667,28.22,0.4,44.81,2
1668,28.24,6.5,122.91,2
1669,28.25,18.83,231.3,2
1670,28.26,20.6,318.19,2
1671,28.28,9.19,344.6,2
1672,28.29,-5.21,309.36,2
1673,28.3,-14.52,235.31,2
1674,28.32,-22.25,156.33,2
1675,28.33,-38.17,89.67,2
1676,28.34,-56.28,21.04,2
1677,28.36,-64.05,-62.35,2
1678,28.37,-57.85,-145.21,2
1679,28.39,-36.49,-199.87,2
1680,28.4,-9.59,-212.84,2
1681,28.41,6.87,-197.83,2
1682,28.43,13.01,-185.96,2
1683,28.44,14.52,-190.32,2
1684,28.45,12.85,-191.88,2
1685,28.47,17.82,-173.64,2
1686,28.48,29.92,-150.0,2
1687,28.49,23.7,-138.04,2
1688,28.51,1.31,-126.15,2
1689,28.52,7.1,-99.62,2
1690,28.53,47.4,-73.75,2
1691,28.55,71.25,-71.21,1
1692,28.56,50.52,-87.13,1
1693,28.57,16.91,-97.65,1
1694,28.58,7.54,-90.4,1
1695,28.6,14.58,-76.22,1
1696,28.61,11.21,-66.8,1
1697,28.62,-3.25,-60.75,1
1698,28.64,-9.68,-55.83,1
1699,28.65,-4.32,-48.75,1
1700,28.67,-0.88,-35.46,1
1701,28.68,-4.85,-22.23,1
1702,28.69,-6.59,-16.78,1
1703,28.7,2.16,-11.97,1
1704,28.72,11.46,-1.87,1
1705,28.73,1.57,0.86,1
1706,28.75,-20.45,-6.78,1
1707,28.76,-24.32,-7.55,1
1708,28.77,-8.28,2.28,1
1709,28.78,-2.37,10.87,1
1710,28.8,-11.27,15.95,1
1711,28.81,-10.63,21.51,1
1712,28.82,0.33,23.24,1
1713,28.84,2.45,17.87,1
1714,28.85,-2.31,15.98,1
1715,28.86,-3.14,26.37,1
1716,28.88,-1.13,37.3,1
1717,28.89,2.55,36.33,1
1718,28.9,5.73,32.36,1
1719,28.92,3.67,34.51,1
1720,28.93,-0.7,36.08,1
1721,28.94,-1.56,35.24,1
1722,28.96,2.49,36.66,1
1723,28.97,8.68,39.03,1
1724,28.98,10.99,43.79,1
1725,29.0,8.33,47.01,1
1726,29.01,1.17,39.27,1
1727,29.03,-10.89,28.49,1
1728,29.04,-18.91,26.79,1
1729,29.05,-10.09,30.79,1
1730,29.07,8.04,34.11,1
1731,29.08,8.67,34.62,1
1732,29.09,-8.71,32.33,1
1733,29.11,-13.67,30.55,1
1734,29.12,-2.26,31.37,1
1735,29.13,0.24,34.52,1
1736,29.15,-6.59,35.47,1
1737,29.16,0.24,28.99,1
1738,29.17,15.05,22.17,1
1739,29.19,7.19,24.63,1
1740,29.2,-16.56,30.35,1
1741,29.21,-20.69,29.41,1
1742,29.22,-5.27,26.63,1
1743,29.24,5.49,30.17,1
1744,29.25,6.23,33.99,1
1745,29.26,3.12,32.19,1
1746,29.28,-2.5,32.24,1
1747,29.29,-7.25,37.91,1
1748,29.3,-7.15,39.32,1
1749,29.32,-5.98,27.36,1
1750,29.33,-6.03,9.94,1
1751,29.34,-2.03,2.13,1
1752,29.36,6.51,6.37,1
1753,29.37,12.58,14.91,1
1754,29.38,13.35,20.03,1
1755,29.4,8.61,22.33,1
1756,29.41,0.53,26.97,1
1757,29.42,-4.24,29.01,1
1758,29.44,-4.05,22.21,1
1759,29.45,-0.91,8.43,1
1760,29.46,2.56,-6.1,1
1761,29.48,2.52,-6.39,1
1762,29.49,-0.71,12.5,1
1763,29.5,-3.84,23.47,1
1764,29.52,-3.68,9.59,1
1765,29.53,0.88,-3.62,1
1766,29.54,6.28,-0.33,1
1767,29.56,7.87,0.54,1
1768,29.57,4.4,-8.05,1
1769,29.58,-1.47,-13.23,1
1770,29.6,-6.32,-10.77,1
1771,29.61,-8.6,-5.74,1
1772,29.62,-8.07,-0.94,1
1773,29.64,-5.43,5.33,1
1774,29.65,-4.91,7.84,1
1775,29.67,-6.94,-4.39,1
1776,29.68,-3.98,-19.31,1
1777,29.69,3.23,-13.86,1
1778,29.71,4.28,-0.65,1
1779,29.72,-1.64,-5.31,1
1780,29.73,-8.51,-16.78,1
1781,29.75,-12.18,-15.57,1
1782,29.76,-9.6,-8.7,1
1783,29.77,-0.01,-4.16,1
1784,29.79,8.6,-1.0,1
1785,29.8,6.73,-4.12,1
1786,29.81,2.36,-12.26,1
1787,29.83,7.04,-15.51,1
1788,29.84,10.98,-15.26,1
1789,29.85,5.81,-13.98,1
1790,29.86,0.92,-7.94,1
1791,29.88,-3.49,-6.51,1
1792,29.89,-12.31,-17.68,1
1793,29.9,-15.25,-24.06,1
1794,29.92,-4.6,-14.27,1
1795,29.93,10.1,-4.76,1
1796,29.94,16.08,-7.02,1
1797,29.96,11.57,-14.18,1
1798,29.97,3.81,-19.75,1
1799,29.98,-2.13,-22.55,1
1800,30.0,-4.67,-23.72,1
1801,30.01,-1.65,-23.54,1
1802,30.02,3.69,-16.82,1
1803,30.04,5.04,-5.62,1
1804,30.05,1.31,-0.88,1
1805,30.06,-3.31,-3.87,1
1806,30.08,-1.96,-8.21,1
1807,30.09,5.97,-13.3,1
1808,30.1,11.43,-20.69,1
1809,30.12,9.95,-22.87,1
1810,30.13,4.59,-17.54,1
1811,30.14,-0.55,-24.1,1
1812,30.16,-1.72,-43.69,2
1813,30.17,-1.22,-36.73,2
1814,30.18,-3.89,-2.2,2
1815,30.2,-2.35,23.47,2
1816,30.21,14.08,73.8,2
1817,30.22,34.49,148.68,2
1818,30.24,43.68,95.01,2
1819,30.25,35.63,-80.28,2
1820,30.26,-1.41,-80.37,2
1821,30.28,-45.07,115.84,2
1822,30.29,-37.34,195.65,2
1823,30.3,6.9,121.01,2
1824,30.32,12.84,50.83,2
1825,30.33,-10.71,20.96,2
1826,30.35,-4.83,33.58,2
1827,30.36,14.56,65.15,2
1828,30.37,12.93,19.59,2
1829,30.39,-0.36,-140.09,2
1830,30.4,-14.99,-224.83,2
1831,30.41,-22.21,-71.95,2
1832,30.43,-16.3,99.09,2
1833,30.44,-8.32,33.52,2
1834,30.45,-7.16,-132.66,2
1835,30.47,-21.28,-138.54,2
1836,30.48,-35.95,-16.94,2
1837,30.49,-10.02,7.71,2
1838,30.5,34.1,-85.28,2
1839,30.52,30.27,-135.05,2
1840,30.53,-6.49,-92.37,2
1841,30.54,-12.14,-21.22,2
1842,30.56,13.37,-9.49,1
1843,30.57,15.23,-83.6,1
1844,30.58,-16.67,-111.8,1
1845,30.6,-28.89,-37.56,1
1846,30.61,-7.4,-6.91,1
1847,30.62,4.51,-56.71,1
1848,30.64,-3.39,-86.17,1
1849,30.65,-4.51,-82.61,1
1850,30.67,-2.65,-60.14,1
1851,30.68,-13.35,-6.5,1
1852,30.69,-15.73,32.1,1
1853,30.7,-1.25,11.71,1
1854,30.72,1.91,-9.74,1
1855,30.73,-7.1,22.87,1
1856,30.75,-7.03,46.97,1
1857,30.76,1.76,6.34,1
1858,30.77,8.85,-64.18,1
1859,30.78,1.2,-94.89,1
1860,30.8,-15.78,-51.41,1
1861,30.81,-11.33,5.96,1
1862,30.82,6.12,23.56,1
1863,30.84,2.22,21.92,1
1864,30.85,-1.95,11.33,1
1865,30.86,15.64,0.48,1
1866,30.88,18.42,-2.98,1
1867,30.89,-6.77,-12.51,1
1868,30.9,-20.42,-5.7,1
1869,30.92,-9.3,36.6,1
1870,30.93,5.95,73.85,1
1871,30.94,10.42,66.61,1
1872,30.96,0.49,33.04,1
1873,30.97,-9.65,12.22,1
1874,30.99,-4.76,-0.73,1
1875,31.0,4.51,-8.4,1
1876,31.01,9.24,19.42,1
1877,31.03,16.18,36.73,1
1878,31.04,17.07,-5.77,1
1879,31.05,4.25,-15.99,1
1880,31.07,0.68,44.57,1
1881,31.08,19.48,60.35,1
1882,31.09,27.54,7.76,1
1883,31.11,6.77,-18.8,1
1884,31.12,-0.99,-9.72,1
1885,31.13,17.23,-20.79,1
1886,31.14,14.4,-38.91,1
1887,31.16,-12.25,-13.32,1
1888,31.17,-21.0,48.33,1
1889,31.18,-5.97,82.62,1
1890,31.2,12.51,55.03,1
1891,31.21,21.03,12.45,1
1892,31.22,16.47,21.61,1
1893,31.24,6.99,69.77,1
1894,31.25,3.2,65.23,1
1895,31.26,3.39,-5.21,1
1896,31.28,-1.9,-25.12,1
1897,31.29,-9.25,29.6,1
1898,31.3,-3.35,38.78,1
1899,31.32,9.31,-17.67,1
1900,31.33,4.6,-24.02,1
1901,31.34,-11.82,38.22,1
1902,31.36,-14.47,71.35,1
1903,31.37,-4.63,42.97,1
1904,31.38,-2.06,-6.21,1
1905,31.4,-3.18,-20.18,1
1906,31.41,7.29,15.62,1
1907,31.42,12.37,26.51,1
1908,31.44,-3.35,11.37,1
1909,31.45,-14.31,53.93,1
1910,31.46,-3.99,94.14,1
1911,31.48,4.76,41.53,1
1912,31.49,-3.89,-19.8,1
1913,31.5,-10.42,-17.12,1
1914,31.52,-3.08,-8.74,1
1915,31.53,-0.48,-29.29,1
1916,31.54,-9.66,-41.28,1
1917,31.56,-16.88,-12.65,1
1918,31.57,-9.54,46.35,1
1919,31.58,16.63,84.89,1
1920,31.6,37.84,67.39,1
1921,31.61,27.05,28.93,1
1922,31.63,2.02,10.69,1
1923,31.64,-8.25,-3.95,1
1924,31.65,-8.32,-10.19,1
1925,31.67,-10.06,21.41,1
1926,31.68,-7.01,43.46,1
1927,31.69,3.52,8.42,1
1928,31.71,9.1,-30.44,1
1929,31.72,4.18,-19.27,1
1930,31.73,-2.35,17.53,1
1931,31.75,-2.82,28.92,1
1932,31.76,-5.13,5.66,1
1933,31.77,-11.29,-10.33,1
1934,31.78,-10.68,10.71,1
1935,31.8,-6.2,52.22,1
1936,31.81,-3.37,67.08,1
1937,31.82,-0.37,21.62,1
1938,31.84,2.47,-41.27,1
1939,31.85,6.53,-44.94,1
1940,31.86,12.84,2.18,1
1941,31.88,14.11,15.26,1
1942,31.89,7.51,-20.66,1
1943,31.9,7.25,-31.41,1
1944,31.92,16.77,-10.93,1
1945,31.93,13.41,-9.83,1
1946,31.94,-6.75,-13.7,1
1947,31.96,-14.53,-1.89,1
1948,31.97,-1.83,10.72,1
1949,31.98,6.37,20.24,1
1950,32.0,2.61,20.15,1
1951,32.01,-4.23,16.61,1
1952,32.03,-13.28,32.54,1
1953,32.04,-15.66,38.38,1
1954,32.05,-3.56,-7.73,1
1955,32.06,5.35,-56.96,1
1956,32.08,-5.13,-50.29,1
1957,32.09,-19.64,-26.52,1
1958,32.11,-15.72,-42.81,1
1959,32.12,-3.21,-74.24,1
1960,32.13,-6.08,-68.17,1
1961,32.15,-15.51,-29.17,1
1962,32.16,-10.56,9.09,0
1963,32.17,-1.58,20.48,0
1964,32.19,0.28,7.76,0
1965,32.2,9.74,9.26,0
1966,32.21,21.29,25.54,0
1967,32.22,13.02,13.1,0
1968,32.24,-0.14,-26.21,0
1969,32.25,4.16,-38.8,0
1970,32.27,12.04,-11.21,0
1971,32.28,7.22,11.33,0
1972,32.29,1.75,8.37,0
1973,32.31,9.42,5.68,0
1974,32.32,15.18,22.72,0
1975,32.33,2.51,50.2,0
1976,32.35,-9.14,56.9,0
1977,32.36,-4.8,9.99,0
1978,32.37,-5.36,-80.13,0
1979,32.39,-12.27,-171.88,0
1980,32.4,-7.6,-248.38,0
1981,32.41,-5.31,-300.05,0
1982,32.43,-20.93,-303.64,0
1983,32.44,-37.91,-257.99,0
1984,32.45,-40.39,-190.04,0
1985,32.47,-34.48,-121.72,0
1986,32.48,-28.65,-56.32,0
1987,32.49,-21.37,4.9,0
1988,32.51,-11.73,48.73,0
1989,32.52,-0.47,69.82,0
1990,32.53,8.83,83.99,0
1991,32.54,8.48,101.42,0
1992,32.56,4.19,112.7,1
1993,32.57,7.36,113.82,1
1994,32.59,12.49,111.86,1
1995,32.6,12.23,111.16,1
1996,32.61,12.1,114.2,1
1997,32.63,11.8,114.59,1
1998,32.64,7.46,99.75,1
1999,32.65,9.27,81.34,1
2000,32.67,19.57,82.07,1
2001,32.68,19.65,92.94,1
2002,32.69,5.97,87.72,1
2003,32.71,-4.62,68.49,1
2004,32.72,-8.96,59.9,1
2005,32.73,-11.53,64.66,1
2006,32.75,-7.82,64.5,1
2007,32.76,2.17,55.41,1
2008,32.77,8.45,45.58,1
2009,32.79,5.83,42.39,1
2010,32.8,2.03,46.88,1
2011,32.81,6.09,46.08,1
2012,32.83,13.27,33.28,1
2013,32.84,10.17,22.66,1
2014,32.85,-1.22,22.37,1
2015,32.87,0.3,22.64,1
2016,32.88,15.21,17.62,1
2017,32.89,13.76,12.32,1
2018,32.9,-3.8,11.31,1
2019,32.92,-5.96,12.42,1
2020,32.93,5.14,10.59,1
2021,32.95,6.89,8.24,1
2022,32.96,2.88,11.33,1
2023,32.97,2.78,11.53,1
2024,32.99,0.92,0.09,1
2025,33.0,-5.38,-11.32,1
2026,33.01,-9.01,-14.2,1
2027,33.03,-4.2,-10.9,1
2028,33.04,5.16,-4.96,1
2029,33.05,6.6,-7.53,1
2030,33.06,-1.61,-18.66,1
2031,33.08,-2.92,-21.73,1
2032,33.09,10.77,-16.3,1
2033,33.11,20.85,-17.34,1
2034,33.12,12.78,-25.39,1
2035,33.13,-0.04,-28.25,1
2036,33.15,-2.4,-25.05,1
2037,33.16,2.26,-25.9,1
2038,33.17,4.14,-31.2,1
2039,33.19,1.55,-30.82,1
2040,33.2,2.1,-27.83,1
2041,33.21,8.66,-31.65,1
2042,33.22,11.51,-33.07,1
2043,33.24,7.53,-29.75,1
2044,33.25,4.97,-31.34,1
2045,33.27,2.01,-25.83,1
2046,33.28,-6.99,-15.32,1
2047,33.29,-12.1,-27.46,1
2048,33.31,-6.1,-46.45,1
2049,33.32,0.76,-38.31,1
2050,33.33,2.4,-21.84,1
2051,33.35,1.12,-24.74,1
2052,33.36,-5.63,-29.99,1
2053,33.37,-10.72,-20.25,1
2054,33.38,-2.04,-13.67,1
2055,33.4,9.47,-23.3,1
2056,33.41,9.11,-31.45,1
2057,33.43,3.87,-24.65,1
2058,33.44,-0.25,-16.14,1
2059,33.45,-6.05,-22.21,1
2060,33.47,-9.92,-31.56,1
2061,33.48,-5.96,-24.64,1
2062,33.49,4.2,-11.78,1
2063,33.51,9.66,-13.0,1
2064,33.52,2.79,-21.51,1
2065,33.53,-4.41,-18.49,1
2066,33.54,-0.88,-6.91,1
2067,33.56,2.23,-6.7,1
2068,33.57,-3.98,-15.02,1
2069,33.59,-6.74,-10.74,1
2070,33.6,-2.16,2.67,1
2071,33.61,-7.15,8.61,1
2072,33.63,-19.94,8.94,1
2073,33.64,-14.99,6.59,1
2074,33.65,7.45,-5.45,1
2075,33.67,16.45,-17.28,1
2076,33.68,0.76,-14.72,1
2077,33.69,-15.85,-8.01,1
2078,33.71,-14.73,-7.11,1
2079,33.72,-9.19,-8.73,1
2080,33.73,-12.4,-13.57,1
2081,33.75,-12.14,-19.2,1
2082,33.76,-3.37,-15.44,1
2083,33.77,2.27,-3.19,1
2084,33.79,2.29,4.26,1
2085,33.8,0.58,4.03,1
2086,33.81,-1.07,4.58,1
2087,33.83,-0.67,3.86,1
2088,33.84,-0.97,-2.05,1
2089,33.85,-2.79,-5.86,1
2090,33.87,-2.55,-4.2,1
2091,33.88,-2.37,-1.84,1
2092,33.89,-5.73,0.09,1
2093,33.9,-7.5,3.0,1
2094,33.92,-3.46,5.81,1
2095,33.93,2.59,9.22,1
2096,33.95,6.67,13.1,1
2097,33.96,4.08,10.2,1
2098,33.97,-5.75,0.74,1
2099,33.99,-11.02,-2.5,1
2100,34.0,-4.85,4.58,1
2101,34.01,2.35,10.89,1
2102,34.03,6.35,12.01,1
2103,34.04,13.73,15.77,1
2104,34.05,15.1,21.83,1
2105,34.06,-0.97,21.14,1
2106,34.08,-16.26,10.9,1
2107,34.09,-7.5,-0.85,1
2108,34.11,15.26,-4.52,1
2109,34.12,20.89,-0.41,1
2110,34.13,-0.19,6.69,1
2111,34.15,-20.03,12.96,1
2112,34.16,-13.6,13.38,0
2113,34.17,3.15,7.38,0
2114,34.19,2.61,1.18,0
2115,34.2,-7.71,-12.62,0
2116,34.21,2.81,-51.65,0
2117,34.23,25.65,-98.98,0
2118,34.24,19.38,-114.64,0
2119,34.25,-1.37,-107.26,0
2120,34.27,9.81,-118.4,0
2121,34.28,27.19,-140.44,0
2122,34.29,10.27,-139.43,0
2123,34.31,-10.05,-127.17,0
2124,34.32,-2.77,-120.55,0
2125,34.33,12.67,-96.9,0
2126,34.35,13.62,-51.06,0
2127,34.36,0.23,-12.75,0
2128,34.37,-9.75,10.78,0
2129,34.38,-3.0,37.82,0
2130,34.4,12.74,64.65,0
2131,34.41,21.6,78.46,0
2132,34.43,13.21,95.59,0
2133,34.44,-4.38,126.53,0
2134,34.45,-9.21,144.93,0
2135,34.47,-6.69,139.51,0
2136,34.48,-17.1,141.79,0
2137,34.49,-22.11,167.04,0
2138,34.51,-5.05,188.98,0
2139,34.52,3.25,187.85,0
2140,34.53,-11.12,172.26,0
2141,34.54,-19.09,156.56,0
2142,34.56,-6.31,145.21,1
2143,34.57,9.49,135.34,1
2144,34.59,9.2,124.77,1
2145,34.6,-7.29,111.3,1
2146,34.61,-19.26,90.91,1
2147,34.63,-11.8,72.07,1
2148,34.64,-4.33,69.94,1
2149,34.65,-14.42,75.91,1
2150,34.67,-19.33,68.18,1
2151,34.68,-1.03,47.61,1
2152,34.69,17.8,31.32,1
2153,34.71,14.78,23.71,1
2154,34.72,-1.83,15.47,1
2155,34.73,-12.78,7.29,1
2156,34.75,-9.8,8.84,1
2157,34.76,-1.27,14.7,1
2158,34.77,0.78,7.52,1
2159,34.79,-4.8,-11.55,1
2160,34.8,-10.73,-22.79,1
2161,34.81,-8.17,-24.47,1
2162,34.83,3.97,-28.63,1
2163,34.84,10.02,-28.2,1
2164,34.85,0.71,-19.17,1
2165,34.87,-3.48,-20.03,1
2166,34.88,6.72,-35.38,1
2167,34.89,7.88,-48.56,1
2168,34.91,-5.51,-50.13,1
2169,34.92,-8.36,-44.68,1
2170,34.93,5.15,-42.96,1
2171,34.95,12.29,-52.4,1
2172,34.96,3.69,-63.15,1
2173,34.97,-4.65,-60.38,1
2174,34.99,-1.78,-52.0,1
2175,35.0,5.49,-51.94,1
2176,35.01,9.1,-53.15,1
2177,35.03,5.9,-46.68,1
2178,35.04,-2.29,-41.78,1
2179,35.05,-6.15,-47.68,1
2180,35.06,-0.95,-56.79,1
2181,35.08,8.29,-58.34,1
2182,35.09,14.13,-54.72,1
2183,35.11,12.64,-51.49,1
2184,35.12,8.3,-49.87,1
2185,35.13,7.02,-52.55,1
2186,35.15,7.86,-56.5,1
2187,35.16,11.87,-54.98,1
2188,35.17,21.4,-48.74,1
2189,35.19,25.35,-40.59,1
2190,35.2,8.95,-35.72,1
2191,35.21,-13.5,-38.06,1
2192,35.22,-12.36,-41.66,1
2193,35.24,5.52,-46.99,1
2194,35.25,8.53,-53.74,1
2195,35.27,0.86,-46.9,1
2196,35.28,1.34,-32.34,1
2197,35.29,-0.89,-31.18,1
2198,35.31,-7.8,-33.25,1
2199,35.32,-6.35,-23.86,1
2200,35.33,-7.94,-21.04,1
2201,35.35,-15.25,-34.73,1
2202,35.36,-9.97,-40.34,1
2203,35.37,1.23,-24.17,1
2204,35.38,2.12,-9.91,1
2205,35.4,0.01,-14.77,1
2206,35.41,2.12,-22.0,1
2207,35.43,0.57,-16.07,1
2208,35.44,-4.03,-6.51,1
2209,35.45,-0.54,-8.23,1
2210,35.47,5.93,-16.29,1
2211,35.48,1.91,-11.28,1
2212,35.49,-5.89,1.27,1
2213,35.51,-3.75,-3.84,1
2214,35.52,-0.9,-19.13,1
2215,35.53,-9.56,-19.02,1
2216,35.55,-15.14,-8.32,1
2217,35.56,-7.1,-1.94,1
2218,35.57,0.16,3.69,1
2219,35.59,4.14,8.79,1
2220,35.6,9.65,-0.15,1
2221,35.61,7.32,-16.37,1
2222,35.63,2.95,-12.88,1
2223,35.64,11.58,10.66,1
2224,35.65,19.75,28.83,1
2225,35.67,13.69,25.68,1
2226,35.68,6.91,8.54,1
2227,35.69,7.8,-2.99,1
2228,35.71,8.56,-3.89,1
2229,35.72,3.4,-0.67,1
2230,35.73,-6.19,6.65,1
2231,35.75,-9.58,14.44,1
2232,35.76,-2.82,14.82,1
2233,35.77,0.87,12.87,1
2234,35.79,-2.15,16.38,1
2235,35.8,-3.2,19.05,1
2236,35.81,-5.46,12.65,1
2237,35.83,-14.89,4.82,1
2238,35.84,-20.7,7.78,1
2239,35.85,-7.85,17.79,1
2240,35.87,10.55,26.46,1
2241,35.88,3.97,32.54,1
2242,35.89,-18.95,29.5,1
2243,35.9,-21.2,18.79,1
2244,35.92,-1.56,16.43,1
2245,35.93,14.76,17.4,1
2246,35.95,15.71,8.25,1
2247,35.96,2.45,6.36,1
2248,35.97,-9.44,19.96,1
2249,35.99,-4.11,23.44,1
2250,36.0,5.07,13.54,1
2251,36.01,-3.14,13.22,1
2252,36.03,-16.71,23.2,1
2253,36.04,-17.62,29.3,1
2254,36.05,-13.72,30.61,1
2255,36.06,-9.98,29.35,1
2256,36.08,-2.71,24.58,1
2257,36.09,1.03,18.94,1
2258,36.11,2.46,15.91,1
2259,36.12,6.78,20.51,1
2260,36.13,3.18,31.0,1
2261,36.15,-1.57,31.67,1
2262,36.16,11.68,18.67,2
2263,36.17,24.56,9.23,2
2264,36.19,13.19,11.74,2
2265,36.2,-3.55,15.95,2
2266,36.21,0.05,15.3,2
2267,36.23,14.17,13.71,2
2268,36.24,14.86,13.93,2
2269,36.25,4.19,15.43,2
2270,36.27,-0.45,15.67,2
2271,36.28,-2.87,11.19,2
2272,36.29,-15.22,6.88,2
2273,36.31,-24.66,15.36,2
2274,36.32,-17.77,50.92,2
2275,36.33,-9.75,123.71,2
2276,36.35,-5.99,216.42,2
2277,36.36,13.85,287.88,2
2278,36.37,40.69,313.84,2
2279,36.38,40.54,293.52,2
2280,36.4,21.73,230.49,2
2281,36.41,13.14,143.55,2
2282,36.43,0.18,68.85,2
2283,36.44,-40.62,16.16,2
2284,36.45,-84.96,-42.1,2
2285,36.47,-96.86,-111.54,2
2286,36.48,-79.47,-163.11,2
2287,36.49,-54.7,-189.42,2
2288,36.51,-31.09,-209.8,2
2289,36.52,-11.53,-225.26,2
2290,36.53,3.15,-217.1,2
2291,36.54,17.08,-188.93,2
2292,36.56,26.93,-166.24,1
2293,36.57,25.56,-159.17,1
2294,36.59,20.19,-155.04,1
2295,36.6,20.69,-139.83,1
2296,36.61,20.59,-115.37,1
2297,36.63,13.13,-94.18,1
2298,36.64,6.04,-80.29,1
2299,36.65,11.09,-71.37,1
2300,36.67,35.5,-72.56,1
2301,36.68,61.04,-80.76,1
2302,36.69,50.94,-80.99,1
2303,36.71,14.34,-72.77,1
2304,36.72,-1.95,-65.85,1
2305,36.73,6.52,-60.41,1
2306,36.75,11.87,-50.38,1
2307,36.76,7.51,-35.53,1
2308,36.77,-0.11,-26.26,1
2309,36.79,-3.87,-25.61,1
2310,36.8,2.62,-20.09,1
2311,36.81,12.66,-10.05,1
2312,36.83,15.96,-10.11,1
2313,36.84,12.97,-15.15,1
2314,36.85,7.46,-7.13,1
2315,36.87,3.04,8.84,1
2316,36.88,-0.78,13.74,1
2317,36.89,-3.57,11.63,1
2318,36.9,1.19,14.81,1
2319,36.92,5.25,20.36,1
2320,36.93,-3.05,25.65,1
2321,36.95,-7.9,31.57,1
2322,36.96,-0.27,31.39,1
2323,36.97,0.5,26.71,1
2324,36.99,-5.48,31.38,1
2325,37.0,1.61,40.01,1
2326,37.01,15.17,38.22,1
2327,37.03,15.29,33.94,1
2328,37.04,3.88,35.17,1
2329,37.05,-2.88,35.62,1
2330,37.06,-4.15,39.01,1
2331,37.08,-8.96,47.05,1
2332,37.09,-9.54,44.39,1
2333,37.11,-0.1,35.39,1
2334,37.12,5.09,42.22,1
2335,37.13,-1.42,55.62,1
2336,37.15,-10.1,53.2,1
2337,37.16,-13.09,44.1,1
2338,37.17,-8.09,42.33,1
2339,37.19,1.8,42.22,1
2340,37.2,2.57,40.77,1
2341,37.21,-10.47,40.5,1
2342,37.22,-20.59,39.52,1
2343,37.24,-14.24,40.56,1
2344,37.25,1.5,43.75,1
2345,37.27,8.14,40.67,1
2346,37.28,1.99,37.46,1
2347,37.29,-1.22,45.03,1
2348,37.31,5.57,50.23,1
2349,37.32,8.24,38.65,1
2350,37.33,-1.24,23.07,1
2351,37.35,-9.85,18.94,1
2352,37.36,-9.38,21.14,1
2353,37.37,-4.83,21.49,1
2354,37.38,2.22,21.45,1
2355,37.4,7.49,22.57,1
2356,37.41,4.58,23.98,1
2357,37.43,-4.34,25.34,1
2358,37.44,-12.04,22.21,1
2359,37.45,-11.54,11.82,1
2360,37.47,-3.54,4.22,1
2361,37.48,3.06,7.95,1
2362,37.49,3.39,16.12,1
2363,37.51,-0.04,19.16,1
2364,37.52,-5.15,18.07,1
2365,37.53,-8.09,15.3,1
2366,37.54,-4.55,7.59,1
2367,37.56,0.01,0.81,1
2368,37.57,-0.1,0.25,1
2369,37.59,-1.59,1.17,1
2370,37.6,-5.89,4.62,1
2371,37.61,-14.78,7.34,1
2372,37.63,-16.37,-0.42,1
2373,37.64,-2.78,-9.91,1
2374,37.65,13.55,-8.34,1
2375,37.67,18.45,-0.96,1
2376,37.68,11.6,3.01,1
2377,37.69,1.72,0.79,1
2378,37.71,-3.01,-4.33,1
2379,37.72,-2.15,-7.29,1
2380,37.73,-0.95,-8.02,1
2381,37.75,-2.71,-6.84,1
2382,37.76,-7.42,-1.77,1
2383,37.77,-7.28,3.48,1
2384,37.79,3.37,-1.37,1
2385,37.8,10.37,-18.1,1
2386,37.81,5.71,-28.22,1
2387,37.83,3.89,-18.08,1
2388,37.84,6.25,-3.68,1
2389,37.85,1.02,-4.03,1
2390,37.87,-4.01,-13.56,1
2391,37.88,3.21,-18.61,1
2392,37.89,14.07,-18.5,1
2393,37.9,11.4,-19.12,1
2394,37.92,-6.06,-16.74,1
2395,37.93,-19.29,-7.44,1
2396,37.95,-15.48,-1.6,1
2397,37.96,-4.23,-4.72,1
2398,37.97,-0.38,-11.67,1
2399,37.99,-2.47,-23.6,1
2400,38.0,-0.76,-31.88,1
2401,38.01,1.24,-23.67,1
2402,38.03,-3.26,-14.91,1
2403,38.04,-6.75,-18.02,1
2404,38.05,-3.99,-15.69,1
2405,38.06,-2.49,-7.47,1
2406,38.08,-6.73,-14.17,1
2407,38.09,-9.01,-32.77,1
2408,38.11,-1.7,-36.15,1
2409,38.12,7.82,-15.67,1
2410,38.13,9.6,-10.89,1
2411,38.15,3.99,-51.08,1
2412,38.16,-2.2,-67.22,2
2413,38.17,-1.66,14.24,2
2414,38.19,3.8,117.65,2
2415,38.2,13.99,142.5,2
2416,38.21,33.41,90.83,2
2417,38.22,40.7,35.03,2
2418,38.24,21.73,93.38,2
2419,38.25,3.55,193.12,2
2420,38.27,-9.88,134.09,2
2421,38.28,-31.01,19.2,2
2422,38.29,-31.79,26.04,2
2423,38.31,-5.39,99.51,2
2424,38.32,5.46,172.17,2
2425,38.33,-15.6,158.47,2
2426,38.35,-36.26,6.46,2
2427,38.36,-22.42,-58.32,2
2428,38.37,16.61,48.16,2
2429,38.38,34.9,36.46,2
2430,38.4,15.67,-123.89,2
2431,38.41,-8.12,-158.48,2
2432,38.43,-10.74,-84.67,2
2433,38.44,-1.34,-97.88,2
2434,38.45,5.39,-146.37,2
2435,38.47,4.96,-133.2,2
2436,38.48,-2.73,-141.73,2
2437,38.49,-11.41,-172.82,2
2438,38.51,-13.65,-122.02,2
2439,38.52,-10.88,-52.7,2
2440,38.53,-3.65,-87.91,2
2441,38.54,9.68,-175.17,2
2442,38.56,18.73,-190.22,1
2443,38.57,19.7,-144.58,1
2444,38.59,17.19,-112.87,1
2445,38.6,4.42,-85.71,1
2446,38.61,-11.34,-77.55,1
2447,38.63,-8.78,-94.94,1
2448,38.64,6.02,-50.94,1
2449,38.65,5.61,10.89,1
2450,38.67,-11.42,-7.79,1
2451,38.68,-13.6,-39.89,1
2452,38.69,0.94,-29.68,1
2453,38.71,2.5,-12.54,1
2454,38.72,-10.34,-15.0,1
2455,38.73,-24.2,-29.14,1
2456,38.75,-29.13,-14.17,1
2457,38.76,-13.45,10.28,1
2458,38.77,5.15,-18.27,1
2459,38.79,3.92,-54.0,1
2460,38.8,5.03,-34.45,1
2461,38.81,19.48,-10.09,1
2462,38.83,17.69,-24.5,1
2463,38.84,-0.13,-40.73,1
2464,38.85,-7.31,-15.26,1
2465,38.87,-2.25,43.47,1
2466,38.88,6.02,78.84,1
2467,38.89,12.38,64.91,1
2468,38.9,14.36,14.93,1
2469,38.92,17.57,-40.17,1
2470,38.93,24.0,-39.92,1
2471,38.95,23.25,1.18,1
2472,38.96,4.79,1.54,1
2473,38.97,-17.11,-17.08,1
2474,38.99,-11.18,22.18,1
2475,39.0,11.58,75.89,1
2476,39.01,10.97,58.1,1
2477,39.03,-0.98,31.91,1
2478,39.04,2.43,75.19,1
2479,39.05,-1.35,110.44,1
2480,39.06,-15.71,75.08,1
2481,39.08,-12.82,18.36,1
2482,39.09,-2.34,-2.88,1
2483,39.11,2.29,35.02,1
2484,39.12,9.13,77.19,1
2485,39.13,5.11,39.86,1
2486,39.15,-19.14,-17.6,1
2487,39.16,-32.46,23.07,1
2488,39.17,-18.31,97.3,1
2489,39.19,-5.75,82.52,1
2490,39.2,-8.53,37.45,1
2491,39.21,-13.47,45.76,1
2492,39.22,-16.23,62.3,1
2493,39.24,-13.03,55.98,1
2494,39.25,-4.25,56.5,1
2495,39.27,1.39,65.72,1
2496,39.28,7.39,61.38,1
2497,39.29,16.1,37.26,1
2498,39.31,17.57,17.32,1
2499,39.32,12.41,22.23,1
2500,39.33,9.41,28.12,1
2501,39.35,8.74,25.02,1
2502,39.36,13.2,41.91,1
2503,39.37,22.94,62.74,1
2504,39.38,24.02,55.2,1
2505,39.4,20.41,50.57,1
2506,39.41,20.68,69.38,1
2507,39.43,8.41,77.36,1
2508,39.44,-12.28,58.3,1
2509,39.45,-15.69,17.95,1
2510,39.47,-6.93,-32.79,1
2511,39.48,-6.0,-54.2,1
2512,39.49,-12.61,-29.02,1
2513,39.51,-10.69,7.57,1
2514,39.52,2.91,28.3,1
2515,39.53,8.5,28.51,1
2516,39.54,-2.13,15.78,1
2517,39.56,-12.56,14.08,1
2518,39.57,-13.99,21.18,1
2519,39.59,-10.7,3.81,1
2520,39.6,-4.45,-27.82,1
2521,39.61,-0.55,-19.18,1
2522,39.63,-3.83,34.2,1
2523,39.64,-2.75,61.79,1
2524,39.65,7.99,21.27,1
2525,39.67,12.67,-25.17,1
2526,39.68,3.71,-13.93,1
2527,39.69,-1.1,16.03,1
2528,39.71,15.14,19.6,1
2529,39.72,26.36,22.84,1
2530,39.73,-0.31,32.79,1
2531,39.75,-31.17,7.53,1
2532,39.76,-20.62,-45.63,1
2533,39.77,5.65,-60.41,1
2534,39.79,1.54,-31.89,1
2535,39.8,-16.36,-13.32,1
2536,39.81,-3.83,-13.26,1
2537,39.83,22.47,-29.8,1
2538,39.84,20.3,-53.53,1
2539,39.85,4.39,-27.51,1
2540,39.87,1.83,14.02,1
2541,39.88,3.15,-19.44,1
2542,39.89,4.37,-56.41,1
2543,39.9,10.7,-6.54,1
2544,39.92,12.44,49.08,1
2545,39.93,10.05,37.32,1
2546,39.95,9.05,-0.89,1
2547,39.96,4.47,-29.93,1
2548,39.97,1.37,-51.93,1
2549,39.99,1.21,-47.73,1
2550,40.0,-3.54,-6.73,1
2551,40.01,-10.93,5.24,1
2552,40.03,-16.16,-30.14,1
2553,40.04,-13.89,-13.75,1
2554,40.05,-9.04,49.44,1
2555,40.07,-14.1,34.45,1
2556,40.08,-18.61,-59.7,1
2557,40.09,-9.36,-112.3,1
2558,40.11,7.1,-65.71,1
2559,40.12,22.6,12.75,1
2560,40.13,21.74,53.22,1
2561,40.15,1.19,60.23,1
2562,40.16,-9.65,29.64,0
2563,40.17,0.8,-15.47,0
2564,40.19,6.43,-21.08,0
2565,40.2,-7.71,-7.67,0
2566,40.21,-22.82,-7.59,0
2567,40.22,-15.98,-40.03,0
2568,40.24,9.23,-140.44,0
2569,40.25,22.66,-248.96,0
2570,40.27,3.44,-263.97,0
2571,40.28,-25.06,-215.93,0
2572,40.29,-28.24,-191.18,0
2573,40.31,-15.59,-181.35,0
2574,40.32,-17.39,-128.73,0
2575,40.33,-23.45,-41.36,0
2576,40.35,-7.12,27.26,0
2577,40.36,12.9,67.37,0
2578,40.37,7.57,96.06,0
2579,40.38,-5.52,109.86,0
2580,40.4,-0.51,108.3,0
2581,40.41,10.07,105.78,0
2582,40.43,7.4,108.14,0
2583,40.44,-1.58,109.2,0
2584,40.45,-6.59,107.75,0
2585,40.47,-5.16,107.48,0
2586,40.48,4.93,104.13,0
2587,40.49,11.63,90.29,0
2588,40.51,3.74,73.28,0
2589,40.52,-1.95,66.52,0
2590,40.53,7.41,63.74,0
2591,40.54,13.72,56.32,0
2592,40.56,1.01,54.08,1
2593,40.57,-12.92,57.26,1
2594,40.59,-2.2,51.5,1
2595,40.6,19.63,38.52,1
2596,40.61,20.16,30.28,1
2597,40.63,3.95,28.64,1
2598,40.64,-4.59,30.37,1
2599,40.65,-1.16,30.74,1
2600,40.67,8.07,24.32,1
2601,40.68,14.94,15.65,1
2602,40.69,13.13,13.22,1
2603,40.71,10.89,13.92,1
2604,40.72,14.04,12.29,1
2605,40.73,10.54,11.98,1
2606,40.75,-3.15,11.29,1
2607,40.76,-12.7,4.53,1
2608,40.77,-14.21,0.38,1
2609,40.79,-12.38,5.24,1
2610,40.8,-5.92,6.39,1
2611,40.81,-0.21,-3.38,1
2612,40.83,-0.39,-11.08,1
2613,40.84,-2.98,-9.6,1
2614,40.85,-5.51,-8.36,1
2615,40.87,-4.95,-9.04,1
2616,40.88,-4.37,-5.14,1
2617,40.89,-10.77,-4.68,1
2618,40.9,-15.65,-11.83,1
2619,40.92,-7.84,-11.39,1
2620,40.93,2.05,-4.06,1
2621,40.95,3.54,-10.23,1
2622,40.96,5.29,-28.25,1
2623,40.97,10.04,-32.19,1
2624,40.99,9.19,-16.23,1
2625,41.0,5.63,-7.99,1
2626,41.01,7.89,-21.45,1
2627,41.03,10.13,-36.0,1
2628,41.04,3.85,-36.66,1
2629,41.05,-6.0,-32.24,1
2630,41.06,-6.38,-30.39,1
2631,41.08,6.01,-26.5,1
2632,41.09,13.11,-18.52,1
2633,41.11,1.09,-13.95,1
2634,41.12,-14.79,-18.88,1
2635,41.13,-15.4,-26.67,1
2636,41.15,-1.99,-25.38,1
2637,41.16,8.54,-17.31,1
2638,41.17,3.67,-15.24,1
2639,41.19,-4.44,-17.97,1
2640,41.2,0.15,-17.37,1
2641,41.21,4.76,-16.37,1
2642,41.22,-4.91,-17.94,1
2643,41.24,-14.46,-20.09,1
2644,41.25,-9.82,-21.78,1
2645,41.27,0.38,-20.95,1
2646,41.28,5.52,-20.12,1
2647,41.29,5.12,-24.89,1
2648,41.31,0.47,-27.7,1
2649,41.32,-4.97,-19.69,1
2650,41.33,-2.62,-11.91,1
2651,41.35,3.24,-15.47,1
2652,41.36,-2.29,-20.96,1
2653,41.37,-12.79,-18.5,1
2654,41.38,-10.08,-12.69,1
2655,41.4,-1.3,-10.64,1
2656,41.41,-1.92,-12.49,1
2657,41.43,-4.92,-14.86,1
2658,41.44,-1.7,-17.14,1
2659,41.45,3.87,-17.38,1
2660,41.47,9.7,-11.75,1
2661,41.48,12.92,-5.09,1
2662,41.49,7.77,-3.42,1
2663,41.51,0.3,-5.83,1
2664,41.52,0.96,-10.32,1
2665,41.53,4.14,-11.04,1
2666,41.54,2.52,-3.3,1
2667,41.56,1.91,3.25,1
2668,41.57,4.29,-0.74,1
2669,41.59,2.46,-8.71,1
2670,41.6,-3.75,-17.57,1
2671,41.61,-8.55,-26.25,1
2672,41.63,-7.37,-19.8,1
2673,41.64,1.85,1.19,1
2674,41.65,6.78,12.74,1
2675,41.67,0.14,8.68,1
2676,41.68,-0.67,1.73,1
2677,41.69,7.17,-2.29,1
2678,41.71,6.69,0.43,1
2679,41.72,1.19,12.17,1
2680,41.73,2.76,22.27,1
2681,41.75,6.9,16.44,1
2682,41.76,4.81,-2.79,1
2683,41.77,-0.22,-12.78,1
2684,41.79,3.68,-2.37,1
2685,41.8,14.83,7.28,1
2686,41.81,13.24,1.08,1
2687,41.83,-5.36,-3.39,1
2688,41.84,-15.26,4.36,1
2689,41.85,-4.91,8.87,1
2690,41.87,5.78,4.92,1
2691,41.88,6.0,4.04,1
2692,41.89,4.56,3.5,1
2693,41.9,5.46,-3.41,1
2694,41.92,4.01,-2.09,1
2695,41.93,-2.46,14.08,1
2696,41.95,-9.07,23.78,1
2697,41.96,-10.97,18.99,1
2698,41.97,-11.79,15.42,1
2699,41.99,-11.99,13.87,1
2700,42.0,-4.99,6.43,1
2701,42.01,2.97,1.12,1
2702,42.03,-1.51,5.54,1
2703,42.04,-8.51,15.45,1
2704,42.05,-4.37,24.25,1
2705,42.06,0.43,27.64,1
2706,42.08,-0.08,16.7,1
2707,42.09,1.34,-24.36,1
2708,42.11,1.81,-87.51,1
2709,42.12,2.35,-134.4,1
2710,42.13,18.37,-145.2,1
2711,42.15,49.62,-130.87,1
2712,42.16,65.85,-110.12,0
2713,42.17,46.98,-103.39,0
2714,42.19,18.38,-114.13,0
2715,42.2,7.25,-118.92,0
2716,42.21,-0.81,-102.8,0
2717,42.22,-20.36,-74.91,0
2718,42.24,-32.21,-43.85,0
2719,42.25,-24.18,-10.63,0
2720,42.27,-20.57,23.36,0
2721,42.28,-35.66,56.34,0
2722,42.29,-43.6,81.38,0
2723,42.31,-30.13,98.17,0
2724,42.32,-15.08,119.63,0
2725,42.33,-14.71,139.66,0
2726,42.35,-27.55,136.95,0
2727,42.36,-39.01,120.99,0
2728,42.37,-35.52,118.86,0
2729,42.38,-18.63,133.58,0
2730,42.4,-4.7,151.73,0
2731,42.41,-10.44,163.68,0
2732,42.43,-26.83,162.9,0
2733,42.44,-23.48,149.44,0
2734,42.45,3.05,132.8,0
2735,42.47,19.33,121.71,0
2736,42.48,14.05,116.18,0
2737,42.49,7.59,107.43,0
2738,42.51,5.32,96.21,0
2739,42.52,1.38,92.06,0
2740,42.53,-2.43,82.62,0
2741,42.54,-5.56,57.8,0
2742,42.56,-0.78,42.45,1
2743,42.57,13.84,47.91,1
2744,42.59,17.88,47.95,1
2745,42.6,2.61,30.74,1
2746,42.61,-6.66,14.82,1
2747,42.63,4.9,7.5,1
2748,42.64,16.84,-9.87,1
2749,42.65,17.89,-37.4,1
2750,42.66,16.21,-41.48,1
2751,42.68,9.06,-14.21,1
2752,42.69,-0.38,8.92,1
2753,42.71,6.74,5.46,1
2754,42.72,20.04,-11.77,1
2755,42.73,11.12,-25.17,1
2756,42.75,-3.61,-30.43,1
2757,42.76,6.65,-27.05,1
2758,42.77,22.86,-17.06,1
2759,42.79,14.72,-15.85,1
2760,42.8,-2.0,-31.55,1
2761,42.81,0.95,-44.84,1
2762,42.83,9.46,-40.89,1
2763,42.84,0.75,-32.56,1
2764,42.85,-8.46,-37.83,1
2765,42.87,1.05,-52.65,1
2766,42.88,15.55,-58.58,1
2767,42.89,18.81,-49.69,1
2768,42.9,13.67,-38.33,1
2769,42.92,7.52,-39.11,1
2770,42.93,3.98,-49.33,1
2771,42.95,0.54,-50.93,1
2772,42.96,-4.64,-42.48,1
2773,42.97,-5.0,-40.67,1
2774,42.99,1.45,-45.17,1
2775,43.0,6.85,-45.9,1
2776,43.01,7.2,-47.1,1
2777,43.03,4.77,-51.02,1
2778,43.04,1.75,-52.28,1
2779,43.05,0.52,-52.23,1
2780,43.06,0.35,-48.65,1
2781,43.08,-2.88,-37.88,1
2782,43.09,-5.76,-32.2,1
2783,43.11,0.09,-37.03,1
2784,43.12,10.98,-40.55,1
2785,43.13,8.33,-41.38,1
2786,43.15,-8.82,-42.72,1
2787,43.16,-14.86,-38.03,1
2788,43.17,-5.07,-29.65,1
2789,43.19,1.06,-26.36,1
2790,43.2,-0.76,-29.33,1
2791,43.21,-0.64,-37.56,1
2792,43.22,4.07,-45.13,1
2793,43.24,8.94,-43.05,1
2794,43.25,6.96,-35.82,1
2795,43.27,-3.54,-31.11,1
2796,43.28,-8.45,-26.26,1
2797,43.29,-0.52,-23.0,1
2798,43.3,4.58,-24.95,1
2799,43.32,2.01,-23.46,1
2800,43.33,3.46,-14.99,1
2801,43.35,2.98,-13.26,1
2802,43.36,-6.83,-21.12,1
2803,43.37,-12.7,-21.93,1
2804,43.38,-12.22,-12.92,1
2805,43.4,-16.04,-10.62,1
2806,43.41,-18.13,-17.21,1
2807,43.43,-8.99,-17.45,1
2808,43.44,1.38,-7.94,1
2809,43.45,1.69,-0.69,1
2810,43.47,-2.3,-0.04,1
2811,43.48,-0.86,-2.93,1
2812,43.49,0.92,-9.74,1
2813,43.51,-6.04,-15.42,1
2814,43.52,-9.59,-11.01,1
2815,43.53,2.98,0.01,1
2816,43.54,16.66,5.42,1
2817,43.56,13.84,3.02,1
2818,43.57,3.66,1.2,1
2819,43.59,0.92,5.56,1
2820,43.6,3.26,11.82,1
2821,43.61,8.09,11.12,1
2822,43.63,13.5,6.23,1
2823,43.64,8.54,9.42,1
2824,43.65,-1.88,17.01,1
2825,43.67,-2.85,16.65,1
2826,43.68,-1.51,13.65,1
2827,43.69,-6.27,14.74,1
2828,43.71,-7.83,15.09,1
2829,43.72,-2.22,15.22,1
2830,43.73,3.48,16.3,1
2831,43.75,6.31,14.03,1
2832,43.76,4.92,9.66,1
2833,43.77,-3.37,9.25,1
2834,43.79,-10.5,15.75,1
2835,43.8,-10.14,24.89,1
2836,43.81,-10.34,27.63,1
2837,43.83,-10.67,25.62,1
2838,43.84,-1.41,25.62,1
2839,43.85,11.51,22.76,1
2840,43.87,11.76,17.7,1
2841,43.88,-3.86,18.76,1
2842,43.89,-21.78,20.07,1
2843,43.9,-24.67,17.64,1
2844,43.92,-10.99,20.61,1
2845,43.93,3.07,26.38,1
2846,43.94,6.94,24.47,1
2847,43.96,6.68,17.28,1
2848,43.97,6.52,15.39,1
2849,43.99,1.18,19.21,1
2850,44.0,-2.95,18.31,1
2851,44.01,4.38,9.85,1
2852,44.03,9.11,4.98,1
2853,44.04,-0.88,11.06,1
2854,44.05,-7.41,20.09,1
2855,44.06,-1.76,20.15,1
2856,44.08,-0.52,14.49,1
2857,44.09,-5.17,16.29,1
2858,44.11,-3.98,22.47,1
2859,44.12,-0.26,22.96,1
2860,44.13,0.45,24.11,1
2861,44.15,-1.97,25.99,1
2862,44.16,-5.77,17.77,2
2863,44.17,-3.2,11.15,2
2864,44.19,1.68,17.49,2
2865,44.2,-1.01,17.98,2
2866,44.21,-0.39,13.71,2
2867,44.22,9.65,49.23,2
2868,44.24,12.3,140.92,2
2869,44.25,0.91,244.55,2
2870,44.27,-3.54,312.64,2
2871,44.28,7.19,332.04,2
2872,44.29,5.26,310.41,2
2873,44.31,-15.74,251.91,2
2874,44.32,-24.17,161.79,2
2875,44.33,-17.92,70.43,2
2876,44.35,-16.89,0.57,2
2877,44.36,-9.58,-57.41,2
2878,44.37,9.14,-107.44,2
2879,44.38,9.56,-151.09,2
2880,44.4,-10.18,-198.24,2
2881,44.41,-13.61,-234.47,2
2882,44.43,0.53,-240.55,2
2883,44.44,2.42,-229.16,2
2884,44.45,-6.16,-217.15,2
2885,44.47,-4.56,-200.34,2
2886,44.48,4.13,-176.89,2
2887,44.49,3.61,-159.7,2
2888,44.51,-7.78,-154.97,2
2889,44.52,-10.91,-150.83,2
2890,44.53,5.4,-136.0,2
2891,44.54,17.82,-114.38,2
2892,44.56,6.18,-95.91,1
2893,44.57,-5.06,-85.5,1
2894,44.58,9.34,-76.26,1
2895,44.6,26.28,-59.17,1
2896,44.61,19.21,-47.72,1
2897,44.63,4.24,-55.13,1
2898,44.64,1.75,-60.4,1
2899,44.65,4.08,-48.31,1
2900,44.67,2.9,-34.98,1
2901,44.68,6.49,-29.87,1
2902,44.69,15.53,-26.52,1
2903,44.71,14.83,-16.58,1
2904,44.72,5.87,3.44,1
2905,44.73,4.14,15.68,1
2906,44.75,6.4,8.08,1
2907,44.76,5.21,5.67,1
2908,44.77,7.35,20.98,1
2909,44.79,8.48,29.22,1
2910,44.8,-0.7,24.31,1
2911,44.81,-7.34,24.01,1
2912,44.83,-2.7,29.61,1
2913,44.84,3.27,34.9,1
2914,44.85,8.87,39.75,1
2915,44.87,17.49,41.5,1
2916,44.88,20.01,36.44,1
2917,44.89,8.89,28.09,1
2918,44.9,-4.1,25.42,1
2919,44.92,-6.9,32.82,1
2920,44.93,-5.79,40.35,1
2921,44.95,-6.14,38.72,1
2922,44.96,-3.57,39.89,1
2923,44.97,-1.63,48.74,1
2924,44.99,-4.24,46.64,1
2925,45.0,0.98,35.39,1
2926,45.01,15.38,32.93,1
2927,45.03,15.76,36.2,1
2928,45.04,1.47,39.6,1
2929,45.05,-6.64,44.32,1
2930,45.06,-10.89,44.5,1
2931,45.08,-15.15,42.32,1
2932,45.09,-9.25,47.23,1
2933,45.11,-1.95,54.81,1
2934,45.12,-2.6,56.84,1
2935,45.13,-1.78,53.18,1
2936,45.15,-0.79,47.13,1
2937,45.16,-2.52,48.13,1
2938,45.17,0.24,55.26,1
2939,45.19,2.7,48.92,1
2940,45.2,-4.24,31.9,1
2941,45.21,-12.73,28.98,1
2942,45.22,-7.63,36.16,1
2943,45.24,5.11,34.74,1
2944,45.25,5.45,29.21,1
2945,45.26,-4.26,27.15,1
2946,45.28,-6.29,25.6,1
2947,45.29,0.03,25.3,1
2948,45.31,2.22,25.03,1
2949,45.32,-2.35,20.97,1
2950,45.33,-4.33,15.01,1
2951,45.35,-1.91,12.82,1
2952,45.36,-1.86,15.12,1
2953,45.37,-4.01,13.54,1
2954,45.38,-4.45,6.95,1
2955,45.4,-3.62,8.3,1
2956,45.41,-5.63,17.53,1
2957,45.43,-10.44,16.39,1
2958,45.44,-10.52,5.66,1
2959,45.45,-2.92,6.97,1
2960,45.47,3.14,18.88,1
2961,45.48,-3.25,18.14,1
2962,45.49,-13.43,4.52,1
2963,45.51,-8.53,-5.91,1
2964,45.52,3.08,-8.51,1
2965,45.53,1.14,-4.89,1
2966,45.54,-6.18,1.26,1
2967,45.56,-4.13,4.71,1
2968,45.57,1.7,2.2,1
2969,45.59,1.59,-6.35,1
2970,45.6,-5.32,-13.14,1
2971,45.61,-13.54,-10.35,1
2972,45.63,-15.3,-1.56,1
2973,45.64,-6.86,2.46,1
2974,45.65,3.09,-6.34,1
2975,45.67,6.07,-19.89,1
2976,45.68,5.61,-20.98,1
2977,45.69,2.84,-14.88,1
2978,45.71,0.52,-15.01,1
2979,45.72,7.52,-14.1,1
2980,45.73,12.89,-10.2,1
2981,45.75,2.26,-10.78,1
2982,45.76,-10.61,-11.57,1
2983,45.77,-7.32,-11.25,1
2984,45.79,5.95,-13.11,1
2985,45.8,14.67,-13.89,1
2986,45.81,13.67,-14.02,1
2987,45.83,4.32,-13.44,1
2988,45.84,-3.43,-11.14,1
2989,45.85,-3.56,-16.51,1
2990,45.86,-5.94,-26.22,1
2991,45.88,-9.94,-22.84,1
2992,45.89,-4.06,-13.18,1
2993,45.9,5.27,-13.29,1
2994,45.92,5.31,-17.9,1
2995,45.93,-1.88,-24.84,1
2996,45.95,-7.07,-34.66,1
2997,45.96,-2.27,-29.36,1
2998,45.97,10.01,-8.51,1
2999,45.99,16.74,-2.66,1
3000,46.0,7.89,-15.3,1
3001,46.01,-10.61,-23.56,1
3002,46.03,-17.27,-25.21,1
3003,46.04,-2.01,-24.02,1
3004,46.05,13.22,-14.2,1
3005,46.06,4.62,-2.99,1
3006,46.08,-11.04,-4.78,1
3007,46.09,-3.2,-20.7,1
3008,46.11,13.41,-35.78,1
3009,46.12,6.61,-33.27,1
3010,46.13,-10.44,-24.87,1
3011,46.15,-9.22,-15.22,1
3012,46.16,2.23,35.35,2
3013,46.17,5.57,85.31,2
3014,46.19,2.24,44.83,2
3015,46.2,1.31,21.74,2
3016,46.21,15.36,136.44,2
3017,46.22,41.38,204.01,2
3018,46.24,37.78,95.03,2
3019,46.25,0.57,40.07,2
3020,46.27,-6.75,107.88,2
3021,46.28,11.44,63.2,2
3022,46.29,-17.88,-46.84,2
3023,46.31,-58.58,-47.14,2
3024,46.32,-23.05,-34.51,2
3025,46.33,29.58,-40.36,2
3026,46.35,13.42,47.16,2
3027,46.36,-10.95,154.1,2
3028,46.37,8.0,71.94,2
3029,46.38,17.67,-138.65,2
3030,46.4,0.95,-132.97,2
3031,46.41,-6.47,64.76,2
3032,46.43,-5.35,41.19,2
3033,46.44,-10.43,-178.66,2
3034,46.45,-5.41,-225.68,2
3035,46.47,9.82,-107.33,2
3036,46.48,8.49,-34.42,2
3037,46.49,-1.43,-29.57,2
3038,46.5,-0.67,-56.71,2
3039,46.52,-2.56,-90.02,2
3040,46.53,-11.16,-75.15,2
3041,46.54,-12.74,-39.04,2
3042,46.56,-14.02,-41.51,1
3043,46.57,-26.43,-51.86,1
3044,46.59,-36.25,-55.33,1
3045,46.6,-23.55,-71.94,1
3046,46.61,6.86,-84.54,1
3047,46.63,24.32,-82.79,1
3048,46.64,9.21,-66.55,1
3049,46.65,-15.55,-71.9,1
3050,46.67,-10.68,-124.29,1
3051,46.68,16.5,-142.06,1
3052,46.69,24.44,-91.98,1
3053,46.71,16.22,-68.59,1
3054,46.72,16.98,-78.42,1
3055,46.73,16.4,-35.25,1
3056,46.75,13.49,24.19,1
3057,46.76,28.0,15.14,1
3058,46.77,37.08,-22.07,1
3059,46.79,15.37,-13.87,1
3060,46.8,-3.45,43.16,1
3061,46.81,-2.84,98.8,1
3062,46.83,-6.46,82.5,1
3063,46.84,-4.84,6.74,1
3064,46.85,9.93,-14.52,1
3065,46.87,6.39,28.9,1
3066,46.88,-15.84,26.13,1
3067,46.89,-16.42,-31.29,1
3068,46.9,8.67,-51.78,1
3069,46.92,13.42,-28.92,1
3070,46.93,-11.41,-22.99,1
3071,46.95,-16.43,-26.54,1
3072,46.96,8.17,1.59,1
3073,46.97,22.97,42.45,1
3074,46.99,15.87,49.23,1
3075,47.0,-3.29,37.53,1
3076,47.01,-22.82,52.81,1
3077,47.03,-26.47,59.13,1
3078,47.04,-16.7,8.3,1
3079,47.05,-10.02,-36.39,1
3080,47.06,-7.37,7.6,1
3081,47.08,0.89,88.18,1
3082,47.09,5.78,103.62,1
3083,47.11,-5.8,66.16,1
3084,47.12,-11.33,38.45,1
3085,47.13,4.48,28.84,1
3086,47.14,11.71,26.79,1
3087,47.16,-2.43,37.19,1
3088,47.17,-9.98,57.67,1
3089,47.18,1.69,77.96,1
3090,47.2,17.72,86.89,1
3091,47.21,22.82,54.37,1
3092,47.22,6.6,-11.85,1
3093,47.24,-15.25,-21.76,1
3094,47.25,-8.04,45.98,1
3095,47.27,16.59,74.06,1
3096,47.28,25.28,10.54,1
3097,47.29,19.78,-31.13,1
3098,47.31,5.36,18.91,1
3099,47.32,-14.07,60.36,1
3100,47.33,-18.63,14.05,1
3101,47.35,-7.67,-29.12,1
3102,47.36,-5.0,14.38,1
3103,47.37,-14.63,63.7,1
3104,47.38,-18.25,51.46,1
3105,47.4,-10.5,31.85,1
3106,47.41,1.3,36.91,1
3107,47.43,5.62,38.16,1
3108,47.44,-5.95,19.68,1
3109,47.45,-12.91,-4.99,1
3110,47.47,-0.32,-10.36,1
3111,47.48,9.69,16.51,1
3112,47.49,6.41,50.25,1
3113,47.51,-2.77,41.49,1
3114,47.52,-15.49,8.21,1
3115,47.53,-19.91,16.91,1
3116,47.54,-7.88,56.09,1
3117,47.56,8.83,66.43,1
3118,47.57,10.13,29.54,1
3119,47.59,-10.12,-25.85,1
3120,47.6,-23.52,-47.29,1
3121,47.61,-10.87,-14.72,1
3122,47.63,2.88,7.03,1
3123,47.64,4.42,-32.7,1
3124,47.65,3.5,-46.29,1
3125,47.67,-6.03,10.22,1
3126,47.68,-18.47,26.91,1
3127,47.69,-13.15,-4.96,1
3128,47.71,1.72,11.51,1
3129,47.72,14.28,52.19,1
3130,47.73,21.56,47.23,1
3131,47.75,9.01,15.68,1
3132,47.76,-8.79,2.7,1
3133,47.77,-3.12,28.23,1
3134,47.78,4.56,75.84,1
3135,47.8,-1.56,78.17,1
3136,47.81,2.16,19.72,1
3137,47.82,6.4,-7.34,1
3138,47.84,-8.39,45.76,1
3139,47.85,-8.89,82.08,1
3140,47.86,17.89,25.56,1
3141,47.88,21.38,-15.53,1
3142,47.89,-5.78,36.23,1
3143,47.9,-9.03,64.97,1
3144,47.92,15.05,11.8,1
3145,47.93,18.34,-24.19,1
3146,47.95,-6.04,6.53,1
3147,47.96,-19.72,27.42,1
3148,47.97,-5.76,-16.82,1
3149,47.99,7.5,-66.17,1
3150,48.0,0.31,-54.71,1
3151,48.01,-8.25,-21.63,1
3152,48.03,-5.16,-29.99,1
3153,48.04,2.71,-62.67,1
3154,48.05,8.81,-64.23,1
3155,48.06,4.24,-26.14,1
3156,48.08,-7.13,-4.14,1
3157,48.09,-5.65,-29.86,1
3158,48.11,7.18,-51.28,1
3159,48.12,16.22,-35.74,1
3160,48.13,14.18,-23.38,1
3161,48.15,1.11,-24.53,1
3162,48.16,-5.65,-14.87,0
3163,48.17,5.27,-26.58,0
3164,48.19,14.07,-69.36,0
3165,48.2,-0.87,-66.51,0
3166,48.21,-21.93,-7.69,0
3167,48.22,-15.66,21.89,0
3168,48.24,1.57,3.91,0
3169,48.25,-3.51,-8.38,0
3170,48.27,-12.65,-7.9,0
3171,48.28,-3.42,-24.73,0
3172,48.29,6.41,-68.06,0
3173,48.31,3.64,-128.13,0
3174,48.32,-6.92,-180.92,0
3175,48.33,-19.9,-198.4,0
3176,48.35,-23.76,-196.0,0
3177,48.36,-11.27,-218.2,0
3178,48.37,2.79,-239.5,0
3179,48.38,0.79,-192.91,0
3180,48.4,-8.46,-95.2,0
3181,48.41,-4.13,-14.73,0
3182,48.42,11.42,29.72,0
3183,48.44,20.41,57.84,0
3184,48.45,18.15,81.4,0
3185,48.46,13.11,98.66,0
3186,48.48,10.71,107.87,0
3187,48.49,12.36,108.45,0
3188,48.5,15.69,99.55,0
3189,48.52,14.11,90.22,0
3190,48.53,8.08,91.78,0
3191,48.54,0.35,100.21,0
3192,48.56,-9.27,106.46,1
3193,48.57,-11.2,112.27,1
3194,48.59,-1.56,117.09,1
3195,48.6,6.67,106.25,1
3196,48.61,11.51,81.48,1
3197,48.63,16.34,67.81,1
3198,48.64,11.89,66.44,1
3199,48.65,-0.06,57.09,1
3200,48.67,-5.52,40.73,1
3201,48.68,1.66,31.53,1
3202,48.69,12.84,32.71,1
3203,48.71,12.59,39.38,1
3204,48.72,4.33,41.91,1
3205,48.73,1.94,31.19,1
3206,48.75,0.08,14.49,1
3207,48.76,-5.96,10.65,1
3208,48.77,-6.69,19.27,1
3209,48.79,-3.82,21.89,1
3210,48.8,-6.0,15.33,1
3211,48.81,-6.22,9.03,1
3212,48.83,0.82,3.46,1
3213,48.84,3.33,-0.12,1
3214,48.85,-2.49,-0.61,1
3215,48.87,-6.51,-4.58,1
3216,48.88,-6.7,-8.64,1
3217,48.89,-6.47,-3.72,1
3218,48.9,-4.07,1.14,1
3219,48.92,0.0,-4.51,1
3220,48.93,2.58,-13.06,1
3221,48.95,1.67,-18.51,1
3222,48.96,-2.29,-19.38,1
3223,48.97,-3.24,-12.82,1
3224,48.99,1.85,-8.91,1
3225,49.0,6.83,-14.47,1
3226,49.01,8.81,-20.0,1
3227,49.03,8.28,-21.72,1
3228,49.04,4.56,-22.38,1
3229,49.05,0.13,-22.1,1
3230,49.06,-1.88,-22.6,1
3231,49.08,-1.76,-25.9,1
3232,49.09,-5.14,-29.23,1
3233,49.1,-13.54,-26.21,1
3234,49.12,-13.22,-17.01,1
3235,49.13,3.74,-14.33,1
3236,49.14,18.05,-22.13,1
3237,49.16,10.14,-23.6,1
3238,49.17,-7.32,-14.18,1
3239,49.19,-9.12,-7.83,1
3240,49.2,-0.53,-8.5,1
3241,49.21,-2.7,-10.58,1
3242,49.22,-12.36,-11.2,1
3243,49.24,-15.4,-15.6,1
3244,49.25,-8.75,-26.11,1
3245,49.27,-1.98,-29.59,1
3246,49.28,-5.06,-24.07,1
3247,49.29,-10.3,-25.04,1
3248,49.31,-8.13,-33.02,1
3249,49.32,-1.46,-34.43,1
3250,49.33,6.01,-24.57,1
3251,49.35,5.81,-15.59,1
3252,49.36,-5.94,-20.45,1
3253,49.37,-14.31,-26.94,1
3254,49.38,-9.61,-15.47,1
3255,49.4,1.26,1.18,1
3256,49.41,10.43,-1.84,1
3257,49.43,13.36,-15.34,1
3258,49.44,10.05,-17.22,1
3259,49.45,6.02,-10.54,1
3260,49.47,1.72,-8.48,1
3261,49.48,-3.82,-13.87,1
3262,49.49,-5.32,-21.58,1
3263,49.51,-4.19,-23.34,1
3264,49.52,-6.78,-15.01,1
3265,49.53,-8.97,-2.86,1
3266,49.54,-3.57,0.87,1
3267,49.56,3.6,-6.25,1
3268,49.57,2.49,-10.15,1
3269,49.59,-2.03,-4.16,1
3270,49.6,0.87,-2.11,1
3271,49.61,4.56,-7.61,1
3272,49.63,-2.0,-3.27,1
3273,49.64,-12.64,8.16,1
3274,49.65,-14.49,4.37,1
3275,49.67,-5.26,-10.16,1
3276,49.68,3.48,-12.16,1
3277,49.69,2.91,-3.66,1
3278,49.7,-0.05,-1.38,1
3279,49.72,0.18,-0.56,1
3280,49.73,1.3,6.71,1
3281,49.74,2.29,8.26,1
3282,49.76,0.31,0.05,1
3283,49.77,-2.17,-4.77,1
3284,49.78,3.37,-2.44,1
3285,49.8,11.82,2.21,1
3286,49.81,8.43,7.66,1
3287,49.83,-2.33,11.47,1
3288,49.84,-3.14,9.69,1
3289,49.85,3.05,5.61,1
3290,49.87,5.04,6.75,1
3291,49.88,6.78,7.5,1
3292,49.89,8.58,0.37,1
3293,49.9,1.52,-2.69,1
3294,49.92,-7.72,6.15,1
3295,49.93,-3.3,13.93,1
3296,49.95,10.06,10.61,1
3297,49.96,13.12,2.14,1
3298,49.97,4.78,0.89,1
3299,49.99,-2.69,8.11,1
3300,50.0,-8.84,9.8,1
3301,50.01,-13.9,1.65,1
3302,50.03,-8.5,-1.86,1
3303,50.04,3.84,5.01,1
3304,50.05,5.73,11.68,1
3305,50.06,-2.88,14.97,1
3306,50.08,-3.94,19.11,1
3307,50.09,3.94,18.23,1
3308,50.11,4.61,9.27,1
3309,50.12,-4.5,2.04,1
3310,50.13,-8.89,9.28,1
3311,50.15,3.5,20.45,1
3312,50.16,23.62,-19.29,0
3313,50.17,27.15,-121.8,0
3314,50.19,11.28,-196.93,0
3315,50.2,-3.88,-191.47,0
3316,50.21,-8.6,-159.27,0
3317,50.22,-5.53,-144.94,0
3318,50.24,-2.2,-137.75,0
3319,50.25,-6.88,-124.9,0
3320,50.27,-9.0,-107.05,0
3321,50.28,7.47,-77.22,0
3322,50.29,22.01,-27.59,0
3323,50.31,8.47,27.14,0
3324,50.32,-7.01,66.32,0
3325,50.33,3.49,86.68,0
3326,50.34,12.3,92.63,0
3327,50.36,-0.38,95.03,0
3328,50.37,-7.89,106.1,0
3329,50.38,1.16,123.09,0
3330,50.4,6.25,138.69,0
3331,50.41,4.6,152.6,0
3332,50.42,9.25,158.62,0
3333,50.44,13.3,149.89,0
3334,50.45,4.89,141.58,0
3335,50.46,-3.64,146.22,0
3336,50.48,1.53,146.63,0
3337,50.49,6.41,135.48,0
3338,50.51,-9.37,130.6,0
3339,50.52,-27.58,130.79,0
3340,50.53,-13.56,117.93,0
3341,50.54,10.42,100.61,0
3342,50.56,0.09,98.0,1
3343,50.57,-23.82,97.35,1
3344,50.59,-24.88,81.1,1
3345,50.6,-9.79,66.34,1
3346,50.61,4.42,67.35,1
3347,50.63,6.4,62.31,1
3348,50.64,-0.76,36.59,1
3349,50.65,1.96,15.45,1
3350,50.67,8.26,20.55,1
3351,50.68,-2.35,30.73,1
3352,50.69,-12.28,20.86,1
3353,50.71,-2.26,0.06,1
3354,50.72,1.81,-12.66,1
3355,50.73,-11.35,-13.86,1
3356,50.75,-11.81,-11.57,1
3357,50.76,6.68,-13.87,1
3358,50.77,21.83,-19.37,1
3359,50.79,22.64,-20.96,1
3360,50.8,11.58,-18.92,1
3361,50.81,0.36,-22.56,1
3362,50.83,0.17,-34.65,1
3363,50.84,0.12,-40.76,1
3364,50.85,-10.03,-32.56,1
3365,50.87,-11.44,-29.24,1
3366,50.88,1.02,-43.05,1
3367,50.89,2.73,-53.86,1
3368,50.9,-7.12,-49.14,1
3369,50.92,-7.6,-44.42,1
3370,50.93,0.39,-51.53,1
3371,50.95,4.88,-65.37,1
3372,50.96,2.67,-70.31,1
3373,50.97,-4.42,-57.19,1
3374,50.98,-5.91,-45.72,1
3375,51.0,2.35,-53.97,1
3376,51.01,4.28,-62.49,1
3377,51.02,-3.63,-55.57,1
3378,51.04,-4.3,-51.18,1
3379,51.05,4.0,-60.66,1
3380,51.06,9.89,-68.74,1
3381,51.08,9.23,-62.92,1
3382,51.09,2.83,-53.15,1
3383,51.1,-3.29,-53.86,1
3384,51.12,-6.12,-62.33,1
3385,51.13,-8.92,-65.46,1
3386,51.15,-7.74,-57.97,1
3387,51.16,1.48,-46.97,1
3388,51.17,9.6,-42.34,1
3389,51.19,7.33,-46.54,1
3390,51.2,-0.54,-51.57,1
3391,51.21,-6.63,-47.44,1
3392,51.22,-10.78,-37.06,1
3393,51.24,-11.91,-31.91,1
3394,51.25,-6.07,-33.34,1
3395,51.27,5.29,-37.21,1
3396,51.28,12.35,-42.43,1
3397,51.29,7.17,-46.94,1
3398,51.31,2.2,-45.21,1
3399,51.32,11.75,-32.16,1
3400,51.33,20.87,-14.71,1
3401,51.35,14.11,-7.7,1
3402,51.36,5.28,-12.75,1
3403,51.37,5.77,-19.04,1
3404,51.38,6.58,-20.04,1
3405,51.4,-0.11,-15.05,1
3406,51.41,-5.97,-6.33,1
3407,51.43,-2.02,-0.27,1
3408,51.44,0.97,-1.46,1
3409,51.45,-4.91,-4.8,1
3410,51.47,-9.85,-1.91,1
3411,51.48,-12.47,4.07,1
3412,51.49,-13.89,3.93,1
3413,51.51,-6.97,2.33,1
3414,51.52,0.79,5.63,1
3415,51.53,-0.47,8.19,1
3416,51.54,-2.54,8.45,1
3417,51.56,-4.32,10.54,1
3418,51.57,-12.07,10.12,1
3419,51.59,-14.66,2.09,1
3420,51.6,-4.86,-3.66,1
3421,51.61,2.46,3.26,1
3422,51.62,-0.85,15.74,1
3423,51.64,-6.06,20.18,1
3424,51.65,-9.29,13.74,1
3425,51.66,-8.78,8.16,1
3426,51.68,0.17,10.71,1
3427,51.69,9.88,11.03,1
3428,51.7,11.27,7.62,1
3429,51.72,8.73,12.91,1
3430,51.73,3.46,21.28,1
3431,51.74,-8.96,19.04,1
3432,51.76,-16.39,14.29,1
3433,51.77,-7.07,18.38,1
3434,51.79,-0.48,24.36,1
3435,51.8,-12.29,21.19,1
3436,51.81,-21.59,10.9,1
3437,51.83,-10.44,5.9,1
3438,51.84,4.61,14.14,1
3439,51.85,6.19,27.82,1
3440,51.87,5.64,31.25,1
3441,51.88,11.04,23.27,1
3442,51.89,10.13,20.28,1
3443,51.9,5.35,27.12,1
3444,51.92,6.71,27.42,1
3445,51.93,8.02,16.05,1
3446,51.95,6.87,8.62,1
3447,51.96,4.8,6.59,1
3448,51.97,1.17,0.76,1
3449,51.99,5.83,3.49,1
3450,52.0,14.37,18.07,1
3451,52.01,9.9,24.01,1
3452,52.03,4.74,21.94,1
3453,52.04,11.1,23.56,1
3454,52.05,7.97,19.68,1
3455,52.06,-10.61,12.04,1
3456,52.08,-20.66,15.3,1
3457,52.09,-13.93,23.56,1
3458,52.11,-2.54,25.18,1
3459,52.12,1.41,22.0,1
3460,52.13,-0.02,16.18,1
3461,52.15,4.92,8.04,1
3462,52.16,7.97,5.32,2
3463,52.17,-0.3,14.53,2
3464,52.19,-0.13,26.99,2
3465,52.2,11.51,45.14,2
3466,52.21,9.48,98.04,2
3467,52.22,-4.72,187.82,2
3468,52.24,-8.25,268.03,2
3469,52.25,-1.57,299.84,2
3470,52.26,0.19,288.03,2
3471,52.28,0.65,253.2,2
3472,52.29,6.65,201.4,2
3473,52.3,0.96,133.81,2
3474,52.32,-22.56,60.43,2
3475,52.33,-34.38,-7.15,2
3476,52.34,-20.56,-63.58,2
3477,52.36,-8.69,-111.6,2
3478,52.37,-15.2,-158.15,2
3479,52.38,-17.08,-202.21,2
3480,52.4,-4.68,-227.94,2
3481,52.41,-0.66,-226.58,2
3482,52.43,-5.85,-212.71,2
3483,52.44,0.38,-198.2,2
3484,52.45,11.67,-180.45,2
3485,52.47,7.53,-157.99,2
3486,52.48,-4.97,-136.11,2
3487,52.49,-2.98,-123.09,2
3488,52.51,13.7,-111.25,2
3489,52.52,21.78,-80.9,2
3490,52.53,14.65,-51.87,2
3491,52.54,15.17,-63.85,2
3492,52.56,33.65,-95.8,1
3493,52.57,46.82,-96.56,1
3494,52.59,35.63,-69.64,1
3495,52.6,9.96,-54.57,1
3496,52.61,-9.18,-55.37,1
3497,52.63,-7.62,-49.3,1
3498,52.64,5.02,-35.4,1
3499,52.65,6.71,-32.1,1
3500,52.67,3.27,-41.89,1
3501,52.68,8.24,-42.61,1
3502,52.69,10.52,-21.48,1
3503,52.71,2.95,-0.78,1
3504,52.72,-8.32,-0.47,1
3505,52.73,-15.39,-6.66,1
3506,52.75,-11.0,-4.93,1
3507,52.76,-4.44,0.19,1
3508,52.77,-6.02,5.75,1
3509,52.79,-6.06,13.13,1
3510,52.8,-0.34,16.85,1
3511,52.81,2.2,13.21,1
3512,52.83,1.41,11.57,1
3513,52.84,2.51,22.77,1
3514,52.85,5.71,36.95,1
3515,52.87,10.76,34.83,1
3516,52.88,15.17,24.03,1
3517,52.89,11.52,28.51,1
3518,52.9,2.58,39.59,1
3519,52.92,0.22,34.57,1
3520,52.93,2.9,25.74,1
3521,52.94,3.41,33.01,1
3522,52.96,6.17,46.34,1
3523,52.97,9.4,50.62,1
3524,52.98,0.23,45.8,1
3525,53.0,-15.75,40.75,1
3526,53.01,-16.06,42.74,1
3527,53.02,1.36,46.78,1
3528,53.04,7.31,46.59,1
3529,53.05,-7.19,44.51,1
3530,53.06,-11.67,40.73,1
3531,53.08,-0.69,38.5,1
3532,53.09,3.0,45.95,1
3533,53.11,-3.28,56.22,1
3534,53.12,-11.2,55.07,1
3535,53.13,-15.83,50.15,1
3536,53.15,-11.16,51.19,1
3537,53.16,-1.09,48.74,1
3538,53.17,-0.79,39.1,1
3539,53.19,-13.75,31.46,1
3540,53.2,-24.29,28.81,1
3541,53.21,-21.78,30.47,1
3542,53.22,-10.55,38.13,1
3543,53.24,1.38,46.07,1
3544,53.25,6.69,43.7,1
3545,53.27,3.08,33.91,1
3546,53.28,-4.62,27.36,1
3547,53.29,-11.32,23.28,1
3548,53.31,-16.13,15.78,1
3549,53.32,-16.84,7.62,1
3550,53.33,-10.06,6.34,1
3551,53.35,-0.65,14.34,1
3552,53.36,2.87,19.38,1
3553,53.37,1.85,14.68,1
3554,53.38,1.54,15.03,1
3555,53.4,-0.08,19.56,1
3556,53.41,-3.93,12.32,1
3557,53.43,-2.78,4.85,1
3558,53.44,5.16,12.04,1
3559,53.45,10.93,18.86,1
3560,53.47,5.61,14.18,1
3561,53.48,-6.07,7.63,1
3562,53.49,-7.68,2.26,1
3563,53.51,2.6,-5.85,1
3564,53.52,5.32,-8.64,1
3565,53.53,-3.74,0.67,1
3566,53.54,-4.26,8.13,1
3567,53.56,5.11,1.72,1
3568,53.57,4.69,-5.15,1
3569,53.58,-0.89,-3.2,1
3570,53.6,4.58,-3.19,1
3571,53.61,10.0,-7.55,1
3572,53.62,9.37,-8.32,1
3573,53.64,14.01,-7.14,1
3574,53.65,13.24,-9.96,1
3575,53.66,-2.25,-15.33,1
3576,53.68,-13.38,-16.83,1
3577,53.69,-12.37,-16.49,1
3578,53.7,-13.05,-22.55,1
3579,53.72,-14.98,-28.66,1
3580,53.73,-4.66,-25.88,1
3581,53.75,9.35,-21.95,1
3582,53.76,4.54,-21.35,1
3583,53.77,-10.94,-16.8,1
3584,53.79,-10.46,-11.13,1
3585,53.8,3.36,-11.75,1
3586,53.81,12.76,-12.52,1
3587,53.83,14.72,-8.05,1
3588,53.84,11.03,-9.89,1
3589,53.85,5.75,-20.88,1
3590,53.87,2.03,-24.93,1
3591,53.88,-3.21,-20.56,1
3592,53.89,-7.62,-18.79,1
3593,53.9,-6.01,-19.7,1
3594,53.92,-0.69,-20.55,1
3595,53.93,4.28,-18.74,1
3596,53.95,6.03,-12.96,1
3597,53.96,3.18,-10.14,1
3598,53.97,-2.24,-14.2,1
3599,53.99,-5.93,-20.58,1
3600,54.0,-4.78,-24.29,1
3601,54.01,0.0,-21.23,1
3602,54.03,6.45,-16.12,1
3603,54.04,8.94,-19.58,1
3604,54.05,-0.5,-22.9,1
3605,54.06,-15.44,-11.96,1
3606,54.08,-17.74,-0.08,1
3607,54.09,-2.68,-3.06,1
3608,54.11,12.14,-17.63,1
3609,54.12,10.45,-35.1,1
3610,54.13,0.7,-42.69,1
3611,54.15,-4.16,-33.79,1
3612,54.16,-1.49,-3.48,2
3613,54.17,8.51,48.0,2
3614,54.18,14.13,73.64,2
3615,54.2,6.14,26.23,2
3616,54.21,0.04,-40.23,2
3617,54.22,14.01,-46.22,2
3618,54.24,37.65,-16.81,2
3619,54.25,36.34,-39.06,2
3620,54.26,5.29,-117.21,2
3621,54.28,-14.85,-75.23,2
3622,54.29,-10.91,129.0,2
3623,54.3,-7.42,184.52,2
3624,54.32,-9.89,31.02,2
3625,54.33,-22.27,48.92,2
3626,54.34,-55.29,281.84,2
3627,54.36,-70.9,296.41,2
3628,54.37,-9.59,30.67,2
3629,54.38,68.74,-48.85,2
3630,54.4,44.07,177.22,2
3631,54.41,-24.67,325.64,2
3632,54.43,-14.41,259.53,2
3633,54.44,38.15,155.75,2
3634,54.45,56.07,37.38,2
3635,54.47,51.77,-108.15,2
3636,54.48,55.93,-99.93,2
3637,54.49,49.16,38.3,2
3638,54.51,27.87,-36.17,2
3639,54.52,22.43,-284.84,2
3640,54.53,13.9,-295.71,2
3641,54.54,-14.99,-97.31,2
3642,54.56,-22.53,-25.01,1
3643,54.57,-5.23,-93.69,1
3644,54.59,-8.18,-148.17,1
3645,54.6,-31.71,-165.5,1
3646,54.61,-39.99,-188.91,1
3647,54.63,-21.39,-232.24,1
3648,54.64,-4.26,-223.62,1
3649,54.65,-8.17,-121.22,1
3650,54.67,-11.89,-75.78,1
3651,54.68,-11.35,-177.19,1
3652,54.69,-19.87,-230.63,1
3653,54.71,-30.25,-91.64,1
3654,54.72,-29.63,47.71,1
3655,54.73,-8.04,9.93,1
3656,54.75,9.77,-56.56,1
3657,54.76,-9.98,-42.57,1
3658,54.77,-31.42,-56.77,1
3659,54.79,-20.71,-78.63,1
3660,54.8,-9.29,3.66,1
3661,54.81,-15.11,92.55,1
3662,54.82,-22.79,52.39,1
3663,54.84,-19.44,-44.22,1
3664,54.85,5.4,-82.63,1
3665,54.86,27.0,-62.88,1
3666,54.88,11.14,-22.81,1
3667,54.89,-12.13,27.79,1
3668,54.9,-12.53,60.51,1
3669,54.92,-5.75,16.59,1
3670,54.93,4.08,-40.96,1
3671,54.94,16.33,2.93,1
3672,54.96,7.92,51.41,1
3673,54.97,-17.46,5.37,1
3674,54.98,-18.48,-9.86,1
3675,55.0,7.04,55.01,1
3676,55.01,13.27,93.99,1
3677,55.02,-8.31,73.65,1
3678,55.04,-18.22,21.76,1
3679,55.05,5.27,-25.54,1
3680,55.06,31.85,-19.47,1
3681,55.08,25.46,24.01,1
3682,55.09,2.53,41.34,1
3683,55.11,-4.98,34.46,1
3684,55.12,5.38,34.15,1
3685,55.13,11.34,18.94,1
3686,55.15,0.04,-9.93,1
3687,55.16,-1.13,5.98,1
3688,55.17,16.99,56.45,1
3689,55.19,14.96,48.74,1
3690,55.2,-6.32,-11.91,1
3691,55.21,-0.87,-9.17,1
3692,55.22,27.13,52.09,1
3693,55.24,32.48,60.19,1
3694,55.25,9.2,29.97,1
3695,55.27,-6.45,34.84,1
3696,55.28,-0.26,57.94,1
3697,55.29,1.78,55.38,1
3698,55.31,-9.95,17.22,1
3699,55.32,-13.45,5.29,1
3700,55.33,-5.69,72.96,1
3701,55.35,-4.01,109.28,1
3702,55.36,-5.18,22.38,1
3703,55.37,2.28,-41.07,1
3704,55.38,8.89,25.77,1
3705,55.4,4.59,83.29,1
3706,55.41,-2.27,46.44,1
3707,55.43,-0.1,9.8,1
3708,55.44,7.96,32.08,1
3709,55.45,9.83,84.23,1
3710,55.46,3.81,101.81,1
3711,55.48,4.6,56.13,1
3712,55.49,20.19,11.82,1
3713,55.5,27.21,-0.85,1
3714,55.52,8.1,-31.87,1
3715,55.53,-11.85,-59.67,1
3716,55.54,-18.52,-3.88,1
3717,55.56,-24.32,64.89,1
3718,55.57,-18.21,27.75,1
3719,55.58,6.18,-3.68,1
3720,55.6,15.18,73.12,1
3721,55.61,1.76,117.09,1
3722,55.62,-0.69,60.81,1
3723,55.64,3.59,9.85,1
3724,55.65,-10.83,1.49,1
3725,55.66,-23.67,-0.55,1
3726,55.68,-7.34,17.04,1
3727,55.69,18.77,64.84,1
3728,55.71,24.58,88.18,1
3729,55.72,10.92,51.97,1
3730,55.73,-4.68,-17.91,1
3731,55.75,-10.58,-59.38,1
3732,55.76,-7.34,-18.21,1
3733,55.77,-5.56,33.89,1
3734,55.79,-10.92,-11.14,1
3735,55.8,-16.1,-76.53,1
3736,55.81,-12.65,-49.77,1
3737,55.83,-2.6,-3.65,1
3738,55.84,-2.95,-8.54,1
3739,55.85,-18.44,15.31,1
3740,55.87,-18.17,86.52,1
3741,55.88,0.28,110.92,1
3742,55.89,-4.21,64.67,1
3743,55.9,-21.24,6.88,1
3744,55.92,-0.59,-17.78,1
3745,55.93,34.55,-18.25,1
3746,55.95,26.68,-8.48,1
3747,55.96,-1.28,26.38,1
3748,55.97,-7.5,55.82,1
3749,55.99,-7.17,34.18,1
3750,56.0,-5.56,2.56,1
3751,56.01,8.19,0.07,1
3752,56.03,16.27,-1.29,1
3753,56.04,4.62,-8.24,1
3754,56.05,-10.76,-17.45,1
3755,56.06,-12.6,-36.07,1
3756,56.08,-6.66,-43.87,1
3757,56.09,-4.15,-33.6,1
3758,56.1,-8.3,-9.56,1
3759,56.12,-17.69,15.83,1
3760,56.13,-23.26,-1.41,1
3761,56.14,-11.08,-55.11,1
3762,56.16,17.21,-71.73,0
3763,56.17,33.67,-37.99,0
3764,56.18,20.56,-22.06,0
3765,56.2,-1.62,-52.24,0
3766,56.21,-6.3,-95.85,0
3767,56.22,8.01,-128.38,0
3768,56.24,23.4,-134.47,0
3769,56.25,20.63,-116.3,0
3770,56.26,-0.97,-125.11,0
3771,56.28,-18.13,-183.93,0
3772,56.29,-13.95,-219.06,0
3773,56.3,0.82,-169.7,0
3774,56.32,9.57,-88.62,0
3775,56.33,11.09,-42.09,0
3776,56.35,14.84,-11.7,0
3777,56.36,20.59,31.6,0
3778,56.37,19.2,68.2,0
3779,56.38,12.63,79.21,0
3780,56.4,3.93,77.28,0
3781,56.41,-9.02,76.28,0
3782,56.43,-16.05,74.48,0
3783,56.44,-8.21,72.92,0
3784,56.45,7.46,77.44,0
3785,56.47,18.58,81.95,0
3786,56.48,14.14,77.28,0
3787,56.49,-3.98,65.94,0
3788,56.51,-16.18,51.26,0
3789,56.52,-13.39,34.72,0
3790,56.53,-8.42,26.15,0
3791,56.54,-3.92,28.27,0
3792,56.56,12.01,32.7,1
3793,56.57,28.14,40.26,1
3794,56.59,21.55,51.3,1
3795,56.6,2.62,56.04,1
3796,56.61,-4.24,55.74,1
3797,56.63,-2.22,54.29,1
3798,56.64,-5.88,45.8,1
3799,56.65,-11.76,39.37,1
3800,56.67,-10.54,45.2,1
3801,56.68,-5.15,45.39,1
3802,56.69,-3.23,29.92,1
3803,56.71,-4.33,16.23,1
3804,56.72,-2.98,12.52,1
3805,56.73,-0.48,16.46,1
3806,56.74,-3.81,27.12,1
3807,56.76,-10.81,30.51,1
3808,56.77,-10.48,14.0,1
3809,56.78,-3.8,-7.43,1
3810,56.8,-2.63,-12.68,1
3811,56.81,-6.52,-7.36,1
3812,56.82,-9.07,-8.57,1
3813,56.84,-11.3,-10.53,1
3814,56.85,-12.91,-3.8,1
3815,56.86,-10.33,-2.82,1
3816,56.88,-4.36,-15.97,1
3817,56.89,-1.7,-25.24,1
3818,56.9,-4.34,-19.84,1
3819,56.92,-5.57,-12.69,1
3820,56.93,-4.14,-10.1,1
3821,56.94,-6.95,-4.6,1
3822,56.96,-12.67,-1.28,1
3823,56.97,-11.04,-13.02,1
3824,56.99,-2.87,-29.29,1
3825,57.0,-0.36,-30.08,1
3826,57.01,-2.86,-23.16,1
3827,57.03,1.94,-24.87,1
3828,57.04,10.68,-30.09,1
3829,57.05,9.14,-29.97,1
3830,57.06,2.57,-25.15,1
3831,57.08,5.31,-16.61,1
3832,57.09,14.09,-13.86,1
3833,57.11,14.2,-26.1,1
3834,57.12,2.41,-32.16,1
3835,57.13,-10.3,-16.66,1
3836,57.15,-15.39,-5.54,1
3837,57.16,-11.77,-14.28,1
3838,57.17,-4.77,-24.43,1
3839,57.19,-4.16,-25.96,1
3840,57.2,-10.25,-24.08,1
3841,57.21,-9.1,-20.66,1
3842,57.22,5.12,-17.7,1
3843,57.24,17.74,-16.99,1
3844,57.25,14.62,-20.42,1
3845,57.27,0.15,-29.15,1
3846,57.28,-11.64,-31.13,1
3847,57.29,-10.48,-19.88,1
3848,57.31,-1.15,-14.24,1
3849,57.32,2.14,-26.87,1
3850,57.33,-1.85,-40.3,1
3851,57.35,-1.04,-35.29,1
3852,57.36,6.57,-22.22,1
3853,57.37,11.18,-20.0,1
3854,57.38,7.0,-25.11,1
3855,57.4,-1.68,-21.42,1
3856,57.41,-5.41,-9.22,1
3857,57.42,-3.04,-4.22,1
3858,57.44,-3.03,-6.49,1
3859,57.45,-6.26,-5.69,1
3860,57.46,-5.69,-6.16,1
3861,57.48,-0.47,-9.92,1
3862,57.49,7.34,-10.26,1
3863,57.5,17.02,-9.31,1
3864,57.52,20.31,-9.26,1
3865,57.53,12.56,-6.95,1
3866,57.54,7.52,-4.6,1
3867,57.56,15.04,-5.92,1
3868,57.57,18.92,-9.4,1
3869,57.58,7.55,-10.07,1
3870,57.6,-0.01,-6.54,1
3871,57.61,5.51,-2.41,1
3872,57.63,6.72,1.87,1
3873,57.64,1.63,5.64,1
3874,57.65,2.13,4.73,1
3875,57.67,5.93,1.77,1
3876,57.68,5.79,2.11,1
3877,57.69,0.07,0.97,1
3878,57.71,-4.4,-3.12,1
3879,57.72,2.36,-1.0,1
3880,57.73,13.61,6.44,1
3881,57.75,13.23,12.12,1
3882,57.76,4.9,15.27,1
3883,57.77,-1.21,12.7,1
3884,57.79,-10.48,9.97,1
3885,57.8,-16.38,15.36,1
3886,57.81,-3.38,12.93,1
3887,57.83,8.63,-6.45,1
3888,57.84,-4.46,-18.2,1
3889,57.85,-18.08,-7.56,1
3890,57.87,-6.53,6.79,1
3891,57.88,7.7,9.36,1
3892,57.89,3.52,8.3,1
3893,57.9,-3.73,10.0,1
3894,57.92,-3.34,7.02,1
3895,57.93,-3.87,-1.94,1
3896,57.95,-9.34,-8.99,1
3897,57.96,-12.75,-24.02,1
3898,57.97,-4.94,-75.55,1
3899,57.99,8.79,-155.75,1
3900,58.0,17.47,-202.01,1
3901,58.01,24.19,-175.04,1
3902,58.02,30.06,-115.91,1
3903,58.04,25.27,-89.01,1
3904,58.05,12.46,-96.54,1
3905,58.06,7.8,-89.11,1
3906,58.08,6.26,-51.39,1
3907,58.09,-7.02,-19.87,1
3908,58.1,-17.25,-12.05,1
3909,58.12,-11.64,-2.51,1
3910,58.13,-6.65,21.98,1
3911,58.14,-9.14,49.81,1
3912,58.16,-12.67,74.91,0
3913,58.17,-16.29,96.19,0
3914,58.18,-15.42,111.44,0
3915,58.2,-9.93,120.72,0
3916,58.21,-10.4,123.87,0
3917,58.22,-10.56,123.33,0
3918,58.24,-2.0,125.31,0
3919,58.25,-2.08,133.0,0
3920,58.26,-14.19,141.15,0
3921,58.28,-20.87,142.56,0
3922,58.29,-18.12,138.75,0
3923,58.31,-4.33,137.21,0
3924,58.32,13.17,140.07,0
3925,58.33,14.9,137.4,0
3926,58.35,2.92,124.61,0
3927,58.36,-5.98,117.02,0
3928,58.37,-4.94,118.57,0
3929,58.38,2.2,112.79,0
3930,58.4,2.93,96.66,0
3931,58.41,-7.12,80.49,0
3932,58.43,-17.41,68.08,0
3933,58.44,-24.29,56.75,0
3934,58.45,-24.04,43.39,0
3935,58.47,-4.6,30.23,0
3936,58.48,22.12,19.58,0
3937,58.49,22.49,10.97,0
3938,58.51,-0.13,8.0,0
3939,58.52,-6.15,6.57,0
3940,58.53,8.03,-0.83,0
3941,58.54,12.57,-4.46,0
3942,58.56,4.26,1.94,1
3943,58.57,-2.93,5.89,1
3944,58.59,-5.21,-2.72,1
3945,58.6,-5.31,-17.65,1
3946,58.61,-6.65,-25.11,1
3947,58.63,-4.93,-21.82,1
3948,58.64,-1.27,-20.23,1
3949,58.65,-2.71,-27.56,1
3950,58.66,-1.44,-38.27,1
3951,58.68,1.6,-49.03,1
3952,58.69,-9.33,-54.26,1
3953,58.7,-22.19,-47.31,1
3954,58.72,-17.4,-41.26,1
3955,58.73,-5.23,-47.73,1
3956,58.74,3.08,-52.33,1
3957,58.76,8.26,-49.03,1
3958,58.77,8.14,-47.49,1
3959,58.78,7.1,-47.89,1
3960,58.8,13.58,-49.75,1
3961,58.81,26.9,-52.72,1
3962,58.82,30.08,-50.01,1
3963,58.84,14.23,-47.26,1
3964,58.85,1.62,-55.54,1
3965,58.86,-1.66,-67.13,1
3966,58.88,-11.0,-63.45,1
3967,58.89,-11.03,-46.66,1
3968,58.9,3.52,-37.61,1
3969,58.92,3.18,-40.51,1
3970,58.93,-5.4,-45.46,1
3971,58.95,-6.15,-47.27,1
3972,58.96,-20.02,-45.38,1
3973,58.97,-19.9,-45.25,1
3974,58.99,34.22,-48.81,1
3975,59.0,70.0,-48.1,1
3976,59.01,24.68,-45.25,1
3977,59.03,-24.98,-55.0,1
3978,59.04,-3.45,-62.78,1
3979,59.05,46.65,-36.67,1
3980,59.06,49.66,-3.37,1
3981,59.08,3.52,-8.61,1
3982,59.09,-28.3,-28.52,1
3983,59.11,4.78,-30.02,1
3984,59.12,68.96,-25.71,1
3985,59.13,77.39,-21.51,1
3986,59.15,16.03,-24.48,1
3987,59.16,-36.55,-43.48,1
3988,59.17,-36.26,-47.19,1
3989,59.19,-33.94,-26.87,1
3990,59.2,-53.52,-21.7,1
3991,59.21,-38.71,-32.45,1
3992,59.22,5.37,-25.17,1
3993,59.24,8.9,-6.08,1
3994,59.25,-15.98,-6.74,1
3995,59.27,-8.81,-21.42,1
3996,59.28,19.4,-21.59,1
3997,59.29,19.99,-10.62,1
3998,59.3,-5.44,-9.86,1
3999,59.32,-9.89,-13.36,1
4000,59.33,16.43,-4.24,1
4001,59.34,24.74,10.43,1
4002,59.36,-1.63,13.31,1
4003,59.37,-24.63,5.61,1
4004,59.38,-26.13,-4.52,1
4005,59.4,-18.94,-16.3,1
4006,59.41,-8.31,-18.23,1
4007,59.42,10.06,-0.01,1
4008,59.44,21.92,18.81,1
4009,59.45,4.88,19.84,1
4010,59.46,-25.0,15.09,1
4011,59.48,-29.04,17.8,1
4012,59.49,-9.65,21.45,1
4013,59.5,-5.09,19.16,1
4014,59.52,-20.7,13.28,1
4015,59.53,-22.41,7.31,1
4016,59.54,-3.47,6.12,1
4017,59.56,2.89,11.49,1
4018,59.57,-14.82,19.9,1
4019,59.59,-26.46,26.85,1
4020,59.6,-13.26,23.29,1
4021,59.61,5.68,11.27,1
4022,59.63,7.97,8.5,1
4023,59.64,-0.38,14.51,1
4024,59.65,2.58,14.98,1
4025,59.67,17.2,12.42,1
4026,59.68,23.77,16.11,1
4027,59.69,17.7,23.41,1
4028,59.71,3.78,27.63,1
4029,59.72,-16.65,28.04,1
4030,59.73,-28.37,27.04,1
4031,59.75,-16.96,28.83,1
4032,59.76,-0.09,32.0,1
4033,59.77,-3.36,31.57,1
4034,59.79,-17.59,32.36,1
4035,59.8,-17.66,33.52,1
4036,59.81,-5.67,23.38,1
4037,59.83,2.28,7.89,1
4038,59.84,6.6,1.36,1
4039,59.85,14.66,1.7,1
4040,59.87,21.53,2.46,1
4041,59.88,13.79,3.89,1
4042,59.89,-7.75,2.7,1
4043,59.9,-19.58,0.07,1
4044,59.92,-6.26,7.28,1
4045,59.93,14.04,22.18,1
4046,59.94,17.12,24.91,1
4047,59.96,8.62,10.41,1
4048,59.97,4.14,-2.85,1
4049,59.98,-0.96,-3.07,1
4050,60.0,-7.97,3.6,1
4051,60.01,-1.81,11.24,1
4052,60.02,11.14,16.07,1
4053,60.04,7.54,14.16,1
4054,60.05,-9.4,12.78,1
4055,60.06,-20.14,18.2,1
4056,60.08,-19.4,21.21,1
4057,60.09,-9.95,15.9,1
4058,60.1,6.84,7.16,1
4059,60.12,23.52,0.77,1
4060,60.13,22.17,5.92,1
4061,60.14,-2.11,24.28,1
4062,60.16,-19.98,41.59,2
4063,60.17,-6.18,62.99,2
4064,60.18,16.14,124.68,2
4065,60.2,13.94,213.61,2
4066,60.21,-1.25,262.13,2
4067,60.22,-4.0,292.7,2
4068,60.24,1.53,344.32,2
4069,60.25,9.64,316.25,2
4070,60.27,24.48,181.06,2
4071,60.28,23.76,85.95,2
4072,60.29,-3.98,71.92,2
4073,60.31,-18.3,23.63,2
4074,60.32,-3.71,-92.23,2
4075,60.33,0.81,-194.61,2
4076,60.35,-12.75,-238.15,2
4077,60.36,-9.05,-232.84,2
4078,60.37,13.8,-203.91,2
4079,60.38,23.61,-185.47,2
4080,60.4,14.83,-180.97,2
4081,60.41,9.01,-171.95,2
4082,60.43,15.73,-159.72,2
4083,60.44,23.37,-143.73,2
4084,60.45,21.77,-123.18,2
4085,60.47,15.21,-121.01,2
4086,60.48,12.89,-138.23,2
4087,60.49,18.71,-137.7,2
4088,60.51,21.97,-114.39,2
4089,60.52,13.1,-109.44,2
4090,60.53,2.1,-135.95,2
4091,60.54,-6.69,-153.63,2
4092,60.56,-14.08,-134.59,1
4093,60.57,-10.34,-102.84,1
4094,60.58,-6.63,-81.94,1
4095,60.6,-17.46,-61.8,1
4096,60.61,-23.31,-37.85,1
4097,60.62,-17.55,-20.44,1
4098,60.64,-17.08,-9.91,1
4099,60.65,-18.02,-2.18,1
4100,60.66,-10.21,0.97,1
4101,60.68,0.62,1.71,1
4102,60.69,7.46,9.96,1
4103,60.7,5.65,22.69,1
4104,60.72,-3.68,21.2,1
4105,60.73,-6.1,11.29,1
4106,60.74,4.19,15.28,1
4107,60.76,14.13,28.28,1
4108,60.77,15.49,39.99,1
4109,60.78,11.29,49.4,1
4110,60.8,3.41,45.34,1
4111,60.81,-3.77,29.95,1
4112,60.82,-1.72,25.19,1
4113,60.84,7.05,33.2,1
4114,60.85,9.45,39.34,1
4115,60.87,5.26,38.41,1
4116,60.88,4.56,33.0,1
4117,60.89,4.56,27.73,1
4118,60.9,-2.07,29.58,1
4119,60.92,-6.99,41.13,1
4120,60.93,0.06,53.5,1
4121,60.95,7.18,55.09,1
4122,60.96,-3.31,46.19,1
4123,60.97,-18.44,37.67,1
4124,60.99,-17.36,38.81,1
4125,61.0,-10.71,44.73,1
4126,61.01,-10.47,46.67,1
4127,61.03,-6.59,48.31,1
4128,61.04,1.83,49.78,1
4129,61.05,1.49,44.59,1
4130,61.06,-8.96,39.08,1
4131,61.08,-19.23,42.01,1
4132,61.09,-19.66,48.75,1
4133,61.11,-11.35,50.5,1
4134,61.12,-5.9,45.06,1
4135,61.13,-6.92,38.92,1
4136,61.15,-5.96,38.4,1
4137,61.16,-0.14,40.36,1
4138,61.17,4.1,35.97,1
4139,61.19,0.25,28.59,1
4140,61.2,-6.88,28.39,1
4141,61.21,-5.03,29.29,1
4142,61.22,5.21,22.53,1
4143,61.24,10.01,18.47,1
4144,61.25,0.16,21.09,1
4145,61.26,-13.97,19.81,1
4146,61.28,-12.02,19.23,1
4147,61.29,4.92,27.1,1
4148,61.3,13.52,28.96,1
4149,61.32,6.52,18.99,1
4150,61.33,-0.18,13.55,1
4151,61.34,-0.55,15.78,1
4152,61.36,-2.25,13.11,1
4153,61.37,-3.06,4.8,1
4154,61.38,2.17,-0.38,1
4155,61.4,3.67,0.75,1
4156,61.41,-4.41,5.29,1
4157,61.42,-9.02,8.54,1
4158,61.44,-3.6,4.6,1
4159,61.45,1.07,-4.74,1
4160,61.46,0.63,-8.69,1
4161,61.48,0.23,-6.25,1
4162,61.49,-0.85,-7.34,1
4163,61.5,-4.45,-6.07,1
4164,61.52,-3.09,5.51,1
4165,61.53,8.67,9.88,1
4166,61.54,18.11,-5.46,1
4167,61.56,11.24,-20.23,1
4168,61.57,0.37,-15.57,1
4169,61.59,-1.17,-2.0,1
4170,61.6,-4.16,3.16,1
4171,61.61,-8.68,-2.06,1
4172,61.63,-3.88,-9.74,1
4173,61.64,-1.29,-15.11,1
4174,61.65,-7.75,-19.22,1
4175,61.67,-7.08,-18.68,1
4176,61.68,-0.55,-11.3,1
4177,61.69,-8.53,-7.14,1
4178,61.71,-20.26,-10.33,1
4179,61.72,-7.86,-13.82,1
4180,61.73,16.04,-15.49,1
4181,61.75,17.55,-14.46,1
4182,61.76,2.18,-11.62,1
4183,61.77,-1.61,-15.94,1
4184,61.79,1.7,-24.13,1
4185,61.8,-2.29,-22.47,1
4186,61.81,-0.24,-16.13,1
4187,61.83,11.93,-16.7,1
4188,61.84,15.83,-18.45,1
4189,61.85,6.99,-18.61,1
4190,61.86,-1.31,-24.14,1
4191,61.88,-0.85,-28.93,1
4192,61.89,1.91,-22.3,1
4193,61.9,4.42,-11.75,1
4194,61.92,8.66,-11.24,1
4195,61.93,5.32,-16.58,1
4196,61.94,-4.83,-17.19,1
4197,61.96,-6.17,-19.81,1
4198,61.97,-0.23,-29.29,1
4199,61.98,-1.01,-30.34,1
4200,62.0,-2.73,-15.89,1
4201,62.01,11.92,-1.98,1
4202,62.02,28.41,-5.12,1
4203,62.04,16.35,-17.19,1
4204,62.05,-11.31,-12.45,1
4205,62.06,-17.29,5.7,1
4206,62.08,-0.55,4.15,1
4207,62.09,11.89,-16.57,1
4208,62.1,8.68,-22.5,1
4209,62.12,-0.33,-7.4,1
4210,62.13,-3.43,1.25,1
4211,62.14,0.76,-9.99,1
4212,62.16,1.13,-25.0,2
4213,62.17,-6.48,-29.25,2
4214,62.19,-12.72,-25.26,2
4215,62.2,-12.44,3.63,2
4216,62.21,-7.52,90.4,2
4217,62.22,-5.83,172.54,2
4218,62.24,-7.93,88.64,2
4219,62.25,1.67,-193.77,2
4220,62.27,22.07,-369.0,2
4221,62.28,39.65,-96.66,2
4222,62.29,60.81,329.85,2
4223,62.31,83.93,340.74,2
4224,62.32,76.1,66.79,2
4225,62.33,34.26,-20.03,2
4226,62.35,0.66,113.94,2
4227,62.36,-12.49,247.98,2
4228,62.37,-20.47,228.54,2
4229,62.38,-18.11,37.7,2
4230,62.4,-4.23,-165.7,2
4231,62.41,-7.95,-154.29,2
4232,62.43,-36.76,61.48,2
4233,62.44,-29.35,162.05,2
4234,62.45,29.43,29.95,2
4235,62.47,41.75,-62.0,2
4236,62.48,-20.03,-32.46,2
4237,62.49,-52.26,-73.45,2
4238,62.5,-29.38,-138.13,2
4239,62.52,-29.49,-94.79,2
4240,62.53,-54.11,-68.37,2
4241,62.54,-52.19,-108.11,2
4242,62.56,-31.09,-62.01,1
4243,62.57,-10.89,44.26,1
4244,62.58,-4.94,23.22,1
4245,62.6,-30.42,-97.99,1
4246,62.61,-51.44,-117.41,1
4247,62.62,-23.82,-59.43,1
4248,62.64,15.24,-78.01,1
4249,62.65,8.83,-114.62,1
4250,62.66,-26.9,-102.51,1
4251,62.68,-33.11,-94.44,1
4252,62.69,-5.76,-65.98,1
4253,62.7,8.7,-10.09,1
4254,62.72,3.08,5.14,1
4255,62.73,-2.54,-22.86,1
4256,62.74,-10.01,-59.27,1
4257,62.76,-18.04,-67.12,1
4258,62.77,-15.86,-33.68,1
4259,62.78,-13.22,-26.76,1
4260,62.8,-18.54,-68.79,1
4261,62.81,-11.17,-84.57,1
4262,62.825,13.81,-47.87,1
4263,62.84,25.75,-1.12,1
4264,62.85,13.5,23.92,1
4265,62.87,0.22,14.77,1
4266,62.88,8.91,5.12,1
4267,62.89,32.79,38.77,1
4268,62.9,27.88,47.56,1
4269,62.92,-11.99,-20.96,1
4270,62.93,-19.43,-58.2,1
4271,62.95,24.74,-23.59,1
4272,62.96,54.88,-29.32,1
4273,62.97,29.69,-66.7,1
4274,62.99,-18.71,-25.9,1
4275,63.0,-34.44,43.56,1
4276,63.01,-12.67,46.84,1
4277,63.03,7.75,21.98,1
4278,63.04,14.34,19.03,1
4279,63.05,14.29,39.26,1
4280,63.06,7.38,59.83,1
4281,63.08,8.97,51.35,1
4282,63.09,20.2,33.86,1
4283,63.11,18.6,22.44,1
4284,63.12,14.71,4.08,1
4285,63.13,18.38,10.02,1
4286,63.14,14.34,40.39,1
4287,63.16,12.19,30.51,1
4288,63.17,19.14,-12.75,1
4289,63.18,18.4,-26.9,1
4290,63.2,11.22,2.85,1
4291,63.21,10.93,59.23,1
4292,63.22,12.82,100.58,1
4293,63.24,3.75,84.4,1
4294,63.25,-10.37,28.75,1
4295,63.26,-12.81,2.64,1
4296,63.28,-2.59,32.01,1
4297,63.29,3.35,53.33,1
4298,63.3,-0.58,40.08,1
4299,63.32,8.32,37.05,1
4300,63.33,30.57,50.4,1
4301,63.34,22.14,69.05,1
4302,63.36,-21.2,82.36,1
4303,63.37,-34.76,65.74,1
4304,63.38,-7.6,48.96,1
4305,63.4,-2.1,72.6,1
4306,63.41,-12.55,98.55,1
4307,63.42,6.35,65.68,1
4308,63.44,27.25,-17.2,1
4309,63.45,22.09,-58.19,1
4310,63.46,11.48,-6.29,1
4311,63.48,1.43,60.52,1
4312,63.49,-11.72,68.46,1
4313,63.51,-15.83,40.23,1
4314,63.52,-10.25,11.45,1
4315,63.53,-8.19,-20.0,1
4316,63.54,-7.6,-47.7,1
4317,63.56,-0.25,-40.97,1
4318,63.57,0.18,-6.53,1
4319,63.59,-13.09,24.62,1
4320,63.6,-17.65,42.86,1
4321,63.61,-1.35,33.22,1
4322,63.63,17.76,9.69,1
4323,63.64,17.95,25.24,1
4324,63.65,2.06,50.46,1
4325,63.67,-9.21,16.25,1
4326,63.68,-5.06,-30.06,1
4327,63.69,8.72,-24.34,1
4328,63.71,20.37,-6.37,1
4329,63.72,22.54,-1.57,1
4330,63.73,12.29,14.37,1
4331,63.75,-8.17,22.48,1
4332,63.76,-17.51,-8.92,1
4333,63.77,-4.88,-46.77,1
4334,63.78,2.18,-43.73,1
4335,63.8,-3.05,-21.95,1
4336,63.81,6.93,-15.52,1
4337,63.82,20.43,-24.8,1
4338,63.84,4.92,-43.3,1
4339,63.85,-14.63,-43.64,1
4340,63.86,3.42,-24.04,1
4341,63.88,26.38,-36.72,1
4342,63.89,3.96,-56.6,1
4343,63.9,-28.65,-13.31,1
4344,63.92,-25.9,12.33,1
4345,63.93,-12.31,-32.7,1
4346,63.94,-9.68,-27.4,1
4347,63.96,-6.12,26.42,1
4348,63.97,2.85,26.79,1
4349,63.98,6.82,0.79,1
4350,64.0,-5.6,-8.16,1
4351,64.01,-21.68,7.02,1
4352,64.02,-14.46,48.65,1
4353,64.04,10.29,71.71,1
4354,64.05,20.45,49.41,1
4355,64.06,12.1,15.2,1
4356,64.08,7.18,-8.05,1
4357,64.09,1.14,-15.79,1
4358,64.1,-19.33,2.61,1
4359,64.12,-30.83,30.75,1
4360,64.13,-17.8,32.17,1
4361,64.14,-8.55,14.2,1
4362,64.16,-11.69,10.26,0
4363,64.17,-1.87,11.42,0
4364,64.18,9.5,-6.06,0
4365,64.2,-0.41,-36.19,0
4366,64.21,-7.13,-60.33,0
4367,64.22,6.71,-56.25,0
4368,64.24,14.39,-20.51,0
4369,64.25,-2.03,13.86,0
4370,64.26,-22.6,24.56,0
4371,64.28,-17.54,14.13,0
4372,64.29,9.31,-30.72,0
4373,64.3,16.23,-104.89,0
4374,64.32,-10.75,-158.72,0
4375,64.33,-28.42,-181.79,0
4376,64.34,-12.62,-204.02,0
4377,64.36,6.79,-220.46,0
4378,64.37,8.61,-212.44,0
4379,64.38,4.46,-182.09,0
4380,64.4,7.46,-139.13,0
4381,64.41,12.79,-90.83,0
4382,64.42,4.5,-42.46,0
4383,64.44,-10.11,1.76,0
4384,64.45,-0.63,39.09,0
4385,64.46,26.13,64.27,0
4386,64.48,28.73,75.31,0
4387,64.49,5.27,81.76,0
4388,64.5,-12.19,88.43,0
4389,64.52,-14.79,91.08,0
4390,64.53,-13.22,93.5,0
4391,64.54,-14.49,100.49,0
4392,64.56,-14.01,101.43,1
4393,64.57,-3.2,87.31,1
4394,64.58,7.81,75.25,1
4395,64.6,4.0,82.14,1
4396,64.61,-7.04,88.86,1
4397,64.62,-11.64,72.09,1
4398,64.64,-8.52,43.61,1
4399,64.65,-1.32,29.73,1
4400,64.66,6.23,35.53,1
4401,64.68,9.91,48.7,1
4402,64.69,4.8,59.54,1
4403,64.7,-7.88,64.88,1
4404,64.72,-14.44,63.57,1
4405,64.73,-5.71,57.09,1
4406,64.74,7.76,51.51,1
4407,64.76,12.59,53.12,1
4408,64.77,8.38,57.89,1
4409,64.79,0.84,53.92,1
4410,64.8,-5.1,37.44,1
4411,64.81,-6.16,20.73,1
4412,64.82,-2.08,20.63,1
4413,64.84,6.66,33.34,1
4414,64.85,12.44,35.98,1
4415,64.86,4.82,25.05,1
4416,64.88,-4.91,18.65,1
4417,64.89,-3.18,16.38,1
4418,64.9,0.22,8.66,1
4419,64.92,-0.92,4.36,1
4420,64.93,-3.52,7.68,1
4421,64.94,-5.29,7.87,1
4422,64.96,1.66,4.91,1
4423,64.97,11.77,3.38,1
4424,64.98,10.71,-0.9,1
4425,65.0,5.32,-4.51,1
4426,65.01,4.02,-3.64,1
4427,65.02,-0.5,-7.02,1
4428,65.04,-9.91,-12.12,1
4429,65.05,-11.35,-8.11,1
4430,65.06,2.05,-4.42,1
4431,65.08,14.47,-9.66,1
4432,65.09,11.14,-14.04,1
4433,65.1,1.24,-18.07,1
4434,65.12,-7.17,-28.63,1
4435,65.13,-12.94,-30.71,1
4436,65.14,-8.95,-16.76,1
4437,65.16,0.25,-7.44,1
4438,65.17,1.77,-11.65,1
4439,65.18,-4.52,-18.71,1
4440,65.2,-12.02,-26.93,1
4441,65.21,-12.07,-35.35,1
4442,65.22,-2.85,-35.68,1
4443,65.24,2.56,-26.43,1
4444,65.25,2.98,-17.57,1
4445,65.26,9.04,-20.34,1
4446,65.28,13.31,-29.66,1
4447,65.29,8.77,-31.25,1
4448,65.3,5.92,-26.18,1
4449,65.32,7.67,-24.61,1
4450,65.33,7.7,-26.69,1
4451,65.34,6.46,-25.18,1
4452,65.36,8.19,-21.9,1
4453,65.37,7.67,-26.1,1
4454,65.38,-4.73,-32.36,1
4455,65.4,-20.61,-27.63,1
4456,65.41,-22.35,-20.69,1
4457,65.42,-11.25,-24.91,1
4458,65.44,0.23,-29.32,1
4459,65.45,8.22,-27.19,1
4460,65.46,11.71,-26.72,1
4461,65.48,7.88,-22.82,1
4462,65.49,2.84,-16.16,1
4463,65.5,4.52,-22.7,1
4464,65.52,5.94,-35.86,1
4465,65.53,1.88,-36.06,1
4466,65.54,2.31,-27.09,1
4467,65.56,10.26,-24.7,1
4468,65.57,10.94,-27.21,1
4469,65.58,-3.91,-25.05,1
4470,65.6,-17.49,-18.75,1
4471,65.61,-8.97,-15.45,1
4472,65.62,10.31,-20.07,1
4473,65.64,11.22,-26.04,1
4474,65.65,-2.16,-20.88,1
4475,65.66,-6.87,-7.6,1
4476,65.68,-4.93,0.44,1
4477,65.69,-4.42,-1.36,1
4478,65.7,-1.04,-10.55,1
4479,65.72,1.31,-15.99,1
4480,65.73,-2.27,-4.98,1
4481,65.74,-3.29,6.19,1
4482,65.76,5.06,-7.31,1
4483,65.77,13.12,-29.51,1
4484,65.78,5.73,-26.88,1
4485,65.8,-10.64,-5.27,1
4486,65.81,-16.4,2.93,1
4487,65.82,-13.1,-4.47,1
4488,65.84,-10.57,-3.95,1
4489,65.85,-4.1,7.76,1
4490,65.86,0.74,16.12,1
4491,65.88,-6.19,13.69,1
4492,65.89,-9.06,2.74,1
4493,65.9,0.15,-5.68,1
4494,65.92,3.01,0.67,1
4495,65.93,-2.47,13.87,1
4496,65.94,-0.44,13.38,1
4497,65.96,4.57,4.53,1
4498,65.97,0.06,6.17,1
4499,65.98,-1.21,9.53,1
4500,66.0,14.22,2.05,1
4501,66.01,27.75,0.62,1
4502,66.02,20.46,13.73,1
4503,66.04,7.77,21.41,1
4504,66.05,8.3,16.0,1
4505,66.06,12.58,7.94,1
4506,66.08,4.02,4.14,1
4507,66.09,-13.66,6.78,1
4508,66.11,-24.55,14.06,1
4509,66.12,-21.01,22.83,1
4510,66.13,-3.97,26.23,1
4511,66.14,18.55,4.5,1
4512,66.16,25.34,-52.04,0
4513,66.17,7.64,-110.88,0
4514,66.18,-10.91,-131.44,0
4515,66.2,-9.03,-122.11,0
4516,66.21,9.93,-113.81,0
4517,66.22,27.7,-109.97,0
4518,66.24,25.0,-103.0,0
4519,66.25,12.38,-92.4,0
4520,66.26,16.36,-71.62,0
4521,66.28,26.54,-42.4,0
4522,66.29,17.55,-20.74,0
4523,66.3,-0.88,-7.08,0
4524,66.32,-8.37,6.46,0
4525,66.33,-8.93,13.57,0
4526,66.34,-10.7,17.07,0
4527,66.36,-11.47,35.03,0
4528,66.37,-17.38,63.98,0
4529,66.38,-27.33,82.25,0
4530,66.4,-20.73,90.91,0
4531,66.41,-4.56,105.95,0
4532,66.42,-6.87,120.35,0
4533,66.44,-17.97,116.42,0
4534,66.45,-12.2,104.11,0
4535,66.46,1.22,111.0,0
4536,66.48,-0.99,134.26,0
4537,66.49,-12.62,141.35,0
4538,66.5,-10.48,127.47,0
4539,66.52,2.81,117.27,0
4540,66.53,3.15,120.43,0
4541,66.54,-9.89,128.52,0
4542,66.56,-10.71,124.91,1
4543,66.57,3.83,103.7,1
4544,66.58,8.29,85.32,1
4545,66.6,-1.75,83.23,1
4546,66.61,-4.94,84.44,1
4547,66.62,-0.52,79.4,1
4548,66.64,-2.74,74.72,1
4549,66.65,-8.05,71.43,1
4550,66.66,-11.77,60.88,1
4551,66.68,-14.7,45.19,1
4552,66.69,-10.95,35.47,1
4553,66.7,1.14,33.64,1
4554,66.72,9.11,30.44,1
4555,66.73,1.97,20.11,1
4556,66.75,-8.45,9.1,1
4557,66.76,-10.79,6.42,1
4558,66.77,-12.69,8.52,1
4559,66.79,-8.64,1.98,1
4560,66.8,8.25,-12.15,1
4561,66.81,18.22,-18.08,1
4562,66.82,12.11,-16.73,1
4563,66.84,8.6,-20.16,1
4564,66.85,15.74,-25.21,1
4565,66.86,15.86,-28.08,1
4566,66.88,2.48,-32.71,1
4567,66.89,-0.5,-37.45,1
4568,66.9,12.24,-38.73,1
4569,66.92,14.04,-42.43,1
4570,66.93,-1.34,-53.3,1
4571,66.94,-12.61,-60.05,1
4572,66.96,-9.37,-52.47,1
4573,66.97,-1.95,-41.57,1
4574,66.98,0.3,-43.75,1
4575,67.0,1.01,-55.94,1
4576,67.01,3.55,-57.49,1
4577,67.02,6.28,-47.41,1
4578,67.04,6.6,-50.19,1
4579,67.05,5.87,-64.46,1
4580,67.06,12.56,-64.41,1
4581,67.08,20.81,-52.06,1
4582,67.09,12.54,-46.69,1
4583,67.1,-6.68,-48.66,1
4584,67.12,-13.67,-51.81,1
4585,67.13,-1.08,-56.67,1
4586,67.14,10.53,-56.91,1
4587,67.16,2.36,-48.58,1
4588,67.17,-8.72,-45.41,1
4589,67.18,-2.92,-52.61,1
4590,67.2,4.97,-54.99,1
4591,67.21,-2.24,-45.82,1
4592,67.22,-12.35,-36.23,1
4593,67.24,-6.95,-36.38,1
4594,67.25,8.0,-44.29,1
4595,67.26,14.78,-47.37,1
4596,67.28,10.39,-40.44,1
4597,67.29,0.43,-34.9,1
4598,67.3,-8.57,-35.2,1
4599,67.32,-9.22,-27.49,1
4600,67.33,-8.2,-12.24,1
4601,67.34,-11.89,-13.45,1
4602,67.36,-8.79,-30.08,1
4603,67.37,2.29,-33.42,1
4604,67.38,6.97,-23.8,1
4605,67.4,2.68,-20.54,1
4606,67.41,-1.48,-21.76,1
4607,67.43,0.8,-22.06,1
4608,67.44,5.75,-22.29,1
4609,67.45,4.58,-19.52,1
4610,67.46,1.19,-17.89,1
4611,67.48,6.24,-21.04,1
4612,67.49,11.4,-16.31,1
4613,67.5,3.98,-0.69,1
4614,67.52,-9.0,5.85,1
4615,67.53,-12.15,-1.53,1
4616,67.54,-6.29,-2.88,1
4617,67.56,-6.34,-0.03,1
4618,67.57,-14.04,-7.97,1
4619,67.58,-14.41,-13.17,1
4620,67.6,-3.88,-7.29,1
4621,67.61,3.34,-5.15,1
4622,67.62,-2.35,-5.28,1
4623,67.64,-13.8,5.86,1
4624,67.65,-15.88,20.64,1
4625,67.66,-6.65,20.65,1
4626,67.68,-4.06,9.4,1
4627,67.69,-10.86,2.86,1
4628,67.7,-3.18,4.42,1
4629,67.72,20.68,9.93,1
4630,67.73,24.83,12.42,1
4631,67.74,-2.38,10.72,1
4632,67.76,-18.25,14.5,1
4633,67.77,1.12,22.48,1
4634,67.78,17.95,20.31,1
4635,67.8,6.74,11.26,1
4636,67.81,-2.33,13.1,1
4637,67.82,7.67,20.95,1
4638,67.84,10.9,14.4,1
4639,67.85,5.27,1.59,1
4640,67.86,14.43,6.49,1
4641,67.88,22.31,20.64,1
4642,67.89,6.42,18.98,1
4643,67.9,-8.51,9.42,1
4644,67.92,-5.24,11.21,1
4645,67.93,-2.62,17.42,1
4646,67.94,-7.3,18.63,1
4647,67.96,-9.07,20.56,1
4648,67.97,-3.74,22.54,1
4649,67.98,4.59,15.8,1
4650,68.0,5.4,8.36,1
4651,68.01,-1.07,16.54,1
4652,68.02,-4.3,28.73,1
4653,68.04,-2.56,24.8,1
4654,68.05,1.23,15.2,1
4655,68.06,4.4,16.9,1
4656,68.08,4.5,25.51,1
4657,68.09,2.4,31.04,1
4658,68.11,-2.02,30.88,1
4659,68.12,-5.33,25.91,1
4660,68.13,-1.15,22.87,1
4661,68.14,3.59,28.03,1
4662,68.16,-1.39,30.18,2
4663,68.17,-7.37,19.45,2
4664,68.18,-4.77,9.08,2
4665,68.2,-2.22,10.55,2
4666,68.21,-5.02,18.86,2
4667,68.22,-9.47,22.76,2
4668,68.24,-16.62,17.47,2
4669,68.25,-20.68,13.4,2
4670,68.26,-14.35,17.37,2
4671,68.28,-6.45,21.25,2
4672,68.29,-0.99,19.01,2
4673,68.3,7.05,13.93,2
4674,68.32,8.17,15.54,2
4675,68.33,-3.13,38.1,2
4676,68.34,-8.48,96.1,2
4677,68.36,0.03,193.9,2
4678,68.37,8.44,302.79,2
4679,68.38,10.98,368.67,2
4680,68.4,10.21,359.94,2
4681,68.41,10.47,286.95,2
4682,68.42,19.58,179.0,2
4683,68.44,33.16,69.31,2
4684,68.45,32.05,-14.15,2
4685,68.46,5.32,-74.27,2
4686,68.48,-28.82,-136.66,2
4687,68.49,-45.17,-197.47,2
4688,68.5,-46.72,-231.51,2
4689,68.52,-43.65,-241.06,2
4690,68.53,-25.0,-241.56,2
4691,68.54,4.13,-233.5,2
4692,68.56,13.22,-212.62,1
4693,68.57,2.71,-181.94,1
4694,68.58,-2.56,-151.96,1
4695,68.6,-0.21,-132.93,1
4696,68.61,9.24,-122.26,1
4697,68.62,26.46,-110.49,1
4698,68.64,31.66,-101.66,1
4699,68.65,14.77,-104.62,1
4700,68.66,-2.12,-112.99,1
4701,68.68,2.03,-112.9,1
4702,68.69,16.87,-99.21,1
4703,68.7,20.67,-80.99,1
4704,68.72,16.46,-64.78,1
4705,68.73,15.76,-47.58,1
4706,68.75,9.19,-34.14,1
4707,68.76,-1.71,-32.89,1
4708,68.77,6.8,-38.81,1
4709,68.79,24.69,-39.83,1
4710,68.8,15.24,-26.93,1
4711,68.81,-7.67,-5.54,1
4712,68.82,-1.95,5.43,1
4713,68.84,15.81,0.99,1
4714,68.85,8.34,-0.54,1
4715,68.86,-4.88,13.08,1
4716,68.88,4.19,27.5,1
4717,68.89,13.78,26.53,1
4718,68.9,0.4,19.44,1
4719,68.92,-13.13,18.86,1
4720,68.93,-0.22,20.85,1
4721,68.94,19.41,22.15,1
4722,68.96,13.35,22.53,1
4723,68.97,-9.08,18.76,1
4724,68.98,-14.19,17.05,1
4725,69.0,0.45,30.33,1
4726,69.01,8.86,53.42,1
4727,69.02,1.94,59.34,1
4728,69.04,-8.78,42.14,1
4729,69.05,-14.72,31.38,1
4730,69.06,-13.13,38.69,1
4731,69.08,-2.51,46.64,1
4732,69.09,11.98,48.45,1
4733,69.1,20.81,47.43,1
4734,69.12,18.81,44.33,1
4735,69.13,11.49,45.19,1
4736,69.14,9.19,52.97,1
4737,69.16,11.38,57.01,1
4738,69.17,9.07,49.68,1
4739,69.18,-0.61,43.01,1
4740,69.2,-11.94,46.63,1
4741,69.21,-18.46,48.87,1
4742,69.22,-20.9,44.33,1
4743,69.24,-21.11,41.45,1
4744,69.25,-13.9,39.02,1
4745,69.26,-2.17,33.91,1
4746,69.28,-1.67,29.45,1
4747,69.29,-12.55,23.71,1
4748,69.3,-16.64,17.79,1
4749,69.32,-12.74,19.9,1
4750,69.33,-14.05,27.94,1
4751,69.34,-17.99,34.74,1
4752,69.36,-16.41,37.4,1
4753,69.37,-14.84,31.98,1
4754,69.38,-19.14,23.32,1
4755,69.4,-19.64,23.52,1
4756,69.41,-7.73,26.04,1
4757,69.43,-0.19,17.09,1
4758,69.44,-9.36,9.14,1
4759,69.45,-15.29,14.45,1
4760,69.46,-5.51,20.13,1
4761,69.48,7.44,17.08,1
4762,69.49,16.24,10.02,1
4763,69.5,17.71,3.79,1
4764,69.52,5.41,2.49,1
4765,69.53,-11.83,7.29,1
4766,69.54,-13.87,10.05,1
4767,69.56,2.03,2.56,1
4768,69.57,14.12,-6.96,1
4769,69.58,3.32,-0.42,1
4770,69.6,-15.82,19.04,1
4771,69.61,-12.31,25.84,1
4772,69.62,9.11,14.07,1
4773,69.64,12.87,4.08,1
4774,69.65,-6.21,1.98,1
4775,69.66,-15.87,1.31,1
4776,69.68,-3.24,5.92,1
4777,69.69,12.06,12.46,1
4778,69.7,11.98,7.66,1
4779,69.72,-1.22,-5.75,1
4780,69.73,-10.74,-11.69,1
4781,69.74,-7.81,-6.64,1
4782,69.76,-0.56,-1.38,1
4783,69.77,6.22,0.11,1
4784,69.78,11.54,-3.0,1
4785,69.8,7.92,-16.26,1
4786,69.81,-3.54,-25.77,1
4787,69.82,-9.33,-10.29,1
4788,69.84,-6.93,12.55,1
4789,69.85,-6.15,11.35,1
4790,69.86,-7.51,-10.52,1
4791,69.88,-1.56,-26.41,1
4792,69.89,9.02,-21.97,1
4793,69.9,7.98,-12.12,1
4794,69.92,-4.11,-14.17,1
4795,69.93,-7.91,-15.86,1
4796,69.94,-2.49,-6.53,1
4797,69.96,-3.14,-5.35,1
4798,69.97,-5.64,-18.7,1
4799,69.98,1.74,-22.95,1
4800,70.0,9.6,-14.15,1
4801,70.01,8.14,-13.63,1
4802,70.02,2.9,-23.98,1
4803,70.04,-3.88,-27.37,1
4804,70.05,-7.75,-18.61,1
4805,70.06,2.95,-12.68,1
4806,70.08,19.07,-18.51,1
4807,70.09,19.25,-23.06,1
4808,70.11,3.27,-18.02,1
4809,70.12,-12.61,-17.18,1
4810,70.13,-15.78,-25.67,1
4811,70.14,-7.62,-26.04,1
4812,70.16,1.44,-12.7,2
4813,70.17,7.81,-2.18,2
4814,70.18,12.09,2.95,2
4815,70.2,8.63,14.89,2
4816,70.21,-6.46,42.57,2
4817,70.22,-24.11,59.69,2
4818,70.24,-29.76,-10.69,2
4819,70.25,-16.48,-98.89,2
4820,70.26,13.24,-14.12,2
4821,70.28,48.28,132.7,2
4822,70.29,71.31,107.66,2
4823,70.3,66.33,29.01,2
4824,70.32,40.35,56.76,2
4825,70.33,21.79,71.02,2
4826,70.34,18.44,6.22,2
4827,70.36,21.98,-6.6,2
4828,70.37,28.62,8.48,2
4829,70.38,18.31,-62.88,2
4830,70.4,-17.23,-64.88,2
4831,70.41,-44.32,80.83,2
4832,70.42,-41.68,126.86,2
4833,70.44,-16.12,8.97,2
4834,70.45,21.6,-71.06,2
4835,70.46,36.09,-79.92,2
4836,70.48,3.2,-112.56,2
4837,70.49,-19.57,-117.74,2
4838,70.5,14.71,-51.32,2
4839,70.52,30.57,2.25,2
4840,70.53,-23.98,13.05,2
4841,70.54,-61.04,7.71,2
4842,70.56,-35.26,-13.41,1
4843,70.57,-16.25,-45.61,1
4844,70.58,-29.31,-76.46,1
4845,70.6,-30.4,-86.46,1
4846,70.61,-2.8,-77.55,1
4847,70.62,14.7,-81.98,1
4848,70.64,-5.7,-105.4,1
4849,70.65,-28.03,-115.74,1
4850,70.66,-22.91,-65.11,1
4851,70.68,-9.22,-4.06,1
4852,70.69,2.95,-47.87,1
4853,70.7,4.45,-106.09,1
4854,70.72,-23.5,-53.72,1
4855,70.73,-48.37,-12.92,1
4856,70.75,-27.64,-44.07,1
