,Timestamp,Data1,Data2,Label
0,6.0,15.08,-1.25,1
1,6.01,19.0,7.09,1
2,6.03,-7.88,14.62,1
3,6.04,-31.99,10.44,1
4,6.05,-21.39,-4.24,1
5,6.07,-0.4,-8.2,1
6,6.08,3.55,0.78,1
7,6.09,2.61,-1.23,1
8,6.11,7.58,-11.3,1
9,6.12,3.88,-5.36,1
10,6.13,-13.49,6.44,1
11,6.15,-18.31,1.56,2
12,6.16,-2.6,-8.8,2
13,6.17,5.41,-7.64,2
14,6.19,1.76,-4.48,2
15,6.2,-0.22,-9.02,2
16,6.21,-5.08,11.56,2
17,6.23,0.57,81.54,2
18,6.24,22.16,82.68,2
19,6.25,17.31,-60.86,2
20,6.27,-18.43,-83.96,2
21,6.28,-27.16,200.9,2
22,6.29,6.24,437.51,2
23,6.31,38.28,329.94,2
24,6.32,44.5,191.69,2
25,6.33,32.14,286.69,2
26,6.35,12.91,366.74,2
27,6.36,-0.5,268.92,2
28,6.37,-10.91,171.78,2
29,6.39,-25.23,164.58,2
30,6.4,-26.69,154.3,2
31,6.41,-12.49,106.54,2
32,6.43,-5.71,66.72,2
33,6.44,-2.5,46.44,2
34,6.45,8.36,23.88,2
35,6.47,6.5,-29.93,2
36,6.48,-6.81,-152.6,2
37,6.49,1.92,-308.34,2
38,6.51,28.04,-377.67,2
39,6.52,25.34,-341.68,2
40,6.53,-13.48,-338.22,2
41,6.55,-36.06,-401.86,2
42,6.56,-21.78,-372.98,1
43,6.57,-8.13,-246.63,1
44,6.59,-11.65,-227.75,1
45,6.6,-16.4,-310.93,1
46,6.61,-14.09,-287.42,1
47,6.63,-6.71,-162.97,1
48,6.64,-2.98,-142.52,1
49,6.65,-13.67,-248.93,1
50,6.67,-23.38,-294.38,1
51,6.68,-6.82,-212.3,1
52,6.69,22.62,-123.33,1
53,6.71,35.4,-92.57,1
54,6.72,22.38,-73.59,1
55,6.73,-1.4,-61.4,1
56,6.75,-9.76,-90.86,1
57,6.76,1.31,-106.06,1
58,6.77,9.69,-53.43,1
59,6.79,0.3,-9.66,1
60,6.8,-13.78,-35.19,1
61,6.81,-13.02,-82.62,1
62,6.82,-3.58,-90.08,1
63,6.84,0.46,-47.87,1
64,6.85,0.96,-3.78,1
65,6.86,5.89,8.53,1
66,6.88,14.84,11.67,1
67,6.89,8.37,15.81,1
68,6.91,-19.48,-3.95,1
69,6.92,-33.89,-38.75,1
70,6.93,-12.16,-11.73,1
71,6.95,18.32,80.45,1
72,6.96,21.65,109.41,1
73,6.97,8.59,64.73,1
74,6.99,12.76,63.09,1
75,7.0,20.82,98.36,1
76,7.01,2.4,111.93,1
77,7.03,-19.15,113.93,1
78,7.04,-10.28,95.45,1
79,7.05,5.08,45.9,1
80,7.07,-1.38,13.07,1
81,7.08,-3.96,39.41,1
82,7.09,10.18,96.37,1
83,7.11,13.43,97.33,1
84,7.12,7.59,21.87,1
85,7.13,6.47,1.7,1
86,7.15,7.6,113.04,1
87,7.16,21.49,211.2,1
88,7.17,28.36,190.96,1
89,7.19,-0.0,139.37,1
90,7.2,-25.09,123.37,1
91,7.21,-21.24,115.9,1
92,7.23,-10.28,93.86,1
93,7.24,0.67,81.95,1
94,7.25,8.44,100.46,1
95,7.27,4.46,100.47,1
96,7.28,-2.85,66.62,1
97,7.29,-5.55,66.51,1
98,7.31,-9.06,103.47,1
99,7.32,-2.64,116.95,1
100,7.33,24.59,96.48,1
101,7.35,33.47,72.18,1
102,7.36,1.87,75.73,1
103,7.37,-20.65,84.59,1
104,7.39,-8.25,65.82,1
105,7.4,4.16,72.82,1
106,7.41,1.28,97.32,1
107,7.43,7.82,70.74,1
108,7.44,22.4,30.67,1
109,7.45,9.12,11.65,1
110,7.47,-13.7,23.97,1
111,7.48,3.1,87.41,1
112,7.49,22.45,123.78,1
113,7.51,-5.56,69.4,1
114,7.52,-35.51,3.48,1
115,7.53,-22.29,5.24,1
116,7.55,-2.75,30.12,1
117,7.56,-14.5,12.18,1
118,7.57,-23.88,6.39,1
119,7.59,6.09,58.31,1
120,7.6,32.82,72.65,1
121,7.61,10.7,16.87,1
122,7.63,-19.82,-7.04,1
123,7.64,-14.39,23.54,1
124,7.65,0.82,29.45,1
125,7.67,-0.02,-9.21,1
126,7.68,5.25,-48.8,1
127,7.69,22.45,-69.24,1
128,7.71,18.61,-57.72,1
129,7.72,-11.36,-19.61,1
130,7.73,-32.48,-5.25,1
131,7.75,-17.41,-0.8,1
132,7.76,21.18,47.74,1
133,7.77,37.92,84.74,1
134,7.79,13.11,40.11,1
135,7.8,-21.68,-29.15,1
136,7.81,-29.96,-35.18,1
137,7.83,-15.5,18.63,1
138,7.84,-7.07,54.04,1
139,7.85,-7.15,13.2,1
140,7.87,-3.64,-47.65,1
141,7.88,2.95,-41.4,1
142,7.89,13.08,-6.27,1
143,7.91,13.26,-16.92,1
144,7.92,-5.79,-53.35,1
145,7.93,-10.33,-63.06,1
146,7.95,10.57,-48.92,1
147,7.96,12.25,-61.08,1
148,7.97,-10.78,-87.25,1
149,7.99,-11.23,-64.25,1
150,8.0,9.6,-34.59,1
151,8.01,2.96,-66.16,1
152,8.03,-32.48,-96.26,1
153,8.04,-46.4,-74.84,1
154,8.05,-21.84,-55.26,1
155,8.07,6.28,-46.18,1
156,8.08,12.97,-20.74,1
157,8.09,-2.86,-12.88,1
158,8.1,-24.31,-22.31,1
159,8.12,-13.38,-2.19,1
160,8.13,27.8,6.07,1
161,8.15,39.45,-29.72,0
162,8.16,7.05,-27.61,0
163,8.17,-11.06,24.87,0
164,8.19,5.6,44.25,0
165,8.2,12.83,13.67,0
166,8.21,3.62,-31.05,0
167,8.23,16.6,-59.13,0
168,8.24,37.78,-71.68,0
169,8.25,26.71,-108.65,0
170,8.27,6.25,-177.62,0
171,8.28,-0.23,-239.6,0
172,8.29,-13.91,-266.41,0
173,8.31,-28.45,-255.63,0
174,8.32,-16.13,-221.7,0
175,8.33,10.03,-180.23,0
176,8.35,15.15,-122.29,0
177,8.36,-0.57,-38.87,0
178,8.37,-9.24,38.39,0
179,8.39,-6.26,74.6,0
180,8.4,-3.32,82.6,0
181,8.41,0.72,96.39,0
182,8.43,4.57,117.05,0
183,8.44,1.14,118.21,0
184,8.45,-3.79,101.49,0
185,8.47,2.76,86.75,0
186,8.48,15.07,70.76,0
187,8.49,11.45,54.65,0
188,8.51,-4.96,49.6,0
189,8.52,-9.67,51.42,0
190,8.53,-1.93,58.21,0
191,8.55,-1.06,66.12,1
192,8.56,-8.18,60.94,1
193,8.57,-9.19,48.87,1
194,8.59,-6.24,43.83,1
195,8.6,-6.07,40.93,1
196,8.61,-0.61,33.33,1
197,8.63,12.85,23.62,1
198,8.64,21.58,19.72,1
199,8.65,10.32,24.26,1
200,8.67,-12.89,25.48,1
201,8.68,-18.68,17.32,1
202,8.69,-7.01,12.93,1
203,8.71,-3.37,13.35,1
204,8.72,-10.06,6.16,1
205,8.73,-12.9,-3.4,1
206,8.75,-9.22,-9.65,1
207,8.76,-6.83,-15.81,1
208,8.77,-8.12,-13.32,1
209,8.78,-4.33,-1.32,1
210,8.8,5.88,5.07,1
211,8.81,9.9,3.02,1
212,8.82,8.99,-2.39,1
213,8.84,12.78,-9.35,1
214,8.85,9.0,-11.56,1
215,8.87,-7.21,-10.13,1
216,8.88,-10.42,-7.43,1
217,8.89,3.53,3.12,1
218,8.91,8.1,8.89,1
219,8.92,0.83,-4.81,1
220,8.93,-0.53,-15.63,1
221,8.95,2.52,-8.28,1
222,8.96,1.73,-4.8,1
223,8.97,2.18,-11.29,1
224,8.99,8.43,-9.85,1
225,9.0,14.34,-5.24,1
226,9.01,11.67,-9.33,1
227,9.03,-0.53,-11.62,1
228,9.04,-13.2,-8.78,1
229,9.05,-14.77,-12.49,1
230,9.07,-3.08,-17.05,1
231,9.08,10.29,-10.59,1
232,9.09,10.07,-1.55,1
233,9.11,-1.94,-5.42,1
234,9.12,-7.07,-17.5,1
235,9.13,3.87,-19.7,1
236,9.15,17.0,-11.71,1
237,9.16,16.1,-6.52,1
238,9.17,3.77,-7.04,1
239,9.19,-10.6,-7.73,1
240,9.2,-18.39,-2.02,1
241,9.21,-15.53,8.07,1
242,9.23,-9.85,9.02,1
243,9.24,-5.12,-0.57,1
244,9.25,0.42,-7.65,1
245,9.27,1.6,-11.12,1
246,9.28,1.4,-14.04,1
247,9.29,6.23,-9.85,1
248,9.31,10.81,0.49,1
249,9.32,12.29,9.38,1
250,9.33,8.68,12.19,1
251,9.35,-4.47,6.74,1
252,9.36,-15.86,-0.68,1
253,9.37,-11.5,-0.47,1
254,9.39,1.56,5.85,1
255,9.4,9.03,8.21,1
256,9.41,3.95,4.57,1
257,9.43,-5.24,1.31,1
258,9.44,2.17,2.78,1
259,9.45,16.89,9.82,1
260,9.47,6.81,12.14,1
261,9.48,-14.22,0.2,1
262,9.49,-8.33,-10.26,1
263,9.51,8.86,-5.38,1
264,9.52,5.26,-1.32,1
265,9.53,-4.49,-5.27,1
266,9.55,0.63,-0.01,1
267,9.56,11.65,11.38,1
268,9.57,10.44,6.79,1
269,9.59,-4.0,-13.16,1
270,9.6,-10.3,-26.74,1
271,9.61,-1.14,-19.66,1
272,9.63,5.77,-4.87,1
273,9.64,8.92,0.9,1
274,9.65,14.72,4.55,1
275,9.67,9.0,8.84,1
276,9.68,-8.06,5.57,1
277,9.69,-10.68,1.27,1
278,9.71,1.7,2.23,1
279,9.72,2.33,4.67,1
280,9.73,-8.78,8.39,1
281,9.75,-9.91,7.49,1
282,9.76,-3.4,-0.9,1
283,9.77,-2.89,0.79,1
284,9.79,-3.2,15.86,1
285,9.8,2.81,18.99,1
286,9.81,7.44,5.71,1
287,9.83,3.39,-3.71,1
288,9.84,-2.51,-3.69,1
289,9.85,-2.72,-0.96,1
290,9.87,-2.08,1.22,1
291,9.88,-5.12,3.84,1
292,9.89,-5.08,7.41,1
293,9.91,-1.85,7.45,1
294,9.92,-2.43,6.69,1
295,9.93,-1.05,10.66,1
296,9.95,6.85,6.3,1
297,9.96,9.06,-11.04,1
298,9.97,-1.94,-12.6,1
299,9.99,-13.66,8.1,1
300,10.0,-11.06,15.46,1
301,10.01,-7.21,1.0,1
302,10.02,-22.59,-6.36,1
303,10.04,-35.93,2.59,1
304,10.05,-20.45,14.76,1
305,10.06,4.09,18.44,1
306,10.08,11.99,6.98,1
307,10.09,10.41,-7.66,1
308,10.1,12.96,-7.59,1
309,10.12,16.09,1.27,1
310,10.13,12.98,9.1,1
311,10.15,15.0,16.09,0
312,10.16,25.24,15.98,0
313,10.17,16.31,5.5,0
314,10.19,-8.05,-15.05,0
315,10.2,-5.1,-57.15,0
316,10.21,16.84,-113.82,0
317,10.23,18.41,-146.94,0
318,10.24,11.79,-146.35,0
319,10.25,24.43,-141.57,0
320,10.27,46.62,-145.13,0
321,10.28,50.79,-149.76,0
322,10.29,29.88,-148.6,0
323,10.31,13.71,-130.61,0
324,10.32,19.26,-98.74,0
325,10.33,16.23,-68.67,0
326,10.35,-9.17,-43.13,0
327,10.36,-23.03,-15.42,0
328,10.37,-14.64,18.3,0
329,10.39,-14.89,50.69,0
330,10.4,-29.48,73.95,0
331,10.41,-31.01,98.81,0
332,10.43,-19.06,131.57,0
333,10.44,-19.82,159.68,0
334,10.45,-29.83,177.61,0
335,10.47,-24.27,192.78,0
336,10.48,-14.33,205.98,0
337,10.49,-26.71,208.41,0
338,10.51,-40.41,191.64,0
339,10.52,-25.9,163.67,0
340,10.53,-11.76,149.2,0
341,10.55,-21.75,150.28,1
342,10.56,-24.46,139.76,1
343,10.57,-12.89,110.51,1
344,10.59,-15.33,84.68,1
345,10.6,-21.18,74.07,1
346,10.61,-10.18,72.55,1
347,10.63,0.87,73.45,1
348,10.64,1.33,66.92,1
349,10.65,3.81,47.24,1
350,10.67,8.42,28.63,1
351,10.68,5.16,22.42,1
352,10.69,-4.67,19.91,1
353,10.71,-9.91,14.44,1
354,10.72,-3.18,11.23,1
355,10.73,0.84,11.68,1
356,10.75,-12.45,6.74,1
357,10.76,-16.38,-6.82,1
358,10.77,5.79,-18.51,1
359,10.78,18.51,-21.73,1
360,10.8,9.18,-20.03,1
361,10.81,0.69,-21.61,1
362,10.83,-6.04,-31.91,1
363,10.84,-14.43,-44.58,1
364,10.85,-13.2,-49.53,1
365,10.87,1.09,-45.84,1
366,10.88,14.12,-42.14,1
367,10.89,10.32,-43.45,1
368,10.91,3.77,-46.16,1
369,10.92,13.3,-49.75,1
370,10.93,18.57,-54.48,1
371,10.95,2.83,-55.37,1
372,10.96,-5.33,-54.35,1
373,10.97,7.08,-57.87,1
374,10.99,10.9,-62.11,1
375,11.0,-0.37,-63.6,1
376,11.01,-7.27,-64.66,1
377,11.03,-4.95,-58.39,1
378,11.04,4.19,-42.42,1
379,11.05,13.66,-35.94,1
380,11.07,16.92,-49.78,1
381,11.08,19.54,-65.33,1
382,11.09,20.74,-65.85,1
383,11.11,8.49,-58.56,1
384,11.12,-6.15,-50.35,1
385,11.13,1.36,-41.11,1
386,11.15,23.13,-38.62,1
387,11.16,29.7,-44.79,1
388,11.17,16.54,-48.21,1
389,11.19,2.57,-45.85,1
390,11.2,-0.66,-46.56,1
391,11.21,2.71,-47.19,1
392,11.23,7.5,-37.12,1
393,11.24,15.38,-24.84,1
394,11.25,21.68,-25.52,1
395,11.27,16.47,-32.91,1
396,11.28,3.67,-32.9,1
397,11.29,-2.62,-29.52,1
398,11.31,-1.14,-31.26,1
399,11.32,2.5,-34.98,1
400,11.33,9.91,-36.29,1
401,11.35,13.82,-32.21,1
402,11.36,6.09,-24.41,1
403,11.37,0.27,-21.16,1
404,11.39,6.75,-24.07,1
405,11.4,13.9,-25.65,1
406,11.41,9.34,-21.37,1
407,11.43,-4.04,-18.19,1
408,11.44,-11.75,-21.14,1
409,11.45,-5.95,-20.62,1
410,11.47,1.02,-13.15,1
411,11.48,-1.16,-11.61,1
412,11.49,-4.21,-14.57,1
413,11.51,-5.65,-6.16,1
414,11.52,-10.95,4.45,1
415,11.53,-10.42,0.93,1
416,11.55,1.31,-5.13,1
417,11.56,9.9,-2.54,1
418,11.57,7.23,3.95,1
419,11.59,-1.71,14.68,1
420,11.6,-10.84,26.48,1
421,11.61,-13.86,28.22,1
422,11.63,-11.39,20.86,1
423,11.64,-11.66,13.81,1
424,11.65,-16.28,11.3,1
425,11.67,-17.44,12.2,1
426,11.68,-6.29,12.7,1
427,11.69,10.96,12.03,1
428,11.71,14.64,14.51,1
429,11.72,6.8,20.1,1
430,11.73,7.26,21.12,1
431,11.75,12.47,17.6,1
432,11.76,9.21,16.32,1
433,11.77,3.57,16.38,1
434,11.79,0.66,17.14,1
435,11.8,-4.44,20.92,1
436,11.81,-6.38,22.85,1
437,11.83,0.82,19.5,1
438,11.84,7.73,15.85,1
439,11.85,3.91,19.41,1
440,11.87,-8.26,28.41,1
441,11.88,-15.96,28.08,1
442,11.89,-11.6,15.22,1
443,11.91,-3.18,7.99,1
444,11.92,0.94,12.75,1
445,11.93,1.98,16.48,1
446,11.94,0.24,16.83,1
447,11.96,-8.35,18.27,1
448,11.97,-20.17,16.92,1
449,11.98,-18.71,13.54,1
450,12.0,-0.26,12.29,1
451,12.01,9.21,11.84,1
452,12.02,-9.34,13.92,1
453,12.04,-33.68,21.82,1
454,12.05,-33.75,29.11,1
455,12.06,-12.25,28.15,1
456,12.08,9.26,23.15,1
457,12.09,17.72,21.96,1
458,12.105,16.36,20.9,1
459,12.12,15.58,12.81,1
460,12.13,17.17,7.24,1
461,12.15,15.68,14.05,2
462,12.16,7.11,19.06,2
463,12.17,-3.71,14.72,2
464,12.19,-5.09,16.9,2
465,12.2,3.64,25.89,2
466,12.21,13.53,33.44,2
467,12.23,15.1,72.45,2
468,12.24,-3.32,173.05,2
469,12.25,-40.44,287.08,2
470,12.27,-68.17,338.45,2
471,12.28,-62.49,318.31,2
472,12.29,-34.13,268.48,2
473,12.31,-11.36,210.75,2
474,12.32,-4.33,141.75,2
475,12.33,-0.47,63.26,2
476,12.35,7.14,-8.06,2
477,12.36,14.25,-58.46,2
478,12.37,19.56,-103.22,2
479,12.39,19.4,-160.98,2
480,12.4,14.51,-211.75,2
481,12.41,17.0,-225.97,2
482,12.43,24.64,-211.27,2
483,12.44,22.55,-194.83,2
484,12.45,12.69,-181.87,2
485,12.47,12.41,-164.46,2
486,12.48,24.59,-150.52,2
487,12.49,32.92,-149.27,2
488,12.51,26.4,-145.64,2
489,12.52,12.53,-124.09,2
490,12.53,6.1,-98.42,2
491,12.55,8.05,-86.84,1
492,12.56,10.04,-85.49,1
493,12.57,17.18,-85.72,1
494,12.59,32.1,-86.44,1
495,12.6,33.5,-85.31,1
496,12.61,10.34,-75.47,1
497,12.63,-14.11,-55.08,1
498,12.64,-20.96,-39.66,1
499,12.65,-16.29,-44.14,1
500,12.67,-9.64,-51.25,1
501,12.68,-3.67,-40.02,1
502,12.69,2.8,-23.57,1
503,12.71,3.38,-14.11,1
504,12.72,-7.12,-7.01,1
505,12.73,-13.41,-3.52,1
506,12.75,-5.08,-2.91,1
507,12.76,1.79,-1.26,1
508,12.77,-3.53,-0.81,1
509,12.79,-12.06,3.97,1
510,12.8,-18.39,15.16,1
511,12.81,-19.0,20.23,1
512,12.83,-8.27,16.9,1
513,12.84,2.89,18.1,1
514,12.85,0.86,28.58,1
515,12.87,-8.43,37.9,1
516,12.88,-15.82,37.35,1
517,12.89,-15.7,31.37,1
518,12.91,-5.13,32.39,1
519,12.92,1.7,44.01,1
520,12.93,-9.72,52.36,1
521,12.95,-25.71,49.36,1
522,12.96,-23.54,44.95,1
523,12.97,-4.21,43.3,1
524,12.99,9.5,37.46,1
525,13.0,2.97,32.57,1
526,13.01,-10.68,34.54,1
527,13.03,-7.9,35.41,1
528,13.04,6.76,34.5,1
529,13.05,8.01,39.69,1
530,13.07,-3.85,48.28,1
531,13.08,-8.85,50.29,1
532,13.09,-4.67,45.41,1
533,13.11,0.48,41.67,1
534,13.12,3.38,37.77,1
535,13.13,0.75,27.99,1
536,13.15,-6.15,24.65,1
537,13.16,-7.36,35.09,1
538,13.17,1.2,40.34,1
539,13.19,9.12,32.2,1
540,13.2,8.88,27.9,1
541,13.21,3.57,34.91,1
542,13.23,-5.78,36.08,1
543,13.24,-19.58,24.43,1
544,13.25,-29.2,20.54,1
545,13.27,-24.16,31.57,1
546,13.28,-9.24,30.87,1
547,13.29,0.49,12.54,1
548,13.31,1.33,6.9,1
549,13.32,2.52,18.15,1
550,13.33,8.35,22.36,1
551,13.35,13.12,19.18,1
552,13.36,10.68,17.92,1
553,13.37,4.99,14.47,1
554,13.39,10.34,13.48,1
555,13.4,24.76,19.55,1
556,13.41,25.1,18.25,1
557,13.43,8.07,7.9,1
558,13.44,-3.08,7.17,1
559,13.45,-1.57,13.0,1
560,13.47,0.15,6.13,1
561,13.48,0.82,-3.0,1
562,13.49,0.65,6.02,1
563,13.51,-11.38,21.6,1
564,13.52,-26.22,20.48,1
565,13.53,-18.37,5.7,1
566,13.55,0.52,-0.44,1
567,13.56,1.27,4.0,1
568,13.57,-6.94,-0.44,1
569,13.59,-4.89,-14.75,1
570,13.6,1.73,-21.88,1
571,13.61,4.37,-13.06,1
572,13.63,4.85,4.01,1
573,13.64,5.0,11.11,1
574,13.65,2.14,6.26,1
575,13.67,-2.99,1.61,1
576,13.68,0.36,-6.62,1
577,13.69,15.08,-18.78,1
578,13.71,21.84,-20.97,1
579,13.72,7.99,-18.55,1
580,13.73,-7.95,-22.33,1
581,13.75,-5.42,-20.27,1
582,13.76,5.45,-7.92,1
583,13.77,5.85,-4.32,1
584,13.79,-0.33,-14.25,1
585,13.8,-0.95,-19.39,1
586,13.81,-2.36,-13.52,1
587,13.83,-10.48,-7.0,1
588,13.84,-7.07,-6.29,1
589,13.85,13.08,-12.24,1
590,13.86,21.85,-17.56,1
591,13.88,9.96,-13.62,1
592,13.89,-1.39,-7.27,1
593,13.9,-4.67,-10.73,1
594,13.92,0.25,-22.26,1
595,13.93,17.73,-24.33,1
596,13.94,28.87,-12.54,1
597,13.96,14.87,-8.47,1
598,13.97,-5.82,-15.1,1
599,13.98,-8.43,-13.76,1
600,14.0,4.74,-12.24,1
601,14.01,13.06,-23.94,1
602,14.02,-1.08,-30.26,1
603,14.04,-26.48,-20.34,1
604,14.05,-27.58,-11.38,1
605,14.07,-3.48,-7.26,1
606,14.08,8.49,-2.88,1
607,14.09,1.51,-11.01,1
608,14.11,-2.01,-27.06,1
609,14.12,3.9,-25.16,1
610,14.13,15.28,-8.15,1
611,14.15,22.4,-3.99,2
612,14.16,16.95,-15.64,2
613,14.17,11.65,1.88,2
614,14.19,17.04,64.7,2
615,14.2,32.21,94.67,2
616,14.21,54.27,1.05,2
617,14.23,48.02,-164.48,2
618,14.24,5.07,-210.36,2
619,14.25,2.61,-96.69,2
620,14.27,25.38,102.17,2
621,14.28,-29.18,382.59,2
622,14.29,-81.84,544.87,2
623,14.31,-28.36,432.97,2
624,14.32,15.15,288.75,2
625,14.33,-22.01,259.88,2
626,14.35,-34.55,209.32,2
627,14.36,5.07,126.63,2
628,14.37,27.78,77.76,2
629,14.39,19.05,-17.16,2
630,14.4,-3.31,-119.88,2
631,14.41,-26.92,-97.65,2
632,14.43,-31.45,-87.06,2
633,14.44,-8.41,-254.52,2
634,14.45,12.69,-431.96,2
635,14.47,-3.13,-407.21,2
636,14.48,-25.49,-271.4,2
637,14.49,-17.18,-201.36,2
638,14.51,-13.16,-185.66,2
639,14.52,-28.09,-167.6,2
640,14.53,-23.1,-175.05,2
641,14.55,0.25,-187.03,1
642,14.56,10.19,-118.59,1
643,14.57,4.4,-14.04,1
644,14.59,-4.34,-25.93,1
645,14.6,-3.78,-138.59,1
646,14.61,13.59,-194.5,1
647,14.63,24.27,-175.75,1
648,14.64,7.77,-152.09,1
649,14.65,-10.23,-108.11,1
650,14.67,-14.79,-36.66,1
651,14.68,-13.88,-15.37,1
652,14.69,-7.03,-57.61,1
653,14.71,-8.47,-63.8,1
654,14.72,-15.03,-10.03,1
655,14.73,-11.63,31.61,1
656,14.75,-19.11,44.66,1
657,14.76,-26.18,35.86,1
658,14.77,3.14,-6.42,1
659,14.79,39.3,-35.04,1
660,14.8,36.76,-6.01,1
661,14.81,8.01,30.2,1
662,14.83,-9.69,19.31,1
663,14.84,-5.89,-13.8,1
664,14.85,4.4,-15.29,1
665,14.87,2.53,23.45,1
666,14.88,-18.48,71.25,1
667,14.89,-32.57,97.45,1
668,14.91,-14.23,99.5,1
669,14.92,17.89,87.59,1
670,14.93,37.49,46.08,1
671,14.95,28.42,5.76,1
672,14.96,-0.54,21.67,1
673,14.97,-2.3,49.27,1
674,14.99,16.9,41.87,1
675,15.0,1.99,35.41,1
676,15.01,-33.85,66.72,1
677,15.03,-43.84,104.44,1
678,15.04,-33.95,65.58,1
679,15.05,-28.05,-6.27,1
680,15.07,-13.41,37.22,1
681,15.08,19.12,137.69,1
682,15.09,26.34,115.18,1
683,15.11,-7.97,8.25,1
684,15.12,-28.39,-20.67,1
685,15.13,-10.95,39.65,1
686,15.15,12.1,66.24,1
687,15.16,29.3,14.22,1
688,15.17,46.04,-7.8,1
689,15.19,41.25,44.87,1
690,15.2,8.41,59.5,1
691,15.21,-6.31,15.89,1
692,15.23,14.62,1.28,1
693,15.24,25.26,15.99,1
694,15.25,8.68,21.97,1
695,15.27,-6.72,16.95,1
696,15.28,-7.13,15.73,1
697,15.29,0.86,34.03,1
698,15.31,7.79,59.9,1
699,15.32,9.58,69.24,1
700,15.33,9.43,58.84,1
701,15.35,8.77,41.7,1
702,15.36,8.52,23.46,1
703,15.37,7.1,-5.91,1
704,15.39,-1.28,-30.28,1
705,15.4,-12.66,-3.33,1
706,15.41,-14.35,48.31,1
707,15.43,-7.84,52.06,1
708,15.44,-9.17,40.86,1
709,15.45,-9.57,55.59,1
710,15.47,7.31,47.79,1
711,15.48,13.35,19.62,1
712,15.49,-2.85,5.07,1
713,15.51,0.82,0.66,1
714,15.52,25.69,24.3,1
715,15.53,25.82,54.55,1
716,15.55,-0.45,36.52,1
717,15.56,-14.72,1.92,1
718,15.57,-0.84,-8.71,1
719,15.59,19.15,-1.66,1
720,15.6,19.45,28.7,1
721,15.61,3.78,52.65,1
722,15.63,-6.54,30.55,1
723,15.64,-3.19,-1.98,1
724,15.65,-1.19,-3.83,1
725,15.67,-5.94,1.2,1
726,15.68,-1.9,-8.18,1
727,15.69,0.57,6.69,1
728,15.71,-12.96,56.64,1
729,15.72,-13.37,77.66,1
730,15.73,12.12,54.17,1
731,15.75,19.01,39.84,1
732,15.76,-11.01,38.26,1
733,15.77,-31.21,18.82,1
734,15.78,-15.49,-15.94,1
735,15.8,5.28,-43.89,1
736,15.81,10.27,-42.96,1
737,15.82,11.91,-19.33,1
738,15.84,13.6,4.33,1
739,15.85,6.09,11.35,1
740,15.86,7.77,-23.34,1
741,15.88,33.76,-76.48,1
742,15.89,37.2,-66.02,1
743,15.9,-8.9,-4.26,1
744,15.92,-42.72,14.14,1
745,15.93,-23.31,-7.11,1
746,15.94,5.7,-15.29,1
747,15.96,1.03,-16.88,1
748,15.97,-13.97,-23.95,1
749,15.98,-11.73,-25.76,1
750,16.0,-16.14,-0.13,1
751,16.01,-29.16,49.99,1
752,16.03,-26.2,63.93,1
753,16.04,-24.47,17.21,1
754,16.05,-35.88,-25.84,1
755,16.07,-35.25,-27.73,1
756,16.08,-8.99,-30.71,1
757,16.09,22.58,-52.91,1
758,16.11,28.14,-44.31,1
759,16.12,18.14,-8.34,1
760,16.13,20.57,-22.52,1
761,16.15,13.79,-51.16,1
762,16.16,-17.36,-11.58,0
763,16.17,-32.78,19.31,0
764,16.19,-8.7,-24.6,0
765,16.2,20.47,-84.28,0
766,16.21,21.15,-137.17,0
767,16.23,15.68,-195.6,0
768,16.24,23.59,-222.08,0
769,16.25,10.16,-172.77,0
770,16.27,-32.0,-78.93,0
771,16.28,-44.87,-33.75,0
772,16.29,-9.59,-71.72,0
773,16.31,21.98,-122.75,0
774,16.32,20.85,-116.36,0
775,16.33,12.9,-61.82,0
776,16.35,14.49,-7.71,0
777,16.36,8.29,27.15,0
778,16.37,-8.05,55.53,0
779,16.39,-11.62,79.81,0
780,16.4,-1.88,85.43,0
781,16.41,-0.43,75.77,0
782,16.42,-9.25,70.04,0
783,16.44,-13.34,73.13,0
784,16.45,-9.97,76.17,0
785,16.46,-9.19,73.3,0
786,16.48,-8.82,71.64,0
787,16.49,5.9,80.43,0
788,16.5,21.66,88.75,0
789,16.52,12.14,77.41,0
790,16.53,-6.01,48.99,0
791,16.54,-5.15,28.59,0
792,16.56,4.59,32.48,1
793,16.57,7.99,39.43,1
794,16.58,8.25,27.58,1
795,16.6,3.58,15.96,1
796,16.61,-5.93,15.43,1
797,16.62,-5.6,7.18,1
798,16.64,4.26,-5.15,1
799,16.65,7.93,0.93,1
800,16.67,3.67,17.73,1
801,16.68,-2.66,17.94,1
802,16.69,-6.94,6.15,1
803,16.71,-7.09,6.86,1
804,16.72,-7.46,15.11,1
805,16.73,-6.03,7.99,1
806,16.75,2.68,-7.5,1
807,16.76,7.56,-4.59,1
808,16.77,0.36,9.99,1
809,16.79,-6.27,10.33,1
810,16.8,-4.25,1.21,1
811,16.81,0.66,-4.83,1
812,16.83,4.48,-12.6,1
813,16.84,7.23,-15.97,1
814,16.85,7.54,-7.18,1
815,16.87,1.21,1.16,1
816,16.88,-9.03,-1.56,1
817,16.89,-13.4,-13.04,1
818,16.91,-12.15,-22.61,1
819,16.92,-9.8,-15.97,1
820,16.93,-3.18,0.12,1
821,16.95,6.15,-2.17,1
822,16.96,11.08,-23.55,1
823,16.97,12.75,-28.38,1
824,16.99,13.63,-5.71,1
825,17.0,11.92,11.18,1
826,17.01,9.72,1.88,1
827,17.03,6.22,-13.04,1
828,17.04,-1.21,-10.75,1
829,17.05,-7.16,-1.49,1
830,17.06,-6.79,-6.25,1
831,17.08,0.98,-16.06,1
832,17.09,10.67,-14.28,1
833,17.1,9.64,-12.37,1
834,17.12,-0.19,-16.55,1
835,17.13,-4.0,-12.86,1
836,17.14,1.16,-4.0,1
837,17.16,8.91,-3.5,1
838,17.17,11.78,-10.42,1
839,17.18,2.89,-17.2,1
840,17.2,-8.96,-16.19,1
841,17.21,-9.99,-7.08,1
842,17.22,-8.62,-2.02,1
843,17.24,-14.5,-6.35,1
844,17.25,-13.9,-10.27,1
845,17.26,-0.66,-7.28,1
846,17.28,7.14,-2.47,1
847,17.29,1.75,-3.19,1
848,17.3,-6.04,-8.45,1
849,17.32,-6.89,-10.44,1
850,17.33,4.11,-4.67,1
851,17.35,17.2,2.46,1
852,17.36,15.17,-1.31,1
853,17.37,4.4,-14.23,1
854,17.39,-0.96,-16.72,1
855,17.4,-4.9,-2.5,1
856,17.41,-7.87,6.16,1
857,17.43,-3.17,-3.79,1
858,17.44,4.98,-9.78,1
859,17.45,13.13,-3.21,1
860,17.47,21.25,-8.94,1
861,17.48,21.75,-21.86,1
862,17.49,10.56,-12.65,1
863,17.51,-5.14,6.31,1
864,17.52,-18.57,6.8,1
865,17.53,-24.03,-2.62,1
866,17.55,-15.15,-7.33,1
867,17.56,1.04,-10.43,1
868,17.57,7.49,-9.98,1
869,17.59,0.88,-4.28,1
870,17.6,-6.53,-3.64,1
871,17.61,-8.54,-10.18,1
872,17.63,-10.63,-10.36,1
873,17.64,-11.58,-0.22,1
874,17.65,-6.29,6.96,1
875,17.67,0.04,3.06,1
876,17.68,3.45,-6.01,1
877,17.69,4.53,-4.0,1
878,17.7,1.89,13.2,1
879,17.72,0.63,21.66,1
880,17.73,4.63,8.92,1
881,17.75,7.97,-7.37,1
882,17.76,6.07,-11.82,1
883,17.77,-2.38,-7.68,1
884,17.78,-12.19,-1.78,1
885,17.8,-14.05,6.53,1
886,17.81,-8.58,13.91,1
887,17.82,-2.86,12.64,1
888,17.84,1.26,6.35,1
889,17.85,5.46,3.93,1
890,17.86,5.15,4.53,1
891,17.88,-1.47,4.28,1
892,17.89,-3.22,6.06,1
893,17.9,2.73,8.76,1
894,17.92,6.41,5.44,1
895,17.93,5.21,-1.2,1
896,17.94,4.66,-2.21,1
897,17.96,2.16,5.99,1
898,17.97,-11.8,18.46,1
899,17.99,-22.82,21.87,1
900,18.0,-8.77,11.83,1
901,18.01,13.58,-1.33,1
902,18.03,11.6,-11.79,1
903,18.04,-15.74,-16.86,1
904,18.05,-34.32,-9.58,1
905,18.07,-23.07,3.72,1
906,18.08,-6.14,6.43,1
907,18.09,-0.55,0.58,1
908,18.11,8.08,-3.11,1
909,18.12,21.6,-7.83,1
910,18.13,25.91,-8.38,1
911,18.15,18.6,2.38,1
912,18.16,10.17,9.44,0
913,18.17,8.18,7.32,0
914,18.19,7.35,5.34,0
915,18.2,1.13,-0.05,0
916,18.21,-3.34,-4.76,0
917,18.23,6.77,3.7,0
918,18.24,26.81,1.73,0
919,18.25,35.35,-42.88,0
920,18.27,23.87,-113.85,0
921,18.28,9.92,-175.72,0
922,18.29,9.89,-209.7,0
923,18.31,14.9,-206.99,0
924,18.32,18.73,-182.34,0
925,18.33,29.03,-159.15,0
926,18.34,26.25,-120.18,0
927,18.36,-1.52,-54.94,0
928,18.37,-16.13,-13.87,0
929,18.38,-2.48,-18.84,0
930,18.4,6.04,-19.43,0
931,18.41,-1.49,10.03,0
932,18.42,-3.42,43.07,0
933,18.44,6.0,66.82,0
934,18.45,10.75,86.73,0
935,18.46,-1.11,104.07,0
936,18.48,-20.53,126.91,0
937,18.49,-23.33,152.28,0
938,18.5,-6.94,156.32,0
939,18.52,-3.94,147.87,0
940,18.53,-23.03,160.5,0
941,18.54,-34.21,187.28,0
942,18.56,-30.43,198.71,1
943,18.57,-24.8,190.11,1
944,18.58,-18.87,172.0,1
945,18.6,-18.99,151.09,1
946,18.61,-26.73,132.87,1
947,18.63,-28.28,120.88,1
948,18.64,-13.98,108.23,1
949,18.65,13.71,89.94,1
950,18.67,30.75,76.32,1
951,18.68,13.0,68.61,1
952,18.69,-16.86,53.95,1
953,18.71,-18.27,38.6,1
954,18.72,-2.01,37.39,1
955,18.73,-3.81,39.47,1
956,18.75,-16.18,28.1,1
957,18.76,-16.13,13.95,1
958,18.77,-8.97,9.72,1
959,18.79,-5.63,3.47,1
960,18.8,-6.08,-12.66,1
961,18.81,-6.9,-26.11,1
962,18.83,-5.44,-24.25,1
963,18.84,-2.83,-10.01,1
964,18.85,-1.17,-4.65,1
965,18.87,-1.65,-23.85,1
966,18.88,-8.36,-51.57,1
967,18.89,-18.57,-59.02,1
968,18.91,-16.5,-43.99,1
969,18.92,-0.21,-31.84,1
970,18.93,11.83,-39.06,1
971,18.95,11.07,-51.42,1
972,18.96,5.32,-48.27,1
973,18.97,0.45,-36.24,1
974,18.98,-6.52,-34.75,1
975,19.0,-12.2,-44.99,1
976,19.01,-3.19,-50.87,1
977,19.02,17.58,-48.91,1
978,19.04,30.44,-53.84,1
979,19.05,27.1,-61.45,1
980,19.06,7.31,-56.34,1
981,19.08,-18.56,-49.22,1
982,19.09,-18.87,-52.97,1
983,19.1,11.56,-55.65,1
984,19.12,29.72,-50.14,1
985,19.13,14.55,-49.7,1
986,19.14,-4.77,-58.4,1
987,19.16,-6.36,-63.3,1
988,19.17,-2.09,-57.64,1
989,19.18,2.5,-50.1,1
990,19.2,15.23,-47.74,1
991,19.21,26.13,-45.26,1
992,19.22,18.52,-43.21,1
993,19.24,-1.73,-45.78,1
994,19.25,-11.79,-47.58,1
995,19.265,-0.8,-47.45,1
996,19.28,11.76,-46.34,1
997,19.29,7.35,-40.73,1
998,19.31,1.87,-36.02,1
999,19.32,10.31,-35.64,1
1000,19.33,18.01,-32.19,1
1001,19.35,15.03,-27.87,1
1002,19.36,12.08,-26.88,1
1003,19.37,12.92,-23.42,1
1004,19.39,9.43,-23.87,1
1005,19.4,0.32,-32.77,1
1006,19.41,-6.99,-30.94,1
1007,19.43,-8.12,-16.42,1
1008,19.44,-5.05,-10.91,1
1009,19.45,-0.65,-15.12,1
1010,19.47,4.01,-16.66,1
1011,19.48,7.94,-12.88,1
1012,19.49,8.91,-6.77,1
1013,19.51,5.47,-4.51,1
1014,19.52,-1.82,-6.01,1
1015,19.53,-7.38,-7.26,1
1016,19.55,-6.32,-9.12,1
1017,19.56,-5.56,-9.74,1
1018,19.57,-8.44,-6.12,1
1019,19.59,-4.37,-0.86,1
1020,19.6,8.14,6.09,1
1021,19.61,13.32,14.08,1
1022,19.62,4.91,12.97,1
1023,19.64,-2.35,5.37,1
1024,19.65,-2.06,6.86,1
1025,19.67,-2.41,9.69,1
1026,19.68,0.35,0.73,1
1027,19.69,10.72,-3.23,1
1028,19.7,16.68,10.18,1
1029,19.72,10.4,23.93,1
1030,19.73,2.27,25.21,1
1031,19.75,3.32,16.77,1
1032,19.76,3.76,4.4,1
1033,19.77,-5.96,-0.75,1
1034,19.78,-11.88,5.65,1
1035,19.8,-3.51,10.04,1
1036,19.81,6.99,9.87,1
1037,19.82,8.69,20.16,1
1038,19.84,5.16,36.81,1
1039,19.85,-0.27,38.77,1
1040,19.86,-9.09,21.69,1
1041,19.88,-15.66,3.12,1
1042,19.89,-13.87,1.17,1
1043,19.9,-7.77,12.93,1
1044,19.92,-2.03,20.44,1
1045,19.93,0.56,18.95,1
1046,19.95,-4.01,18.04,1
1047,19.96,-9.69,19.25,1
1048,19.97,-7.06,20.25,1
1049,19.99,0.01,23.35,1
1050,20.0,0.64,23.86,1
1051,20.01,-4.03,20.17,1
1052,20.03,-5.73,22.1,1
1053,20.04,-10.31,28.74,1
1054,20.05,-21.96,27.26,1
1055,20.07,-21.3,14.7,1
1056,20.08,1.63,3.51,1
1057,20.09,24.35,5.24,1
1058,20.11,25.52,11.98,1
1059,20.12,16.61,10.0,1
1060,20.13,17.38,9.46,1
1061,20.15,22.28,28.23,1
1062,20.16,12.62,57.78,2
1063,20.17,-13.7,80.72,2
1064,20.19,-33.54,106.45,2
1065,20.2,-27.34,158.25,2
1066,20.21,-14.52,232.85,2
1067,20.23,-21.23,289.05,2
1068,20.24,-34.17,289.76,2
1069,20.25,-30.59,244.7,2
1070,20.26,-16.63,179.06,2
1071,20.28,-6.22,106.96,2
1072,20.29,1.76,47.67,2
1073,20.3,14.7,2.24,2
1074,20.32,25.48,-53.86,2
1075,20.33,21.47,-125.03,2
1076,20.34,12.58,-188.88,2
1077,20.36,10.47,-222.39,2
1078,20.37,8.28,-221.83,2
1079,20.38,3.05,-203.21,2
1080,20.4,0.35,-177.36,2
1081,20.41,6.73,-147.25,2
1082,20.42,15.97,-126.18,2
1083,20.44,10.4,-123.16,2
1084,20.45,0.76,-128.46,2
1085,20.46,7.57,-127.93,2
1086,20.48,13.41,-116.19,2
1087,20.49,1.23,-92.49,2
1088,20.5,-14.07,-59.63,2
1089,20.52,-18.82,-39.02,2
1090,20.53,-13.39,-49.48,2
1091,20.54,-3.98,-68.99,2
1092,20.56,2.65,-67.04,1
1093,20.57,7.82,-52.0,1
1094,20.59,13.54,-48.83,1
1095,20.6,14.31,-51.76,1
1096,20.61,8.41,-40.39,1
1097,20.63,2.55,-26.02,1
1098,20.64,3.55,-25.23,1
1099,20.65,8.23,-22.76,1
1100,20.67,7.38,-12.39,1
1101,20.68,-2.02,-11.07,1
1102,20.69,-11.22,-18.99,1
1103,20.71,-8.62,-15.16,1
1104,20.72,2.48,5.7,1
1105,20.73,6.35,18.26,1
1106,20.75,-0.33,9.83,1
1107,20.76,-1.29,6.62,1
1108,20.77,9.35,23.83,1
1109,20.79,9.31,37.39,1
1110,20.8,-9.59,31.08,1
1111,20.81,-20.34,20.14,1
1112,20.83,-11.41,19.06,1
1113,20.84,0.09,23.1,1
1114,20.85,3.07,26.17,1
1115,20.87,-0.11,31.22,1
1116,20.88,-3.69,37.03,1
1117,20.89,-4.99,37.82,1
1118,20.9,-3.19,34.76,1
1119,20.92,5.97,34.77,1
1120,20.93,14.68,41.1,1
1121,20.94,4.11,45.81,1
1122,20.96,-16.69,36.77,1
1123,20.97,-16.22,24.6,1
1124,20.98,1.54,32.2,1
1125,21.0,2.07,49.94,1
1126,21.01,-14.45,52.83,1
1127,21.02,-19.1,46.42,1
1128,21.04,-10.01,48.44,1
1129,21.05,0.63,57.4,1
1130,21.06,11.38,57.15,1
1131,21.08,14.94,44.96,1
1132,21.09,5.36,40.34,1
1133,21.1,-8.43,42.05,1
1134,21.12,-14.35,31.73,1
1135,21.13,-6.77,23.57,1
1136,21.14,3.95,26.15,1
1137,21.16,2.96,18.11,1
1138,21.17,-4.25,9.13,1
1139,21.18,-7.26,19.71,1
1140,21.2,-8.23,27.51,1
1141,21.21,-3.59,18.95,1
1142,21.23,11.03,18.18,1
1143,21.24,17.13,28.66,1
1144,21.25,-0.28,28.7,1
1145,21.27,-16.08,20.63,1
1146,21.28,-6.44,21.36,1
1147,21.29,4.67,25.85,1
1148,21.31,-6.16,21.84,1
1149,21.32,-16.94,14.48,1
1150,21.33,-6.69,11.16,1
1151,21.35,10.59,9.42,1
1152,21.36,13.83,8.41,1
1153,21.37,3.16,10.23,1
1154,21.39,0.04,14.63,1
1155,21.4,10.01,15.47,1
1156,21.41,12.09,8.37,1
1157,21.43,2.65,1.48,1
1158,21.44,-4.69,0.86,1
1159,21.45,-6.55,0.92,1
1160,21.47,-2.72,1.47,1
1161,21.48,7.35,2.94,1
1162,21.49,14.59,0.89,1
1163,21.51,6.81,-0.92,1
1164,21.52,-11.44,0.53,1
1165,21.53,-18.38,1.02,1
1166,21.54,-4.77,0.46,1
1167,21.56,7.58,-0.8,1
1168,21.57,3.55,-3.17,1
1169,21.58,1.2,-2.56,1
1170,21.6,9.94,-1.15,1
1171,21.61,8.72,-3.66,1
1172,21.62,-8.39,-7.21,1
1173,21.64,-16.72,-13.61,1
1174,21.65,-4.91,-24.04,1
1175,21.67,5.39,-26.57,1
1176,21.68,-2.42,-15.08,1
1177,21.69,-9.36,-2.56,1
1178,21.7,4.27,-3.3,1
1179,21.72,19.73,-12.05,1
1180,21.73,14.52,-10.63,1
1181,21.75,1.73,-2.61,1
1182,21.76,-4.39,-12.01,1
1183,21.77,-11.38,-32.21,1
1184,21.78,-12.51,-32.47,1
1185,21.8,1.7,-16.93,1
1186,21.81,7.81,-13.76,1
1187,21.82,-5.27,-23.92,1
1188,21.84,-11.23,-24.29,1
1189,21.85,-1.93,-8.98,1
1190,21.87,4.32,-0.44,1
1191,21.88,-0.54,-9.16,1
1192,21.89,-3.13,-18.03,1
1193,21.91,10.18,-16.5,1
1194,21.92,20.38,-9.65,1
1195,21.93,3.69,-3.34,1
1196,21.95,-13.3,-2.34,1
1197,21.96,-2.71,-6.3,1
1198,21.97,8.05,-10.85,1
1199,21.99,-1.96,-17.15,1
1200,22.0,-9.48,-20.53,1
1201,22.01,-1.53,-14.5,1
1202,22.03,0.49,-7.56,1
1203,22.04,-20.99,-7.88,1
1204,22.05,-39.03,-12.34,1
1205,22.07,-17.76,-15.45,1
1206,22.08,14.61,-14.16,1
1207,22.09,14.34,-14.38,1
1208,22.11,0.74,-21.23,1
1209,22.12,2.68,-25.68,1
1210,22.13,8.55,-19.62,1
1211,22.15,8.48,-8.85,1
1212,22.16,8.65,-3.33,2
1213,22.17,5.3,-12.22,2
1214,22.18,-5.49,-21.57,2
1215,22.2,-12.88,-2.91,2
1216,22.21,-10.27,23.56,2
1217,22.22,9.65,27.78,2
1218,22.24,50.23,10.44,2
1219,22.25,69.04,22.2,2
1220,22.26,34.09,189.95,2
1221,22.28,-19.85,409.43,2
1222,22.29,-47.26,347.31,2
1223,22.3,-32.68,111.15,2
1224,22.32,-9.06,97.38,2
1225,22.33,-7.58,183.83,2
1226,22.34,-5.38,26.75,2
1227,22.36,15.26,-183.06,2
1228,22.37,38.62,-125.91,2
1229,22.38,26.53,1.97,2
1230,22.4,-18.32,-33.96,2
1231,22.41,-31.8,-113.72,2
1232,22.42,-16.75,-119.71,2
1233,22.44,-13.35,-68.81,2
1234,22.45,2.85,-55.41,2
1235,22.46,24.89,-132.36,2
1236,22.48,16.46,-190.22,2
1237,22.49,-2.43,-153.38,2
1238,22.5,-21.58,-93.78,2
1239,22.52,-37.85,-66.24,2
1240,22.53,-19.13,-66.25,2
1241,22.55,13.19,-116.26,1
1242,22.56,18.67,-166.26,1
1243,22.57,8.36,-126.62,1
1244,22.59,4.48,-85.04,1
1245,22.6,22.59,-114.15,1
1246,22.61,40.6,-124.6,1
1247,22.63,16.39,-112.67,1
1248,22.64,-16.2,-119.16,1
1249,22.65,-5.41,-87.43,1
1250,22.67,15.17,-35.46,1
1251,22.68,1.98,-41.74,1
1252,22.69,-21.94,-47.38,1
1253,22.71,-19.4,6.02,1
1254,22.72,5.41,28.61,1
1255,22.73,20.89,2.34,1
1256,22.75,14.04,26.9,1
1257,22.76,2.63,62.16,1
1258,22.77,9.06,15.38,1
1259,22.79,21.47,-32.89,1
1260,22.8,4.3,-26.41,1
1261,22.81,-25.94,-44.2,1
1262,22.82,-20.21,-79.9,1
1263,22.84,12.51,-47.94,1
1264,22.85,25.76,2.67,1
1265,22.86,5.63,-32.72,1
1266,22.88,-18.78,-62.47,1
1267,22.89,-17.65,27.33,1
1268,22.9,-5.09,98.21,1
1269,22.92,-5.06,47.09,1
1270,22.93,-2.58,5.3,1
1271,22.94,4.7,36.96,1
1272,22.96,-5.16,67.06,1
1273,22.97,-16.56,63.9,1
1274,22.98,-8.69,37.01,1
1275,23.0,1.5,3.19,1
1276,23.01,-3.83,-0.79,1
1277,23.02,-17.12,32.29,1
1278,23.04,-18.23,52.59,1
1279,23.05,-3.07,37.64,1
1280,23.06,13.52,31.33,1
1281,23.08,17.46,49.88,1
1282,23.09,3.44,48.74,1
1283,23.1,-10.54,2.43,1
1284,23.12,-3.94,-26.37,1
1285,23.13,4.15,37.35,1
1286,23.14,-5.14,123.79,1
1287,23.16,-15.24,109.13,1
1288,23.17,-13.96,39.32,1
1289,23.19,-10.57,39.89,1
1290,23.2,-10.9,77.84,1
1291,23.21,-4.54,69.24,1
1292,23.23,11.73,62.97,1
1293,23.24,19.04,95.26,1
1294,23.25,3.72,99.1,1
1295,23.27,-10.29,55.6,1
1296,23.28,4.61,20.95,1
1297,23.29,24.42,17.3,1
1298,23.31,16.74,22.7,1
1299,23.32,-8.3,17.05,1
1300,23.33,-20.18,2.83,1
1301,23.35,-2.04,9.66,1
1302,23.36,18.4,34.89,1
1303,23.37,2.61,49.97,1
1304,23.39,-31.26,57.73,1
1305,23.4,-36.78,55.95,1
1306,23.41,-18.05,48.14,1
1307,23.43,-15.63,58.57,1
1308,23.44,-21.33,69.49,1
1309,23.45,5.0,39.79,1
1310,23.46,41.08,-23.72,1
1311,23.48,32.1,-46.93,1
1312,23.49,-4.78,-3.81,1
1313,23.5,-8.43,17.8,1
1314,23.52,17.95,-4.63,1
1315,23.53,29.43,11.67,1
1316,23.54,23.48,62.24,1
1317,23.56,8.19,74.74,1
1318,23.57,-20.82,41.94,1
1319,23.58,-32.22,-2.65,1
1320,23.6,-2.44,-13.55,1
1321,23.61,26.88,25.76,1
1322,23.62,22.0,36.68,1
1323,23.64,9.01,-20.88,1
1324,23.65,6.78,-56.87,1
1325,23.67,1.23,-22.99,1
1326,23.68,-7.97,28.83,1
1327,23.69,-8.4,58.28,1
1328,23.7,-5.74,47.42,1
1329,23.72,-7.18,1.0,1
1330,23.73,-2.31,-31.07,1
1331,23.75,8.56,-14.12,1
1332,23.76,4.46,24.54,1
1333,23.77,-15.11,19.61,1
1334,23.78,-18.03,-36.43,1
1335,23.8,2.52,-61.13,1
1336,23.81,9.5,-20.74,1
1337,23.83,1.31,20.45,1
1338,23.84,12.02,24.87,1
1339,23.85,22.14,11.98,1
1340,23.87,-5.1,-15.4,1
1341,23.88,-40.21,-42.77,1
1342,23.89,-39.3,-40.53,1
1343,23.91,-12.44,-38.91,1
1344,23.92,13.18,-37.31,1
1345,23.93,29.96,21.09,1
1346,23.95,29.93,60.54,1
1347,23.96,13.9,-7.58,1
1348,23.97,4.75,-64.19,1
1349,23.99,7.37,-30.36,1
1350,24.0,5.02,-6.95,1
1351,24.01,1.02,-37.62,1
1352,24.03,7.23,-73.72,1
1353,24.04,7.3,-63.87,1
1354,24.05,-22.8,9.54,1
1355,24.07,-57.87,61.87,1
1356,24.08,-44.24,14.84,1
1357,24.09,-1.35,-59.85,1
1358,24.1,-0.0,-62.57,1
1359,24.12,-24.5,-34.42,1
1360,24.13,-5.05,-51.66,1
1361,24.14,32.56,-58.66,1
1362,24.16,22.25,-5.59,0
1363,24.17,-11.35,27.3,0
1364,24.18,-19.15,0.94,0
1365,24.2,-9.93,-19.86,0
1366,24.21,-5.32,-4.24,0
1367,24.22,-2.46,33.51,0
1368,24.24,13.06,89.35,0
1369,24.25,29.18,128.61,0
1370,24.26,12.81,110.68,0
1371,24.28,-26.76,61.62,0
1372,24.29,-48.05,17.51,0
1373,24.3,-39.4,-30.37,0
1374,24.32,-22.08,-102.51,0
1375,24.33,-14.19,-200.35,0
1376,24.34,-4.61,-298.31,0
1377,24.36,23.43,-361.31,0
1378,24.37,53.82,-372.28,0
1379,24.38,70.32,-330.45,0
1380,24.4,75.56,-246.91,0
1381,24.41,59.94,-146.7,0
1382,24.42,28.7,-56.92,0
1383,24.44,12.55,12.54,0
1384,24.45,10.94,66.04,0
1385,24.47,6.55,96.22,0
1386,24.48,4.21,95.05,0
1387,24.49,6.57,87.23,0
1388,24.51,3.75,94.93,0
1389,24.52,-5.3,108.67,0
1390,24.53,-10.04,121.49,0
1391,24.55,-7.49,128.36,1
1392,24.56,-5.53,118.24,1
1393,24.57,-8.75,111.02,1
1394,24.59,-12.89,123.08,1
1395,24.6,-6.0,121.79,1
1396,24.61,10.03,88.75,1
1397,24.63,14.27,58.08,1
1398,24.64,3.48,58.25,1
1399,24.65,-5.29,72.54,1
1400,24.67,-5.04,68.86,1
1401,24.68,-4.01,47.9,1
1402,24.69,-6.06,35.19,1
1403,24.71,-1.11,36.96,1
1404,24.72,6.92,38.97,1
1405,24.73,-3.0,34.57,1
1406,24.75,-21.73,29.76,1
1407,24.76,-19.48,27.25,1
1408,24.77,-2.23,24.83,1
1409,24.78,3.77,24.39,1
1410,24.8,-0.13,26.58,1
1411,24.81,-2.79,27.15,1
1412,24.82,-9.15,25.44,1
1413,24.84,-17.79,22.12,1
1414,24.85,-17.48,15.62,1
1415,24.86,-10.78,7.19,1
1416,24.88,-6.26,2.99,1
1417,24.89,-8.09,6.84,1
1418,24.9,-14.35,6.96,1
1419,24.92,-15.39,-4.47,1
1420,24.93,-9.4,-11.26,1
1421,24.94,-4.24,-4.66,1
1422,24.96,0.02,1.21,1
1423,24.97,2.97,-3.78,1
1424,24.98,2.41,-13.28,1
1425,25.0,3.77,-16.22,1
1426,25.01,6.27,-12.66,1
1427,25.02,3.87,-13.53,1
1428,25.04,-1.93,-19.52,1
1429,25.05,-6.93,-20.6,1
1430,25.06,-5.88,-15.77,1
1431,25.08,3.33,-12.23,1
1432,25.09,6.84,-11.11,1
1433,25.1,-4.2,-10.83,1
1434,25.12,-11.83,-13.64,1
1435,25.13,-5.61,-16.75,1
1436,25.15,-2.52,-14.03,1
1437,25.16,-9.38,-11.74,1
1438,25.17,-12.65,-18.04,1
1439,25.19,-6.79,-20.59,1
1440,25.2,1.27,-9.69,1
1441,25.21,2.4,-3.12,1
1442,25.23,-3.95,-12.2,1
1443,25.24,-6.42,-20.98,1
1444,25.25,-1.48,-18.79,1
1445,25.27,1.97,-16.36,1
1446,25.28,0.59,-20.05,1
1447,25.29,-0.25,-20.23,1
1448,25.31,2.49,-13.14,1
1449,25.32,7.06,-9.53,1
1450,25.33,10.07,-15.02,1
1451,25.35,8.12,-21.46,1
1452,25.36,1.41,-22.16,1
1453,25.37,-6.92,-21.02,1
1454,25.38,-14.28,-18.74,1
1455,25.4,-14.18,-7.88,1
1456,25.41,-5.5,3.47,1
1457,25.42,-0.69,-0.85,1
1458,25.44,-0.41,-13.23,1
1459,25.45,4.02,-18.13,1
1460,25.46,6.25,-13.42,1
1461,25.48,5.05,-0.52,1
1462,25.49,8.88,7.74,1
1463,25.5,8.43,-5.33,1
1464,25.52,-0.25,-21.61,1
1465,25.53,0.74,-14.06,1
1466,25.54,11.55,1.03,1
1467,25.56,15.29,-6.45,1
1468,25.57,10.98,-25.94,1
1469,25.58,7.37,-26.6,1
1470,25.6,6.3,-7.42,1
1471,25.61,2.01,5.2,1
1472,25.62,-3.76,0.43,1
1473,25.64,-0.12,-4.68,1
1474,25.65,8.5,-0.12,1
1475,25.67,7.69,2.62,1
1476,25.68,5.73,-4.88,1
1477,25.69,9.95,-14.34,1
1478,25.7,6.61,-15.64,1
1479,25.72,-3.16,-15.21,1
1480,25.73,-4.95,-20.12,1
1481,25.75,2.52,-23.38,1
1482,25.76,12.22,-17.02,1
1483,25.77,14.54,-3.46,1
1484,25.79,5.48,2.27,1
1485,25.8,-5.12,-4.31,1
1486,25.81,-9.67,-7.52,1
1487,25.83,-10.12,-1.97,1
1488,25.84,-9.73,0.53,1
1489,25.85,-9.02,-6.81,1
1490,25.87,-3.2,-11.63,1
1491,25.88,9.46,-1.87,1
1492,25.89,13.92,7.82,1
1493,25.91,-1.65,5.56,1
1494,25.92,-19.02,3.98,1
1495,25.93,-18.2,7.59,1
1496,25.95,-7.87,9.65,1
1497,25.96,-4.59,9.77,1
1498,25.97,-6.82,6.82,1
1499,25.99,-2.99,2.37,1
1500,26.0,6.5,2.57,1
1501,26.01,8.72,5.07,1
1502,26.02,3.3,5.66,1
1503,26.04,2.6,8.27,1
1504,26.05,-0.46,14.99,1
1505,26.06,-13.26,16.36,1
1506,26.08,-14.59,8.57,1
1507,26.09,-2.54,3.97,1
1508,26.1,1.52,7.18,1
1509,26.12,6.01,6.41,1
1510,26.13,18.76,-2.33,1
1511,26.14,21.78,-6.4,1
1512,26.16,14.2,1.31,0
1513,26.17,6.89,6.71,0
1514,26.18,3.47,2.89,0
1515,26.2,6.1,4.39,0
1516,26.21,6.57,12.36,0
1517,26.22,2.7,13.82,0
1518,26.24,8.75,10.5,0
1519,26.25,22.49,9.9,0
1520,26.26,23.63,8.39,0
1521,26.28,12.8,-16.16,0
1522,26.29,6.18,-76.17,0
1523,26.3,7.34,-122.28,0
1524,26.32,17.93,-105.57,0
1525,26.33,35.69,-73.01,0
1526,26.34,38.66,-83.92,0
1527,26.36,22.97,-110.4,0
1528,26.37,12.56,-110.98,0
1529,26.38,11.7,-97.42,0
1530,26.4,11.13,-89.32,0
1531,26.41,10.24,-83.79,0
1532,26.43,-1.2,-75.0,0
1533,26.44,-22.79,-60.67,0
1534,26.45,-24.86,-38.73,0
1535,26.47,-3.58,-12.19,0
1536,26.48,6.19,13.07,0
1537,26.49,-1.49,38.83,0
1538,26.51,-5.61,65.65,0
1539,26.52,-16.72,86.67,0
1540,26.53,-45.11,103.69,0
1541,26.55,-57.13,122.22,1
1542,26.56,-33.17,137.0,1
1543,26.57,-9.85,142.58,1
1544,26.59,-14.27,140.31,1
1545,26.6,-23.03,139.56,1
1546,26.61,-20.51,155.2,1
1547,26.63,-21.12,176.73,1
1548,26.64,-24.87,174.04,1
1549,26.65,-23.33,152.15,1
1550,26.67,-16.02,137.2,1
1551,26.68,-5.9,129.67,1
1552,26.69,-5.77,121.51,1
1553,26.7,-16.39,114.46,1
1554,26.72,-20.71,106.43,1
1555,26.73,-19.9,90.89,1
1556,26.75,-21.63,70.53,1
1557,26.76,-14.72,56.22,1
1558,26.77,-0.74,50.79,1
1559,26.78,-4.72,45.65,1
1560,26.8,-23.63,34.55,1
1561,26.81,-19.77,19.1,1
1562,26.82,6.45,5.52,1
1563,26.84,11.73,0.57,1
1564,26.85,-8.8,0.32,1
1565,26.86,-13.28,-13.01,1
1566,26.88,17.59,-41.82,1
1567,26.89,47.55,-54.32,1
1568,26.9,39.38,-31.53,1
1569,26.92,9.07,-2.37,1
1570,26.93,-11.63,0.24,1
1571,26.94,-19.74,-19.79,1
1572,26.96,-22.53,-38.98,1
1573,26.97,-18.89,-41.09,1
1574,26.98,-8.88,-30.44,1
1575,27.0,1.45,-22.99,1
1576,27.01,8.87,-18.95,1
1577,27.02,13.24,-15.29,1
1578,27.04,11.83,-24.97,1
1579,27.05,7.18,-44.36,1
1580,27.065,5.73,-53.59,1
1581,27.08,5.23,-51.94,1
1582,27.09,-1.31,-48.89,1
1583,27.11,-11.45,-47.78,1
1584,27.12,-12.73,-52.46,1
1585,27.13,-3.17,-60.44,1
1586,27.15,6.19,-60.23,1
1587,27.16,16.67,-52.52,1
1588,27.17,28.36,-49.82,1
1589,27.19,24.14,-50.81,1
1590,27.2,6.79,-49.5,1
1591,27.21,0.24,-50.15,1
1592,27.23,10.51,-52.77,1
1593,27.24,23.95,-50.05,1
1594,27.25,23.97,-42.64,1
1595,27.27,13.26,-43.53,1
1596,27.28,9.11,-55.18,1
1597,27.29,9.12,-59.82,1
1598,27.3,3.56,-53.35,1
1599,27.32,-0.9,-50.05,1
1600,27.33,0.22,-48.59,1
1601,27.34,1.96,-39.04,1
1602,27.36,3.52,-28.5,1
1603,27.37,9.33,-33.43,1
1604,27.38,17.73,-53.26,1
1605,27.4,15.63,-61.17,1
1606,27.41,-0.25,-48.56,1
1607,27.42,-11.3,-41.99,1
1608,27.44,-6.74,-44.28,1
1609,27.45,2.38,-31.19,1
1610,27.46,9.27,-10.12,1
1611,27.48,19.73,-4.65,1
1612,27.49,27.23,-10.99,1
1613,27.5,11.95,-19.1,1
1614,27.52,-20.13,-28.76,1
1615,27.53,-34.5,-32.1,1
1616,27.54,-19.52,-23.98,1
1617,27.56,4.59,-13.82,1
1618,27.57,24.58,-6.8,1
1619,27.58,32.78,-0.59,1
1620,27.6,17.34,1.6,1
1621,27.61,-8.85,-2.26,1
1622,27.62,-15.63,-7.22,1
1623,27.64,-5.98,-9.23,1
1624,27.65,-6.47,-7.16,1
1625,27.67,-12.86,-3.43,1
1626,27.68,-7.54,1.51,1
1627,27.69,-0.11,11.2,1
1628,27.7,-1.67,15.73,1
1629,27.72,-5.14,4.11,1
1630,27.73,5.53,-4.9,1
1631,27.75,31.59,5.52,1
1632,27.76,38.48,15.55,1
1633,27.77,9.75,10.88,1
1634,27.79,-13.5,7.88,1
1635,27.8,-6.85,6.22,1
1636,27.81,-1.42,-7.91,1
1637,27.83,-13.66,-9.12,1
1638,27.84,-18.78,18.25,1
1639,27.85,-3.3,33.47,1
1640,27.87,14.99,20.38,1
1641,27.88,23.37,12.16,1
1642,27.89,19.56,20.31,1
1643,27.91,1.36,22.05,1
1644,27.92,-6.73,8.37,1
1645,27.93,8.51,1.6,1
1646,27.94,11.02,11.09,1
1647,27.96,-12.57,20.54,1
1648,27.97,-28.73,27.3,1
1649,27.98,-19.15,33.26,1
1650,28.0,1.54,30.02,1
1651,28.01,11.91,22.91,1
1652,28.02,1.88,25.98,1
1653,28.04,-16.39,37.75,1
1654,28.05,-20.31,39.23,1
1655,28.06,-4.58,15.46,1
1656,28.08,14.18,-14.64,1
1657,28.09,7.69,-16.91,1
1658,28.1,-26.38,-0.11,1
1659,28.12,-39.35,1.79,1
1660,28.13,-6.6,-6.61,1
1661,28.14,20.59,2.69,1
1662,28.16,5.72,21.73,2
1663,28.17,-15.26,18.37,2
1664,28.18,-13.01,1.83,2
1665,28.2,-6.5,7.2,2
1666,28.21,-9.8,26.02,2
1667,28.22,-9.73,31.94,2
1668,28.24,5.23,37.24,2
1669,28.25,25.44,83.1,2
1670,28.26,25.05,189.96,2
1671,28.28,-1.18,308.03,2
1672,28.29,-19.8,363.07,2
1673,28.3,-12.0,347.91,2
1674,28.32,-6.16,300.67,2
1675,28.33,-23.75,237.51,2
1676,28.34,-42.75,162.88,2
1677,28.36,-40.88,88.68,2
1678,28.37,-32.34,14.07,2
1679,28.39,-33.47,-59.08,2
1680,28.4,-29.32,-110.21,2
1681,28.41,-6.69,-144.32,2
1682,28.43,15.99,-188.48,2
1683,28.44,20.4,-228.54,2
1684,28.45,12.43,-229.14,2
1685,28.47,7.06,-205.16,2
1686,28.48,13.58,-196.15,2
1687,28.49,25.89,-198.86,2
1688,28.51,30.18,-185.86,2
1689,28.52,26.87,-157.55,2
1690,28.53,22.28,-135.18,2
1691,28.55,15.23,-128.7,1
1692,28.56,10.3,-126.85,1
1693,28.57,12.76,-110.53,1
1694,28.58,17.46,-82.32,1
1695,28.6,24.12,-70.14,1
1696,28.61,29.9,-80.41,1
1697,28.62,20.86,-87.62,1
1698,28.64,4.12,-77.5,1
1699,28.65,2.05,-57.67,1
1700,28.67,10.28,-43.07,1
1701,28.68,11.4,-41.65,1
1702,28.69,7.97,-38.61,1
1703,28.7,7.19,-23.79,1
1704,28.72,2.33,-16.69,1
1705,28.73,-12.05,-23.02,1
1706,28.75,-22.43,-19.28,1
1707,28.76,-13.76,-1.63,1
1708,28.77,-0.12,5.5,1
1709,28.78,-4.96,-3.02,1
1710,28.8,-13.05,-4.3,1
1711,28.81,-6.49,10.06,1
1712,28.82,-4.12,18.87,1
1713,28.84,-6.88,8.94,1
1714,28.85,5.77,-1.82,1
1715,28.86,18.49,7.74,1
1716,28.88,9.97,31.94,1
1717,28.89,-8.92,49.06,1
1718,28.9,-23.47,46.22,1
1719,28.92,-24.1,29.77,1
1720,28.93,-5.66,22.92,1
1721,28.94,10.59,37.15,1
1722,28.96,3.89,53.63,1
1723,28.97,-5.42,56.11,1
1724,28.98,1.43,53.28,1
1725,29.0,5.7,58.35,1
1726,29.01,-4.27,70.67,1
1727,29.03,-13.04,75.61,1
1728,29.04,-8.0,61.83,1
1729,29.05,1.88,41.84,1
1730,29.07,-2.81,35.41,1
1731,29.08,-17.72,43.34,1
1732,29.09,-17.33,55.42,1
1733,29.11,-1.88,62.28,1
1734,29.12,4.74,57.32,1
1735,29.13,-3.28,43.54,1
1736,29.15,-10.71,32.52,1
1737,29.16,-7.29,33.86,1
1738,29.17,0.84,45.39,1
1739,29.19,4.54,55.73,1
1740,29.2,2.92,55.01,1
1741,29.21,1.76,43.15,1
1742,29.22,5.82,29.88,1
1743,29.24,10.4,23.23,1
1744,29.25,6.26,24.46,1
1745,29.26,-6.64,33.54,1
1746,29.28,-14.42,42.19,1
1747,29.29,-8.09,37.63,1
1748,29.3,-4.12,25.14,1
1749,29.32,-11.99,16.09,1
1750,29.33,-12.16,11.15,1
1751,29.34,-0.02,13.73,1
1752,29.36,3.75,22.21,1
1753,29.37,-3.08,26.66,1
1754,29.38,-3.97,26.81,1
1755,29.4,-1.17,19.53,1
1756,29.41,-8.95,3.0,1
1757,29.42,-17.1,-6.33,1
1758,29.44,-6.6,-0.94,1
1759,29.45,8.93,8.8,1
1760,29.46,7.53,16.53,1
1761,29.48,0.29,18.99,1
1762,29.49,2.9,18.79,1
1763,29.5,6.23,19.99,1
1764,29.52,3.08,11.06,1
1765,29.53,2.89,-6.3,1
1766,29.54,11.92,-10.49,1
1767,29.56,20.46,0.09,1
1768,29.57,17.27,10.03,1
1769,29.58,6.4,10.27,1
1770,29.6,-1.99,2.59,1
1771,29.61,-3.47,-3.0,1
1772,29.62,-0.58,-3.84,1
1773,29.64,-1.22,-4.3,1
1774,29.65,-6.08,-2.15,1
1775,29.67,-8.6,-2.07,1
1776,29.68,-5.22,-11.29,1
1777,29.69,4.58,-17.24,1
1778,29.71,12.56,-11.73,1
1779,29.72,9.62,-10.09,1
1780,29.73,4.88,-18.08,1
1781,29.75,8.83,-23.16,1
1782,29.76,10.87,-22.11,1
1783,29.77,0.05,-17.08,1
1784,29.79,-10.0,-7.09,1
1785,29.8,-2.82,-3.2,1
1786,29.81,11.08,-11.33,1
1787,29.83,11.41,-17.31,1
1788,29.84,0.02,-18.84,1
1789,29.85,-7.77,-26.72,1
1790,29.86,-6.05,-31.03,1
1791,29.88,-1.7,-18.09,1
1792,29.89,-3.81,-6.02,1
1793,29.9,-7.13,-12.31,1
1794,29.92,-0.56,-21.76,1
1795,29.93,4.62,-19.06,1
1796,29.94,-1.33,-12.42,1
1797,29.96,-3.66,-14.83,1
1798,29.97,-1.2,-21.43,1
1799,29.98,-7.87,-20.72,1
1800,30.0,-15.38,-23.56,1
1801,30.01,-12.14,-34.9,1
1802,30.02,-6.69,-33.99,1
1803,30.04,-5.71,-19.79,1
1804,30.05,-9.82,-15.9,1
1805,30.06,-17.4,-24.67,1
1806,30.08,-12.29,-26.53,1
1807,30.09,6.6,-20.16,1
1808,30.1,13.64,-24.92,1
1809,30.12,8.01,-39.61,1
1810,30.13,7.91,-38.76,1
1811,30.14,6.39,-18.86,1
1812,30.16,1.29,-9.67,2
1813,30.17,5.84,-25.89,2
1814,30.18,9.67,-35.01,2
1815,30.2,4.0,20.3,2
1816,30.21,9.49,93.26,2
1817,30.22,31.93,25.22,2
1818,30.24,41.18,-92.59,2
1819,30.25,10.7,14.57,2
1820,30.26,-35.05,240.47,2
1821,30.28,-41.43,279.91,2
1822,30.29,-10.16,159.45,2
1823,30.3,9.41,98.67,2
1824,30.32,17.87,148.51,2
1825,30.33,21.94,161.62,2
1826,30.35,-12.84,38.62,2
1827,30.36,-51.53,-80.52,2
1828,30.37,-28.57,-50.09,2
1829,30.39,11.08,-11.79,2
1830,30.4,3.62,-72.89,2
1831,30.41,-20.71,-77.99,2
1832,30.43,-9.63,-9.2,2
1833,30.44,29.62,-5.6,2
1834,30.45,47.12,-44.47,2
1835,30.47,30.28,-73.05,2
1836,30.48,12.09,-127.74,2
1837,30.49,4.47,-179.67,2
1838,30.5,-3.23,-169.87,2
1839,30.52,-11.01,-148.29,2
1840,30.53,-13.22,-181.78,2
1841,30.54,-11.08,-197.95,2
1842,30.56,-11.68,-115.68,1
1843,30.57,-10.28,-40.36,1
1844,30.58,8.17,-56.5,1
1845,30.6,31.03,-85.3,1
1846,30.61,31.42,-105.4,1
1847,30.62,19.97,-124.89,1
1848,30.64,15.14,-72.23,1
1849,30.65,-2.94,16.29,1
1850,30.67,-35.31,26.51,1
1851,30.68,-32.81,-26.45,1
1852,30.69,7.74,-73.61,1
1853,30.7,25.3,-80.01,1
1854,30.72,6.7,-53.39,1
1855,30.73,-1.48,-51.42,1
1856,30.75,4.04,-39.18,1
1857,30.76,-8.31,30.69,1
1858,30.77,-16.11,43.25,1
1859,30.78,3.99,-21.76,1
1860,30.8,22.96,-24.35,1
1861,30.81,28.65,14.96,1
1862,30.82,27.24,8.22,1
1863,30.84,17.58,12.18,1
1864,30.85,5.88,41.96,1
1865,30.86,-7.8,28.19,1
1866,30.88,-16.63,-6.02,1
1867,30.89,-10.22,0.52,1
1868,30.9,-5.03,20.27,1
1869,30.92,-8.92,9.72,1
1870,30.93,-12.02,8.35,1
1871,30.94,-16.2,41.0,1
1872,30.96,-16.96,39.18,1
1873,30.97,-3.05,-6.12,1
1874,30.99,16.19,-1.77,1
1875,31.0,19.93,69.22,1
1876,31.01,5.44,104.92,1
1877,31.03,-9.19,52.38,1
1878,31.04,-16.41,-0.28,1
1879,31.05,-23.44,6.37,1
1880,31.07,-22.35,22.62,1
1881,31.08,-1.49,50.96,1
1882,31.09,22.53,104.37,1
1883,31.11,20.47,108.08,1
1884,31.12,-1.75,62.92,1
1885,31.13,-8.53,44.36,1
1886,31.14,7.06,40.07,1
1887,31.16,11.41,32.87,1
1888,31.17,-14.33,53.84,1
1889,31.18,-36.19,75.75,1
1890,31.2,-18.94,64.3,1
1891,31.21,11.62,54.12,1
1892,31.22,10.85,65.69,1
1893,31.24,-18.91,63.82,1
1894,31.25,-38.2,34.79,1
1895,31.26,-22.23,14.08,1
1896,31.28,12.09,15.65,1
1897,31.29,24.91,13.25,1
1898,31.3,6.6,5.49,1
1899,31.32,-7.5,13.83,1
1900,31.33,-2.03,23.62,1
1901,31.34,0.77,22.62,1
1902,31.36,1.86,34.46,1
1903,31.37,15.04,56.15,1
1904,31.38,20.07,54.81,1
1905,31.4,4.04,31.18,1
1906,31.41,-10.42,24.14,1
1907,31.42,-9.1,28.02,1
1908,31.44,3.73,1.57,1
1909,31.45,16.97,-28.47,1
1910,31.46,13.96,-22.04,1
1911,31.48,3.45,-11.65,1
1912,31.49,5.01,-28.93,1
1913,31.5,3.67,-34.1,1
1914,31.52,-5.32,3.24,1
1915,31.53,-4.71,42.1,1
1916,31.54,-10.34,48.05,1
1917,31.56,-24.99,24.79,1
1918,31.57,-13.8,-3.79,1
1919,31.58,7.13,-11.12,1
1920,31.6,-2.38,0.54,1
1921,31.61,-18.44,30.1,1
1922,31.63,-13.4,49.79,1
1923,31.64,-1.06,9.57,1
1924,31.65,8.71,-32.55,1
1925,31.67,3.7,-3.33,1
1926,31.68,-18.85,23.62,1
1927,31.69,-29.42,-24.5,1
1928,31.71,-18.81,-66.49,1
1929,31.72,-12.52,-28.82,1
1930,31.73,-17.09,11.02,1
1931,31.75,-14.43,10.69,1
1932,31.76,-0.01,26.75,1
1933,31.77,13.38,32.99,1
1934,31.78,15.2,-8.36,1
1935,31.8,7.44,-26.89,1
1936,31.81,5.91,2.37,1
1937,31.82,16.16,8.33,1
1938,31.84,20.26,-20.41,1
1939,31.85,12.26,-19.82,1
1940,31.86,4.55,25.53,1
1941,31.88,-4.62,59.54,1
1942,31.89,-17.32,43.09,1
1943,31.9,-15.97,-7.43,1
1944,31.92,-3.01,-46.51,1
1945,31.93,-1.82,-32.13,1
1946,31.94,-1.41,10.81,1
1947,31.96,14.74,27.16,1
1948,31.97,22.4,24.4,1
1949,31.98,11.38,23.02,1
1950,32.0,3.62,5.18,1
1951,32.01,3.59,-24.31,1
1952,32.03,2.49,-29.85,1
1953,32.04,-0.74,-6.27,1
1954,32.05,-10.74,16.82,1
1955,32.06,-18.14,4.55,1
1956,32.08,-0.25,-36.29,1
1957,32.09,16.54,-47.88,1
1958,32.11,-3.1,-31.87,1
1959,32.12,-16.78,-37.14,1
1960,32.13,6.98,-40.62,1
1961,32.15,21.51,-23.64,1
1962,32.16,6.02,-20.8,0
1963,32.17,-4.76,-27.67,0
1964,32.19,0.49,-18.15,0
1965,32.2,8.89,8.7,0
1966,32.21,18.49,30.49,0
1967,32.22,21.76,16.88,0
1968,32.24,16.55,-14.22,0
1969,32.25,22.47,-18.53,0
1970,32.27,32.17,-33.71,0
1971,32.28,18.45,-119.02,0
1972,32.29,-5.54,-209.82,0
1973,32.31,-14.78,-207.84,0
1974,32.32,-14.14,-132.9,0
1975,32.33,-11.76,-60.82,0
1976,32.35,-4.55,-24.8,0
1977,32.36,3.45,-31.34,0
1978,32.37,7.32,-67.6,0
1979,32.39,12.05,-83.41,0
1980,32.4,16.78,-46.75,0
1981,32.41,11.71,7.47,0
1982,32.43,0.9,36.57,0
1983,32.44,-1.33,44.31,0
1984,32.45,-0.77,46.05,0
1985,32.47,-12.29,43.81,0
1986,32.48,-20.5,46.78,0
1987,32.49,-6.14,59.09,0
1988,32.51,7.14,67.96,0
1989,32.52,-2.88,69.04,0
1990,32.53,-15.5,67.63,0
1991,32.54,-13.88,59.82,0
1992,32.56,-5.51,47.5,1
1993,32.57,5.8,43.79,1
1994,32.59,14.78,48.98,1
1995,32.6,8.43,51.87,1
1996,32.61,-7.61,44.29,1
1997,32.63,-9.96,27.71,1
1998,32.64,2.71,18.34,1
1999,32.65,8.68,21.09,1
2000,32.67,3.89,21.55,1
2001,32.68,2.21,21.38,1
2002,32.69,5.14,28.63,1
2003,32.71,3.53,33.55,1
2004,32.72,-2.03,31.77,1
2005,32.73,-4.86,29.57,1
2006,32.75,-8.22,29.01,1
2007,32.76,-12.9,26.56,1
2008,32.77,-9.97,17.46,1
2009,32.79,-4.56,10.44,1
2010,32.8,-8.39,17.04,1
2011,32.81,-9.97,24.36,1
2012,32.83,2.95,17.79,1
2013,32.84,11.51,10.64,1
2014,32.85,1.4,16.33,1
2015,32.87,-11.74,17.99,1
2016,32.88,-14.11,4.76,1
2017,32.89,-3.29,-2.33,1
2018,32.9,13.77,2.99,1
2019,32.92,16.74,2.92,1
2020,32.93,4.69,-1.69,1
2021,32.95,-2.15,2.26,1
2022,32.96,-4.94,8.68,1
2023,32.97,-13.48,0.05,1
2024,32.99,-17.73,-20.58,1
2025,33.0,-8.23,-27.6,1
2026,33.01,4.44,-18.27,1
2027,33.03,3.99,-14.95,1
2028,33.04,-7.21,-19.02,1
2029,33.05,-9.8,-18.57,1
2030,33.06,-1.79,-12.22,1
2031,33.08,-0.52,-2.38,1
2032,33.09,-3.79,0.24,1
2033,33.11,3.7,-9.87,1
2034,33.12,14.08,-15.49,1
2035,33.13,11.74,-8.62,1
2036,33.15,-0.52,-5.65,1
2037,33.16,-12.33,-12.41,1
2038,33.17,-17.51,-13.84,1
2039,33.19,-12.73,-4.77,1
2040,33.2,-5.47,0.1,1
2041,33.21,-4.42,-8.36,1
2042,33.22,-0.15,-20.82,1
2043,33.24,11.14,-23.18,1
2044,33.25,10.79,-15.83,1
2045,33.27,-2.94,-13.56,1
2046,33.28,-6.32,-18.19,1
2047,33.29,7.02,-16.43,1
2048,33.31,17.47,-11.38,1
2049,33.32,9.6,-11.58,1
2050,33.33,-4.36,-12.8,1
2051,33.35,-3.54,-15.15,1
2052,33.36,1.32,-17.66,1
2053,33.37,-7.19,-15.73,1
2054,33.38,-9.92,-13.53,1
2055,33.4,5.2,-14.11,1
2056,33.41,11.59,-17.26,1
2057,33.43,0.58,-22.43,1
2058,33.44,-3.06,-22.32,1
2059,33.45,3.73,-17.48,1
2060,33.47,3.43,-18.69,1
2061,33.48,-0.96,-18.88,1
2062,33.49,0.34,-5.24,1
2063,33.51,2.23,5.36,1
2064,33.52,1.06,-3.93,1
2065,33.53,4.08,-15.9,1
2066,33.54,11.57,-16.57,1
2067,33.56,10.99,-14.68,1
2068,33.57,1.69,-10.29,1
2069,33.59,-3.39,-2.65,1
2070,33.6,-2.47,-0.64,1
2071,33.61,-2.44,1.59,1
2072,33.63,-1.1,6.28,1
2073,33.64,5.89,1.23,1
2074,33.65,9.81,-9.79,1
2075,33.67,0.22,-14.23,1
2076,33.68,-12.42,-9.94,1
2077,33.69,-9.4,0.67,1
2078,33.71,4.54,6.64,1
2079,33.72,11.02,-2.67,1
2080,33.73,7.53,-12.73,1
2081,33.75,0.32,-6.22,1
2082,33.76,-4.89,1.76,1
2083,33.77,-3.21,-4.89,1
2084,33.79,0.23,-9.31,1
2085,33.8,3.88,2.52,1
2086,33.81,13.39,8.82,1
2087,33.83,15.95,-5.51,1
2088,33.84,1.28,-14.24,1
2089,33.85,-9.44,-1.75,1
2090,33.87,-6.35,6.86,1
2091,33.88,-10.28,-0.63,1
2092,33.89,-19.63,-3.56,1
2093,33.9,-7.1,6.24,1
2094,33.92,18.43,9.17,1
2095,33.93,21.46,-0.13,1
2096,33.95,2.49,0.06,1
2097,33.96,-10.72,10.18,1
2098,33.97,-7.67,8.53,1
2099,33.99,0.22,-1.28,1
2100,34.0,1.11,2.19,1
2101,34.01,1.72,16.48,1
2102,34.03,7.34,20.31,1
2103,34.04,2.47,11.09,1
2104,34.05,-14.36,3.28,1
2105,34.06,-19.76,3.04,1
2106,34.08,-11.54,6.03,1
2107,34.09,-7.35,3.24,1
2108,34.11,-6.56,-7.45,1
2109,34.12,-0.97,-13.72,1
2110,34.13,9.16,-8.96,1
2111,34.15,18.19,2.4,1
2112,34.16,16.22,14.83,0
2113,34.17,0.48,20.98,0
2114,34.19,-14.7,19.54,0
2115,34.2,-10.28,13.68,0
2116,34.21,8.39,-8.43,0
2117,34.23,14.41,-65.5,0
2118,34.24,7.72,-135.63,0
2119,34.25,11.38,-163.33,0
2120,34.27,19.9,-141.94,0
2121,34.28,14.42,-121.11,0
2122,34.29,0.88,-128.54,0
2123,34.31,-8.3,-141.53,0
2124,34.32,-5.62,-131.7,0
2125,34.33,12.01,-106.92,0
2126,34.35,25.12,-85.42,0
2127,34.36,19.47,-61.41,0
2128,34.37,10.48,-28.29,0
2129,34.38,3.63,4.23,0
2130,34.4,-5.92,31.31,0
2131,34.41,-6.39,57.53,0
2132,34.43,3.55,86.05,0
2133,34.44,1.2,115.34,0
2134,34.45,-14.14,135.13,0
2135,34.47,-13.55,138.84,0
2136,34.48,2.89,142.69,0
2137,34.49,0.23,157.51,0
2138,34.51,-22.04,167.55,0
2139,34.52,-27.96,170.47,0
2140,34.53,-15.15,183.17,0
2141,34.54,-16.2,197.05,0
2142,34.56,-29.89,188.1,1
2143,34.57,-22.66,158.72,1
2144,34.59,-2.03,131.94,1
2145,34.6,-2.92,122.36,1
2146,34.61,-16.04,124.07,1
2147,34.63,-14.01,115.56,1
2148,34.64,-8.67,87.94,1
2149,34.65,-16.1,64.29,1
2150,34.67,-20.4,62.0,1
2151,34.68,-12.23,65.83,1
2152,34.69,-4.72,58.95,1
2153,34.71,-6.21,40.77,1
2154,34.72,-10.49,21.29,1
2155,34.73,-7.09,9.55,1
2156,34.75,-1.0,3.57,1
2157,34.76,-3.78,1.04,1
2158,34.77,-2.82,-0.56,1
2159,34.79,9.62,-10.69,1
2160,34.8,10.45,-29.47,1
2161,34.81,1.32,-43.96,1
2162,34.83,11.16,-43.47,1
2163,34.84,29.46,-29.26,1
2164,34.85,27.71,-19.05,1
2165,34.87,15.3,-26.11,1
2166,34.88,10.79,-38.43,1
2167,34.89,6.89,-39.46,1
2168,34.91,-5.9,-32.41,1
2169,34.92,-16.04,-28.0,1
2170,34.93,-7.93,-30.9,1
2171,34.95,5.79,-41.43,1
2172,34.96,-0.21,-50.88,1
2173,34.97,-12.02,-50.27,1
2174,34.99,-2.51,-49.36,1
2175,35.0,13.12,-54.31,1
2176,35.01,9.15,-54.46,1
2177,35.03,-6.46,-53.79,1
2178,35.04,-8.15,-63.9,1
2179,35.05,5.67,-67.48,1
2180,35.06,11.0,-50.23,1
2181,35.08,4.95,-40.62,1
2182,35.09,1.95,-54.06,1
2183,35.11,-4.67,-56.06,1
2184,35.12,-15.83,-39.16,1
2185,35.13,-10.35,-39.41,1
2186,35.15,7.36,-53.61,1
2187,35.16,7.74,-50.85,1
2188,35.17,-3.54,-41.09,1
2189,35.19,2.7,-47.75,1
2190,35.2,14.73,-58.83,1
2191,35.21,6.69,-58.2,1
2192,35.22,-3.12,-52.36,1
2193,35.24,8.0,-43.14,1
2194,35.25,18.14,-32.82,1
2195,35.27,8.34,-35.1,1
2196,35.28,-2.35,-41.85,1
2197,35.29,-1.59,-39.38,1
2198,35.31,1.4,-39.14,1
2199,35.32,3.54,-40.47,1
2200,35.33,5.87,-27.45,1
2201,35.35,7.11,-13.85,1
2202,35.36,6.86,-24.39,1
2203,35.37,4.96,-41.61,1
2204,35.38,2.85,-29.81,1
2205,35.4,-1.64,-2.72,1
2206,35.41,-12.54,-4.07,1
2207,35.43,-15.5,-26.47,1
2208,35.44,4.41,-26.96,1
2209,35.45,24.14,-5.39,1
2210,35.47,16.54,0.97,1
2211,35.48,-1.27,-16.04,1
2212,35.49,1.47,-25.56,1
2213,35.51,16.69,-13.16,1
2214,35.52,19.82,-3.56,1
2215,35.53,15.07,-12.49,1
2216,35.55,12.68,-16.23,1
2217,35.56,1.6,1.1,1
2218,35.57,-16.8,12.58,1
2219,35.59,-16.48,-1.65,1
2220,35.6,6.98,-16.15,1
2221,35.61,21.89,-5.21,1
2222,35.63,12.0,12.9,1
2223,35.64,1.08,9.81,1
2224,35.65,2.74,-3.48,1
2225,35.67,-6.27,-1.74,1
2226,35.68,-29.69,10.71,1
2227,35.69,-27.94,18.61,1
2228,35.71,4.75,19.32,1
2229,35.72,20.93,12.56,1
2230,35.73,11.27,0.65,1
2231,35.75,6.44,-5.23,1
2232,35.76,0.0,2.57,1
2233,35.77,-20.99,17.99,1
2234,35.79,-26.8,29.07,1
2235,35.8,-5.77,29.51,1
2236,35.81,12.39,24.04,1
2237,35.83,17.71,21.79,1
2238,35.84,21.5,21.81,1
2239,35.85,22.72,17.92,1
2240,35.87,16.5,10.47,1
2241,35.88,-3.19,1.26,1
2242,35.89,-30.61,-2.93,1
2243,35.9,-36.95,7.88,1
2244,35.92,-18.66,25.66,1
2245,35.93,-5.15,29.73,1
2246,35.95,-3.23,16.99,1
2247,35.96,0.36,7.3,1
2248,35.97,3.84,15.96,1
2249,35.99,1.39,35.01,1
2250,36.0,2.45,45.05,1
2251,36.01,14.88,32.88,1
2252,36.03,21.84,7.41,1
2253,36.04,8.86,-1.17,1
2254,36.05,-12.42,14.26,1
2255,36.06,-30.28,24.26,1
2256,36.08,-42.66,16.84,1
2257,36.09,-42.34,13.38,1
2258,36.11,-18.46,24.43,1
2259,36.12,20.04,33.41,1
2260,36.13,40.07,29.0,1
2261,36.15,26.1,19.3,1
2262,36.16,-3.7,9.68,2
2263,36.17,-25.7,2.14,2
2264,36.19,-25.05,3.77,2
2265,36.2,-6.85,9.38,2
2266,36.21,7.78,7.48,2
2267,36.23,14.54,3.63,2
2268,36.24,20.57,14.08,2
2269,36.25,24.72,52.75,2
2270,36.27,25.08,128.01,2
2271,36.28,20.35,225.93,2
2272,36.29,5.41,305.64,2
2273,36.31,-16.85,339.78,2
2274,36.32,-30.1,331.02,2
2275,36.33,-25.57,282.02,2
2276,36.35,-13.44,199.91,2
2277,36.36,-5.95,111.96,2
2278,36.37,-6.62,35.65,2
2279,36.38,-17.06,-31.43,2
2280,36.4,-36.47,-87.57,2
2281,36.41,-52.03,-133.79,2
2282,36.43,-52.65,-180.03,2
2283,36.44,-37.09,-216.27,2
2284,36.45,-6.57,-225.36,2
2285,36.47,19.49,-219.71,2
2286,36.48,15.53,-216.73,2
2287,36.49,-1.02,-209.77,2
2288,36.51,8.85,-189.35,2
2289,36.52,39.93,-164.57,2
2290,36.53,56.11,-150.29,2
2291,36.54,48.07,-144.53,2
2292,36.56,32.35,-130.85,1
2293,36.57,21.18,-107.84,1
2294,36.59,13.69,-88.15,1
2295,36.6,4.4,-71.5,1
2296,36.61,-1.07,-60.71,1
2297,36.63,4.78,-69.08,1
2298,36.64,12.16,-83.64,1
2299,36.65,13.42,-79.26,1
2300,36.67,14.9,-62.59,1
2301,36.68,16.53,-51.55,1
2302,36.69,14.14,-42.82,1
2303,36.71,12.42,-32.68,1
2304,36.72,13.42,-32.86,1
2305,36.73,9.37,-37.55,1
2306,36.75,-3.11,-27.46,1
2307,36.76,-13.82,-5.97,1
2308,36.77,-13.74,10.49,1
2309,36.79,-7.08,13.83,1
2310,36.8,-3.68,8.05,1
2311,36.81,-3.83,6.18,1
2312,36.83,0.58,11.33,1
2313,36.84,8.61,12.95,1
2314,36.85,12.5,7.79,1
2315,36.87,5.72,7.02,1
2316,36.88,-10.18,22.85,1
2317,36.89,-19.66,47.13,1
2318,36.9,-18.51,55.05,1
2319,36.92,-19.04,47.35,1
2320,36.93,-15.9,43.8,1
2321,36.95,2.45,36.88,1
2322,36.96,20.67,21.26,1
2323,36.97,17.45,22.74,1
2324,36.99,-0.7,45.51,1
2325,37.0,-14.32,61.25,1
2326,37.01,-20.28,59.31,1
2327,37.03,-25.18,50.86,1
2328,37.04,-25.51,47.39,1
2329,37.05,-14.32,53.6,1
2330,37.06,0.96,54.83,1
2331,37.08,5.09,43.0,1
2332,37.09,1.64,38.27,1
2333,37.11,7.85,46.99,1
2334,37.12,16.74,48.58,1
2335,37.13,5.8,39.5,1
2336,37.15,-16.86,39.13,1
2337,37.16,-25.53,53.4,1
2338,37.17,-16.46,63.44,1
2339,37.19,-2.71,52.32,1
2340,37.2,7.1,32.95,1
2341,37.21,13.38,27.96,1
2342,37.22,12.76,30.76,1
2343,37.24,0.85,23.26,1
2344,37.25,-8.38,15.77,1
2345,37.27,-6.16,24.5,1
2346,37.28,-11.56,34.9,1
2347,37.29,-23.46,32.32,1
2348,37.31,-14.4,28.14,1
2349,37.32,6.14,31.54,1
2350,37.33,10.97,34.0,1
2351,37.35,5.01,27.67,1
2352,37.36,-0.09,16.86,1
2353,37.37,-3.88,14.91,1
2354,37.38,-4.05,23.0,1
2355,37.4,-1.76,25.55,1
2356,37.41,-3.23,19.23,1
2357,37.43,-11.34,13.37,1
2358,37.44,-18.86,11.31,1
2359,37.45,-10.25,12.31,1
2360,37.47,10.24,15.64,1
2361,37.48,16.59,15.59,1
2362,37.49,6.84,7.45,1
2363,37.51,-0.63,-2.08,1
2364,37.52,-8.93,-7.94,1
2365,37.53,-18.77,-12.45,1
2366,37.54,-12.52,-11.89,1
2367,37.56,6.99,-4.42,1
2368,37.57,16.33,3.3,1
2369,37.59,9.6,7.3,1
2370,37.6,-1.19,4.89,1
2371,37.61,-7.95,1.11,1
2372,37.63,-9.56,4.84,1
2373,37.64,-4.85,6.02,1
2374,37.65,4.22,-3.92,1
2375,37.67,8.95,-12.73,1
2376,37.68,8.45,-10.9,1
2377,37.69,11.08,-4.11,1
2378,37.71,15.29,-0.46,1
2379,37.72,13.85,-4.23,1
2380,37.73,7.3,-11.5,1
2381,37.75,2.57,-11.97,1
2382,37.76,3.98,-8.34,1
2383,37.77,5.77,-10.78,1
2384,37.79,3.07,-14.31,1
2385,37.8,1.65,-13.27,1
2386,37.81,3.85,-15.8,1
2387,37.83,2.24,-22.76,1
2388,37.84,-4.87,-22.62,1
2389,37.85,-9.42,-16.0,1
2390,37.87,-9.25,-11.38,1
2391,37.88,-10.35,-10.85,1
2392,37.89,-8.74,-14.0,1
2393,37.9,1.61,-17.15,1
2394,37.92,9.52,-16.55,1
2395,37.93,6.74,-13.91,1
2396,37.95,-0.2,-11.67,1
2397,37.96,-2.88,-11.7,1
2398,37.97,4.83,-12.83,1
2399,37.99,15.86,-14.35,1
2400,38.0,14.46,-19.13,1
2401,38.01,7.77,-22.52,1
2402,38.03,9.52,-18.13,1
2403,38.04,8.1,-11.73,1
2404,38.05,-3.94,-9.88,1
2405,38.06,-12.3,-13.69,1
2406,38.08,-7.56,-20.98,1
2407,38.09,4.45,-25.64,1
2408,38.11,8.99,-26.68,1
2409,38.12,-0.31,-23.07,1
2410,38.13,-8.01,-10.85,1
2411,38.15,-2.72,-0.6,1
2412,38.16,3.17,-3.02,2
2413,38.17,2.56,-12.17,2
2414,38.19,-0.28,-22.57,2
2415,38.2,-2.6,-29.87,2
2416,38.21,3.53,-39.55,2
2417,38.22,13.09,-41.93,2
2418,38.24,6.77,38.4,2
2419,38.25,-4.08,185.77,2
2420,38.27,15.37,204.85,2
2421,38.28,46.23,71.8,2
2422,38.29,31.54,18.02,2
2423,38.31,-17.1,55.05,2
2424,38.32,-41.01,13.25,2
2425,38.33,-28.23,-0.67,2
2426,38.35,5.7,136.84,2
2427,38.36,39.33,213.49,2
2428,38.37,31.77,76.08,2
2429,38.38,-4.08,-96.42,2
2430,38.4,-5.01,-98.83,2
2431,38.41,19.81,8.54,2
2432,38.43,13.05,2.91,2
2433,38.44,-24.86,-112.39,2
2434,38.45,-40.63,-127.02,2
2435,38.47,-18.88,-58.77,2
2436,38.48,-12.11,-73.75,2
2437,38.49,-26.02,-145.09,2
2438,38.51,-12.49,-159.1,2
2439,38.52,6.4,-124.76,2
2440,38.53,-2.34,-97.03,2
2441,38.54,-2.9,-60.45,2
2442,38.56,14.35,-18.2,1
2443,38.57,14.35,-20.46,1
2444,38.59,1.52,-59.09,1
2445,38.6,-2.83,-81.86,1
2446,38.61,-5.82,-57.89,1
2447,38.63,-9.46,-3.4,1
2448,38.64,-10.85,11.52,1
2449,38.65,-19.73,-64.32,1
2450,38.67,-30.63,-148.5,1
2451,38.68,-18.95,-119.52,1
2452,38.69,9.35,-31.2,1
2453,38.71,12.01,2.88,1
2454,38.72,-12.43,-2.63,1
2455,38.73,-17.73,-2.02,1
2456,38.75,3.54,10.07,1
2457,38.76,21.03,10.31,1
2458,38.77,24.26,-28.33,1
2459,38.79,18.6,-58.29,1
2460,38.8,13.7,-30.7,1
2461,38.81,12.59,0.84,1
2462,38.83,5.95,-1.49,1
2463,38.84,1.01,1.85,1
2464,38.85,8.66,15.62,1
2465,38.87,10.37,24.43,1
2466,38.88,-8.15,48.62,1
2467,38.89,-24.74,54.92,1
2468,38.9,-19.44,22.94,1
2469,38.92,-2.7,32.36,1
2470,38.93,2.78,70.81,1
2471,38.95,-11.6,46.21,1
2472,38.96,-23.49,0.15,1
2473,38.97,-5.03,8.29,1
2474,38.99,28.62,33.07,1
2475,39.0,31.78,20.88,1
2476,39.01,4.97,-7.1,1
2477,39.03,1.98,-11.89,1
2478,39.04,24.08,-13.46,1
2479,39.05,21.83,-32.83,1
2480,39.06,8.36,-29.33,1
2481,39.08,11.6,-1.01,1
2482,39.09,2.1,-0.56,1
2483,39.11,-16.74,-18.59,1
2484,39.12,-8.41,-3.59,1
2485,39.13,5.31,29.1,1
2486,39.15,-1.28,9.0,1
2487,39.16,-4.32,-38.54,1
2488,39.17,0.17,-15.08,1
2489,39.19,-8.34,41.15,1
2490,39.2,-15.08,40.43,1
2491,39.21,-2.44,25.53,1
2492,39.22,10.33,45.77,1
2493,39.24,9.69,57.28,1
2494,39.25,5.26,20.74,1
2495,39.27,-0.6,-21.53,1
2496,39.28,-2.37,-0.13,1
2497,39.29,13.54,60.28,1
2498,39.31,25.91,64.95,1
2499,39.32,13.45,15.18,1
2500,39.33,0.88,15.37,1
2501,39.35,-2.31,67.06,1
2502,39.36,-11.77,56.52,1
2503,39.37,-20.58,0.46,1
2504,39.38,-18.74,12.14,1
2505,39.4,-17.11,52.22,1
2506,39.41,-25.46,44.89,1
2507,39.43,-32.27,42.65,1
2508,39.44,-23.22,60.58,1
2509,39.45,-9.28,44.77,1
2510,39.47,-5.97,19.55,1
2511,39.48,-6.16,21.54,1
2512,39.49,-1.7,21.24,1
2513,39.51,2.81,22.64,1
2514,39.52,4.33,51.82,1
2515,39.53,7.45,72.37,1
2516,39.54,12.34,55.38,1
2517,39.56,4.87,25.93,1
2518,39.57,-13.03,8.82,1
2519,39.59,-4.9,30.61,1
2520,39.6,25.99,73.72,1
2521,39.61,18.99,55.0,1
2522,39.63,-19.49,-4.02,1
2523,39.64,-21.57,7.56,1
2524,39.65,4.46,64.89,1
2525,39.67,6.02,56.73,1
2526,39.68,-9.42,-16.44,1
2527,39.69,-11.39,-52.52,1
2528,39.71,-7.07,-0.22,1
2529,39.72,-10.86,68.04,1
2530,39.73,-13.06,56.5,1
2531,39.75,-9.94,-3.76,1
2532,39.76,-10.43,-7.78,1
2533,39.77,-13.33,30.32,1
2534,39.79,-12.93,19.31,1
2535,39.8,-2.17,-39.66,1
2536,39.81,16.82,-67.0,1
2537,39.83,23.2,-33.22,1
2538,39.84,15.03,-0.96,1
2539,39.85,13.59,-16.27,1
2540,39.87,17.63,-43.96,1
2541,39.88,10.9,-40.67,1
2542,39.89,-0.46,-9.53,1
2543,39.9,-1.22,13.33,1
2544,39.92,0.83,0.4,1
2545,39.93,-5.88,-30.41,1
2546,39.95,-6.99,-31.95,1
2547,39.96,9.22,0.93,1
2548,39.97,25.86,21.31,1
2549,39.99,20.94,11.01,1
2550,40.0,-1.93,-9.79,1
2551,40.01,-20.27,-30.91,1
2552,40.03,-18.59,-44.49,1
2553,40.04,0.64,-39.85,1
2554,40.05,15.13,-22.07,1
2555,40.07,5.36,-8.45,1
2556,40.08,-20.87,1.55,1
2557,40.09,-38.57,9.9,1
2558,40.11,-28.91,-14.0,1
2559,40.12,-0.56,-57.7,1
2560,40.13,15.3,-56.77,1
2561,40.15,14.61,-15.34,1
2562,40.16,17.83,10.29,0
2563,40.17,14.6,6.87,0
2564,40.19,-0.37,-7.19,0
2565,40.2,3.6,-32.98,0
2566,40.21,22.59,-100.74,0
2567,40.22,23.58,-202.9,0
2568,40.24,2.19,-267.08,0
2569,40.25,-28.8,-260.06,0
2570,40.27,-46.85,-220.38,0
2571,40.28,-36.04,-177.18,0
2572,40.29,-11.41,-125.84,0
2573,40.31,14.39,-63.07,0
2574,40.32,45.09,4.63,0
2575,40.33,65.8,74.18,0
2576,40.35,62.05,133.22,0
2577,40.36,48.96,156.52,0
2578,40.37,36.18,145.98,0
2579,40.38,16.05,131.94,0
2580,40.4,-3.62,128.91,0
2581,40.41,-6.03,132.3,0
2582,40.43,7.46,130.98,0
2583,40.44,23.22,112.69,0
2584,40.45,29.07,88.37,0
2585,40.47,20.01,79.47,0
2586,40.48,3.81,78.37,0
2587,40.49,-9.46,69.45,0
2588,40.51,-18.99,62.91,0
2589,40.52,-21.91,65.83,0
2590,40.53,-14.93,60.73,0
2591,40.54,-6.95,41.95,0
2592,40.56,-11.13,30.9,1
2593,40.57,-25.67,35.01,1
2594,40.59,-33.35,36.42,1
2595,40.6,-28.69,29.8,1
2596,40.61,-23.14,29.11,1
2597,40.63,-18.18,35.82,1
2598,40.64,-9.74,32.4,1
2599,40.65,-4.89,14.35,1
2600,40.67,-7.69,-3.48,1
2601,40.68,-13.13,-15.41,1
2602,40.69,-15.35,-21.78,1
2603,40.71,-8.42,-17.59,1
2604,40.72,0.63,-14.51,1
2605,40.73,-4.41,-26.31,1
2606,40.75,-16.13,-33.93,1
2607,40.76,-11.21,-22.28,1
2608,40.77,6.63,-16.01,1
2609,40.79,12.2,-28.42,1
2610,40.8,-0.92,-36.64,1
2611,40.81,-11.33,-28.9,1
2612,40.83,-1.74,-17.22,1
2613,40.84,10.49,-13.12,1
2614,40.85,1.34,-16.73,1
2615,40.87,-13.98,-21.02,1
2616,40.88,-11.43,-24.84,1
2617,40.89,-0.62,-26.92,1
2618,40.9,7.04,-21.56,1
2619,40.92,10.83,-17.37,1
2620,40.93,2.33,-21.31,1
2621,40.95,-11.92,-20.89,1
2622,40.96,-12.08,-17.92,1
2623,40.97,-1.9,-25.32,1
2624,40.99,3.28,-32.9,1
2625,41.0,1.67,-27.99,1
2626,41.01,0.02,-21.2,1
2627,41.03,6.16,-27.16,1
2628,41.04,14.2,-36.85,1
2629,41.05,9.84,-31.66,1
2630,41.06,-0.55,-16.77,1
2631,41.08,-1.07,-8.83,1
2632,41.09,3.84,-10.99,1
2633,41.11,3.25,-17.53,1
2634,41.12,-2.71,-22.2,1
2635,41.13,-9.72,-25.51,1
2636,41.15,-11.19,-25.63,1
2637,41.16,-1.63,-17.09,1
2638,41.17,10.01,-9.41,1
2639,41.19,11.41,-8.51,1
2640,41.2,3.74,-7.74,1
2641,41.21,-3.6,-11.84,1
2642,41.22,-2.06,-21.57,1
2643,41.24,3.94,-21.34,1
2644,41.25,0.62,-8.68,1
2645,41.27,-7.25,4.05,1
2646,41.28,-5.4,7.06,1
2647,41.29,1.66,-4.44,1
2648,41.31,6.15,-21.05,1
2649,41.32,8.08,-24.17,1
2650,41.33,0.88,-15.48,1
2651,41.35,-7.97,-10.84,1
2652,41.36,2.55,-9.55,1
2653,41.37,18.62,-5.89,1
2654,41.38,11.73,-4.21,1
2655,41.4,-5.28,-5.67,1
2656,41.41,-5.45,-6.25,1
2657,41.43,6.11,-3.15,1
2658,41.44,10.28,4.07,1
2659,41.45,8.24,10.69,1
2660,41.47,7.59,10.35,1
2661,41.48,4.57,2.51,1
2662,41.49,-0.89,-3.22,1
2663,41.51,-4.06,-1.07,1
2664,41.52,-3.35,-2.64,1
2665,41.53,1.6,-10.92,1
2666,41.54,2.9,-6.01,1
2667,41.56,-5.23,10.22,1
2668,41.57,-9.65,13.88,1
2669,41.59,-1.34,8.14,1
2670,41.6,9.82,8.75,1
2671,41.61,16.9,10.02,1
2672,41.63,17.48,3.11,1
2673,41.64,5.11,-1.92,1
2674,41.65,-8.76,1.87,1
2675,41.67,-4.32,4.66,1
2676,41.68,2.43,4.79,1
2677,41.69,-13.22,7.63,1
2678,41.71,-28.34,8.66,1
2679,41.72,-13.91,4.61,1
2680,41.73,10.82,1.66,1
2681,41.75,18.3,7.12,1
2682,41.76,12.56,16.96,1
2683,41.77,7.4,15.4,1
2684,41.79,4.36,1.95,1
2685,41.8,-2.22,-1.56,1
2686,41.81,-7.06,8.69,1
2687,41.83,0.04,13.09,1
2688,41.84,7.23,8.49,1
2689,41.85,-1.56,5.53,1
2690,41.87,-10.98,1.94,1
2691,41.88,-5.69,-7.7,1
2692,41.89,1.91,-13.67,1
2693,41.9,5.85,-5.11,1
2694,41.92,12.05,8.89,1
2695,41.93,12.49,11.83,1
2696,41.95,-0.58,6.09,1
2697,41.96,-15.53,8.02,1
2698,41.97,-16.55,20.97,1
2699,41.99,-3.9,29.72,1
2700,42.0,3.01,22.69,1
2701,42.01,-6.77,12.03,1
2702,42.03,-16.37,12.38,1
2703,42.04,-12.96,11.2,1
2704,42.05,-6.62,1.73,1
2705,42.06,-9.63,2.54,1
2706,42.08,-17.28,13.9,1
2707,42.09,-12.63,16.96,1
2708,42.11,3.96,8.3,1
2709,42.12,12.97,-6.21,1
2710,42.13,11.38,-12.93,1
2711,42.15,14.71,3.45,1
2712,42.16,20.61,25.16,0
2713,42.17,12.41,20.58,0
2714,42.19,-3.68,2.64,0
2715,42.2,-12.08,3.71,0
2716,42.21,-12.58,15.71,0
2717,42.22,-9.05,13.02,0
2718,42.24,-5.38,-0.83,0
2719,42.25,0.15,-7.35,0
2720,42.27,12.25,-3.16,0
2721,42.28,17.28,3.62,0
2722,42.29,8.41,7.95,0
2723,42.31,6.61,7.59,0
2724,42.32,12.91,1.71,0
2725,42.33,4.56,-3.55,0
2726,42.35,-9.23,-0.94,0
2727,42.36,-6.99,5.23,0
2728,42.37,-3.06,5.03,0
2729,42.38,-11.67,-10.72,0
2730,42.4,-16.13,-57.25,0
2731,42.41,-8.46,-127.68,0
2732,42.43,-0.5,-172.03,0
2733,42.44,7.52,-166.43,0
2734,42.45,18.92,-151.34,0
2735,42.47,22.77,-152.69,0
2736,42.48,15.09,-149.52,0
2737,42.49,11.93,-140.23,0
2738,42.51,23.03,-137.61,0
2739,42.52,29.54,-118.74,0
2740,42.53,17.35,-73.25,0
2741,42.54,7.61,-29.78,0
2742,42.56,13.96,3.11,1
2743,42.57,12.81,37.47,1
2744,42.59,-3.2,68.82,1
2745,42.6,-9.68,95.13,1
2746,42.61,-5.51,121.94,1
2747,42.63,-12.28,141.12,1
2748,42.64,-28.56,148.82,1
2749,42.65,-34.95,154.13,1
2750,42.66,-29.2,160.58,1
2751,42.68,-25.02,169.8,1
2752,42.69,-26.96,181.66,1
2753,42.71,-26.38,187.53,1
2754,42.72,-18.37,180.08,1
2755,42.73,-8.82,161.57,1
2756,42.75,-1.21,146.29,1
2757,42.76,8.18,139.68,1
2758,42.77,14.79,125.54,1
2759,42.79,4.61,100.79,1
2760,42.8,-20.58,85.85,1
2761,42.81,-32.46,81.99,1
2762,42.83,-14.04,69.98,1
2763,42.84,9.56,53.6,1
2764,42.85,8.29,49.88,1
2765,42.87,-4.27,50.13,1
2766,42.88,-3.37,39.13,1
2767,42.89,-2.12,21.86,1
2768,42.9,-11.84,9.31,1
2769,42.92,-13.0,7.12,1
2770,42.93,-2.9,11.32,1
2771,42.95,1.79,8.99,1
2772,42.96,1.84,-5.03,1
2773,42.97,0.48,-19.58,1
2774,42.99,-5.97,-20.56,1
2775,43.0,-7.15,-13.79,1
2776,43.01,4.6,-19.62,1
2777,43.03,13.07,-36.28,1
2778,43.04,6.54,-41.92,1
2779,43.05,-2.74,-40.51,1
2780,43.06,-2.35,-49.62,1
2781,43.08,4.47,-56.01,1
2782,43.09,11.35,-45.98,1
2783,43.11,18.87,-38.28,1
2784,43.12,21.7,-47.43,1
2785,43.13,7.02,-61.76,1
2786,43.15,-15.34,-64.67,1
2787,43.16,-14.99,-55.06,1
2788,43.17,7.12,-47.76,1
2789,43.19,20.89,-51.99,1
2790,43.2,17.98,-57.82,1
2791,43.21,11.44,-57.08,1
2792,43.22,11.62,-56.39,1
2793,43.24,14.26,-57.88,1
2794,43.25,13.15,-53.31,1
2795,43.27,19.64,-43.3,1
2796,43.28,28.33,-39.97,1
2797,43.29,14.37,-47.36,1
2798,43.3,-7.26,-53.34,1
2799,43.32,-6.71,-47.93,1
2800,43.33,0.37,-42.34,1
2801,43.35,-3.05,-48.43,1
2802,43.36,-0.99,-59.32,1
2803,43.37,5.64,-64.43,1
2804,43.38,0.24,-57.64,1
2805,43.4,-8.78,-42.78,1
2806,43.41,-7.38,-38.8,1
2807,43.43,-2.16,-50.54,1
2808,43.44,1.87,-55.07,1
2809,43.45,12.21,-40.48,1
2810,43.47,17.33,-26.48,1
2811,43.48,-0.17,-28.28,1
2812,43.49,-14.47,-31.29,1
2813,43.51,1.09,-23.63,1
2814,43.52,15.83,-16.17,1
2815,43.53,0.94,-17.1,1
2816,43.54,-19.0,-23.24,1
2817,43.56,-13.39,-31.26,1
2818,43.57,4.79,-34.73,1
2819,43.59,5.37,-29.87,1
2820,43.6,-5.57,-24.68,1
2821,43.61,-4.48,-23.41,1
2822,43.63,3.46,-20.82,1
2823,43.64,2.65,-15.61,1
2824,43.65,-6.96,-12.53,1
2825,43.67,-15.66,-13.8,1
2826,43.68,-11.72,-14.69,1
2827,43.69,2.89,-15.65,1
2828,43.71,12.18,-24.49,1
2829,43.72,16.98,-34.48,1
2830,43.73,28.69,-26.98,1
2831,43.75,37.62,-4.52,1
2832,43.76,26.14,12.07,1
2833,43.77,0.72,15.45,1
2834,43.79,-12.76,11.07,1
2835,43.8,-2.65,8.11,1
2836,43.81,10.02,14.15,1
2837,43.83,4.27,22.14,1
2838,43.84,-9.54,24.42,1
2839,43.85,-15.35,24.74,1
2840,43.87,-14.08,22.78,1
2841,43.88,-11.44,18.81,1
2842,43.89,-9.93,19.13,1
2843,43.9,-9.08,20.37,1
2844,43.92,-9.73,17.33,1
2845,43.93,-13.41,13.25,1
2846,43.94,-14.39,10.51,1
2847,43.96,-7.25,12.97,1
2848,43.97,-0.32,20.59,1
2849,43.99,-2.48,23.34,1
2850,44.0,-8.63,20.72,1
2851,44.01,-11.1,21.48,1
2852,44.03,-9.42,24.19,1
2853,44.04,-6.59,21.02,1
2854,44.05,-10.2,12.5,1
2855,44.06,-22.53,9.32,1
2856,44.08,-26.92,17.09,1
2857,44.09,-10.71,23.91,1
2858,44.11,6.58,17.63,1
2859,44.12,4.77,7.83,1
2860,44.13,-0.91,10.87,1
2861,44.15,4.69,22.93,1
2862,44.16,10.42,27.96,2
2863,44.17,3.61,21.44,2
2864,44.19,-10.0,13.64,2
2865,44.2,-8.73,17.81,2
2866,44.21,10.7,30.25,2
2867,44.22,19.48,30.58,2
2868,44.24,11.3,18.59,2
2869,44.25,10.3,15.37,2
2870,44.27,17.93,19.04,2
2871,44.28,18.76,15.75,2
2872,44.29,9.57,18.16,2
2873,44.31,-6.36,51.5,2
2874,44.32,-19.54,126.09,2
2875,44.33,-17.75,226.31,2
2876,44.35,-8.32,311.49,2
2877,44.36,-13.05,343.45,2
2878,44.37,-31.14,317.09,2
2879,44.38,-35.62,255.79,2
2880,44.4,-21.37,189.08,2
2881,44.41,-11.74,130.0,2
2882,44.43,-12.97,71.93,2
2883,44.44,-14.77,13.21,2
2884,44.45,-16.87,-45.14,2
2885,44.47,-18.28,-113.31,2
2886,44.48,-9.64,-184.01,2
2887,44.49,7.0,-226.9,2
2888,44.51,18.55,-233.27,2
2889,44.52,21.97,-220.94,2
2890,44.53,22.08,-204.23,2
2891,44.54,21.22,-189.83,2
2892,44.56,23.79,-178.17,1
2893,44.57,31.2,-164.27,1
2894,44.58,30.33,-149.57,1
2895,44.6,13.12,-139.66,1
2896,44.61,-5.64,-123.55,1
2897,44.625,-6.92,-89.73,1
2898,44.64,8.24,-65.32,1
2899,44.65,22.04,-78.72,1
2900,44.67,23.18,-103.62,1
2901,44.68,15.7,-103.03,1
2902,44.69,11.41,-84.6,1
2903,44.71,18.05,-71.02,1
2904,44.72,29.57,-62.61,1
2905,44.73,30.38,-51.53,1
2906,44.75,12.18,-43.52,1
2907,44.76,-7.43,-41.02,1
2908,44.77,-4.11,-30.87,1
2909,44.79,13.8,-15.7,1
2910,44.8,21.39,-10.05,1
2911,44.81,14.18,-6.32,1
2912,44.83,1.64,2.76,1
2913,44.84,-8.78,4.39,1
2914,44.85,-13.79,-0.54,1
2915,44.87,-14.35,6.69,1
2916,44.88,-8.59,24.59,1
2917,44.89,-1.36,27.05,1
2918,44.9,-4.66,10.24,1
2919,44.92,-11.17,8.86,1
2920,44.93,-7.24,32.88,1
2921,44.95,-4.16,41.39,1
2922,44.96,-10.8,24.97,1
2923,44.97,-12.66,25.26,1
2924,44.99,-5.93,43.34,1
2925,45.0,-2.12,40.48,1
2926,45.01,-0.92,26.36,1
2927,45.03,-1.01,36.15,1
2928,45.04,-8.37,55.24,1
2929,45.05,-15.65,51.33,1
2930,45.06,-10.31,37.42,1
2931,45.08,0.74,39.91,1
2932,45.09,1.06,48.06,1
2933,45.11,-7.56,46.88,1
2934,45.12,-9.49,48.62,1
2935,45.13,-5.26,56.59,1
2936,45.15,-7.87,53.48,1
2937,45.16,-10.82,43.27,1
2938,45.17,-2.0,48.89,1
2939,45.19,7.17,59.32,1
2940,45.2,5.83,50.42,1
2941,45.21,-0.1,38.54,1
2942,45.22,-7.92,43.68,1
2943,45.24,-12.92,49.38,1
2944,45.25,-8.18,38.74,1
2945,45.26,-1.07,23.27,1
2946,45.28,-1.99,23.08,1
2947,45.29,-5.75,37.67,1
2948,45.31,1.18,47.24,1
2949,45.32,12.57,41.12,1
2950,45.33,9.38,24.47,1
2951,45.35,0.55,11.84,1
2952,45.36,1.4,16.12,1
2953,45.37,-2.53,31.67,1
2954,45.38,-13.62,38.56,1
2955,45.4,-6.37,29.08,1
2956,45.41,12.07,18.09,1
2957,45.43,7.42,17.41,1
2958,45.44,-9.1,18.37,1
2959,45.45,-3.28,14.93,1
2960,45.47,12.8,16.79,1
2961,45.48,9.9,23.37,1
2962,45.49,-2.55,19.9,1
2963,45.51,-1.12,7.9,1
2964,45.52,7.89,1.08,1
2965,45.53,7.71,2.71,1
2966,45.54,4.9,6.62,1
2967,45.56,5.56,4.38,1
2968,45.57,-3.3,-2.99,1
2969,45.59,-18.44,-2.82,1
2970,45.6,-16.28,6.32,1
2971,45.61,2.75,8.23,1
2972,45.63,14.82,-3.99,1
2973,45.64,11.62,-11.86,1
2974,45.65,1.49,-3.38,1
2975,45.67,-5.26,5.07,1
2976,45.68,-3.08,3.69,1
2977,45.69,0.22,1.68,1
2978,45.71,-3.98,-0.48,1
2979,45.72,-5.61,-4.7,1
2980,45.73,2.23,-5.19,1
2981,45.75,5.83,-4.34,1
2982,45.76,1.45,-8.51,1
2983,45.77,0.4,-13.32,1
2984,45.79,1.82,-13.56,1
2985,45.8,1.32,-14.82,1
2986,45.81,5.42,-22.65,1
2987,45.83,10.26,-27.19,1
2988,45.84,1.56,-15.71,1
2989,45.85,-13.12,2.58,1
2990,45.86,-14.43,4.7,1
2991,45.88,-6.54,-11.18,1
2992,45.89,-5.23,-22.78,1
2993,45.9,-5.89,-17.23,1
2994,45.92,0.79,-7.29,1
2995,45.93,3.34,-11.45,1
2996,45.95,-5.11,-25.22,1
2997,45.96,-9.08,-26.02,1
2998,45.97,-1.49,-12.53,1
2999,45.99,8.48,-10.44,1
3000,46.0,12.95,-27.07,1
3001,46.01,7.35,-37.21,1
3002,46.03,-6.68,-28.01,1
3003,46.04,-17.61,-12.92,1
3004,46.05,-18.43,-4.51,1
3005,46.06,-16.32,-5.64,1
3006,46.08,-13.21,-9.57,1
3007,46.09,-4.08,-9.17,1
3008,46.11,5.34,-11.74,1
3009,46.12,7.78,-18.8,1
3010,46.13,3.28,-19.08,1
3011,46.15,-2.09,-16.76,1
3012,46.16,-2.91,-20.85,2
3013,46.17,-2.51,-22.66,2
3014,46.19,-0.63,-20.05,2
3015,46.2,2.33,-10.12,2
3016,46.21,-0.78,34.3,2
3017,46.22,-2.22,115.81,2
3018,46.24,1.91,199.42,2
3019,46.25,6.72,231.5,2
3020,46.27,28.81,136.37,2
3021,46.28,61.24,-55.07,2
3022,46.29,57.22,-157.8,2
3023,46.31,10.23,-62.91,2
3024,46.32,-28.0,143.74,2
3025,46.33,-14.26,235.98,2
3026,46.35,25.46,62.8,2
3027,46.36,26.55,-148.8,2
3028,46.37,2.05,-142.03,2
3029,46.38,15.11,-41.04,2
3030,46.4,35.88,30.56,2
3031,46.41,5.5,93.47,2
3032,46.43,-28.86,64.38,2
3033,46.44,-10.49,-87.46,2
3034,46.45,8.59,-168.11,2
3035,46.47,-18.25,-86.56,2
3036,46.48,-35.79,-66.99,2
3037,46.49,-20.11,-152.18,2
3038,46.5,-20.72,-129.99,2
3039,46.52,-30.02,-79.79,2
3040,46.53,-14.71,-119.43,2
3041,46.54,-2.34,-131.82,2
3042,46.56,-19.03,-138.39,1
3043,46.57,-46.68,-181.24,1
3044,46.59,-47.43,-130.33,1
3045,46.6,-10.01,-25.41,1
3046,46.61,11.16,-33.56,1
3047,46.63,-10.81,-89.23,1
3048,46.64,-20.5,-62.0,1
3049,46.65,1.27,-6.58,1
3050,46.67,14.06,-7.49,1
3051,46.68,5.46,-53.69,1
3052,46.69,-2.41,-81.54,1
3053,46.71,-1.72,-57.68,1
3054,46.72,-13.84,-30.79,1
3055,46.73,-32.0,-43.67,1
3056,46.75,-13.51,-43.89,1
3057,46.76,21.87,13.56,1
3058,46.77,16.2,64.52,1
3059,46.79,-3.65,70.35,1
3060,46.8,14.43,83.89,1
3061,46.81,36.06,80.21,1
3062,46.83,13.99,8.97,1
3063,46.84,-17.77,-32.38,1
3064,46.85,-3.83,21.78,1
3065,46.87,35.37,58.24,1
3066,46.88,49.33,12.98,1
3067,46.89,43.63,-20.26,1
3068,46.9,30.28,1.56,1
3069,46.92,-1.54,20.95,1
3070,46.93,-25.74,40.97,1
3071,46.95,-16.6,76.98,1
3072,46.96,-1.9,70.73,1
3073,46.97,-0.14,30.7,1
3074,46.99,2.69,21.6,1
3075,47.0,4.36,9.89,1
3076,47.01,-2.96,-31.29,1
3077,47.03,-2.55,-33.15,1
3078,47.04,3.66,11.17,1
3079,47.05,-4.95,28.67,1
3080,47.06,-14.57,21.46,1
3081,47.08,-3.37,47.93,1
3082,47.09,19.43,96.66,1
3083,47.11,30.94,107.58,1
3084,47.12,22.19,64.34,1
3085,47.13,2.96,6.07,1
3086,47.14,-17.41,-20.27,1
3087,47.16,-26.59,-3.26,1
3088,47.17,-11.89,18.17,1
3089,47.18,13.05,11.81,1
3090,47.2,25.23,17.1,1
3091,47.21,20.52,54.76,1
3092,47.22,14.61,53.44,1
3093,47.24,21.41,-26.42,1
3094,47.25,27.66,-81.94,1
3095,47.27,12.04,-18.97,1
3096,47.28,-14.77,77.77,1
3097,47.29,-20.86,99.12,1
3098,47.31,3.49,50.74,1
3099,47.32,32.52,-16.53,1
3100,47.33,34.01,-23.43,1
3101,47.35,12.93,55.15,1
3102,47.36,5.69,102.53,1
3103,47.37,10.61,37.15,1
3104,47.38,-7.4,-45.47,1
3105,47.4,-33.47,-45.2,1
3106,47.41,-30.37,1.74,1
3107,47.43,-15.49,30.17,1
3108,47.44,-11.11,36.61,1
3109,47.45,-5.81,42.01,1
3110,47.47,-7.54,44.83,1
3111,47.48,-22.77,15.55,1
3112,47.49,-15.86,-32.55,1
3113,47.51,15.24,-15.53,1
3114,47.52,18.48,66.29,1
3115,47.53,-11.29,76.44,1
3116,47.54,-27.62,-10.22,1
3117,47.56,-17.47,-39.02,1
3118,47.57,-8.59,34.0,1
3119,47.59,-15.7,71.32,1
3120,47.6,-16.9,26.09,1
3121,47.61,0.97,-1.8,1
3122,47.63,6.78,22.3,1
3123,47.64,-10.09,43.64,1
3124,47.65,-8.15,29.89,1
3125,47.67,17.37,-7.81,1
3126,47.68,19.64,-12.81,1
3127,47.69,0.4,17.21,1
3128,47.71,-3.31,-13.1,1
3129,47.72,-0.81,-68.76,1
3130,47.73,-13.88,-28.42,1
3131,47.75,-28.16,25.65,1
3132,47.76,-22.35,-20.86,1
3133,47.77,-2.21,-71.75,1
3134,47.78,9.5,-27.96,1
3135,47.8,9.52,35.79,1
3136,47.81,19.15,35.4,1
3137,47.82,30.82,22.05,1
3138,47.84,16.09,33.39,1
3139,47.85,-11.0,14.32,1
3140,47.86,-19.75,-22.88,1
3141,47.88,-16.25,-16.59,1
3142,47.89,-23.96,4.79,1
3143,47.9,-33.29,-3.62,1
3144,47.92,-15.0,-15.51,1
3145,47.93,15.13,9.77,1
3146,47.95,20.62,45.44,1
3147,47.96,4.1,36.01,1
3148,47.97,-14.3,-0.21,1
3149,47.99,-22.71,-25.21,1
3150,48.0,-12.13,-39.47,1
3151,48.01,7.84,-26.94,1
3152,48.03,15.49,20.69,1
3153,48.04,16.91,47.08,1
3154,48.05,19.51,-0.49,1
3155,48.06,-0.44,-48.98,1
3156,48.08,-26.85,-22.14,1
3157,48.09,-11.83,-8.22,1
3158,48.11,23.62,-42.05,1
3159,48.12,30.13,-17.2,1
3160,48.13,17.73,54.85,1
3161,48.15,11.31,61.09,1
3162,48.16,4.44,2.57,0
3163,48.17,-7.39,-25.69,0
3164,48.19,-9.96,7.27,0
3165,48.2,6.5,38.89,0
3166,48.21,22.81,21.79,0
3167,48.22,14.19,-33.01,0
3168,48.24,-5.14,-83.2,0
3169,48.25,-8.36,-75.23,0
3170,48.27,9.65,-16.44,0
3171,48.28,39.85,18.95,0
3172,48.29,49.7,13.69,0
3173,48.31,13.42,12.63,0
3174,48.32,-22.99,8.55,0
3175,48.33,-14.22,-13.2,0
3176,48.35,1.47,-17.86,0
3177,48.36,-1.02,-13.25,0
3178,48.37,4.17,-31.03,0
3179,48.38,10.29,-68.47,0
3180,48.4,-3.52,-139.52,0
3181,48.41,-23.03,-234.64,0
3182,48.42,-24.64,-285.12,0
3183,48.44,-6.45,-262.62,0
3184,48.45,8.67,-202.48,0
3185,48.46,5.74,-136.95,0
3186,48.48,-1.41,-76.07,0
3187,48.49,0.34,-15.32,0
3188,48.5,8.13,45.96,0
3189,48.52,12.61,89.06,0
3190,48.53,5.46,106.72,0
3191,48.54,-8.89,114.77,0
3192,48.56,-18.16,116.43,1
3193,48.57,-18.86,105.87,1
3194,48.59,-18.26,94.63,1
3195,48.6,-18.02,96.46,1
3196,48.61,-8.06,103.62,1
3197,48.63,7.19,101.84,1
3198,48.64,10.93,90.65,1
3199,48.65,2.76,72.43,1
3200,48.67,-7.23,47.68,1
3201,48.68,-6.39,29.83,1
3202,48.69,4.11,28.76,1
3203,48.71,-0.25,31.34,1
3204,48.72,-16.84,28.78,1
3205,48.73,-13.47,28.13,1
3206,48.75,3.05,27.47,1
3207,48.76,4.74,21.42,1
3208,48.77,-1.72,18.4,1
3209,48.79,-1.2,23.39,1
3210,48.8,-1.66,28.28,1
3211,48.81,-10.17,27.5,1
3212,48.83,-16.74,24.62,1
3213,48.84,-11.8,24.14,1
3214,48.85,-3.61,23.2,1
3215,48.87,-2.33,17.23,1
3216,48.88,-3.83,11.31,1
3217,48.89,-5.56,10.44,1
3218,48.9,-11.54,12.95,1
3219,48.92,-12.35,16.19,1
3220,48.93,1.35,13.6,1
3221,48.95,11.76,2.89,1
3222,48.96,5.08,-2.79,1
3223,48.97,-3.96,5.24,1
3224,48.99,-6.38,11.29,1
3225,49.0,-4.4,-1.64,1
3226,49.01,5.96,-20.65,1
3227,49.03,19.12,-24.08,1
3228,49.04,21.41,-13.39,1
3229,49.05,12.62,-1.42,1
3230,49.06,0.01,1.12,1
3231,49.08,-8.71,-9.93,1
3232,49.09,-2.58,-18.87,1
3233,49.1,11.74,-10.33,1
3234,49.12,9.28,2.29,1
3235,49.13,-7.46,0.64,1
3236,49.14,-14.55,-8.03,1
3237,49.16,-10.67,-9.75,1
3238,49.17,-3.65,-8.36,1
3239,49.19,3.07,-10.2,1
3240,49.2,1.08,-10.1,1
3241,49.21,-3.85,-7.02,1
3242,49.22,4.91,-11.77,1
3243,49.24,20.05,-25.68,1
3244,49.25,19.81,-30.4,1
3245,49.27,5.86,-15.21,1
3246,49.28,-2.33,-0.62,1
3247,49.29,-0.05,-6.18,1
3248,49.31,2.54,-14.74,1
3249,49.32,0.73,-8.27,1
3250,49.33,-2.77,-3.58,1
3251,49.35,-1.16,-15.59,1
3252,49.36,4.68,-31.77,1
3253,49.37,3.96,-35.52,1
3254,49.38,-3.62,-21.73,1
3255,49.4,-4.84,-8.12,1
3256,49.41,4.8,-14.68,1
3257,49.43,13.39,-23.83,1
3258,49.44,12.41,-15.22,1
3259,49.45,6.19,-5.82,1
3260,49.47,2.74,-9.6,1
3261,49.48,7.37,-15.69,1
3262,49.49,11.99,-14.65,1
3263,49.51,7.17,-7.13,1
3264,49.52,2.55,-3.52,1
3265,49.53,3.16,-11.7,1
3266,49.54,-1.07,-21.52,1
3267,49.56,-7.39,-23.15,1
3268,49.57,-8.37,-17.51,1
3269,49.59,-11.37,-10.63,1
3270,49.6,-13.48,-11.61,1
3271,49.61,-3.31,-17.86,1
3272,49.63,5.8,-17.07,1
3273,49.64,0.71,-11.03,1
3274,49.65,-3.34,-8.47,1
3275,49.67,0.67,-9.13,1
3276,49.68,-1.13,-13.73,1
3277,49.69,-7.71,-18.75,1
3278,49.7,-7.18,-12.6,1
3279,49.72,-2.55,-4.49,1
3280,49.73,-0.81,-9.08,1
3281,49.74,0.22,-11.81,1
3282,49.76,3.09,-4.84,1
3283,49.77,4.06,-4.76,1
3284,49.78,-1.32,-8.69,1
3285,49.8,-4.13,0.87,1
3286,49.81,1.15,13.12,1
3287,49.83,3.9,5.79,1
3288,49.84,3.9,-12.45,1
3289,49.85,8.14,-15.98,1
3290,49.87,9.93,-4.24,1
3291,49.88,3.67,3.06,1
3292,49.89,-5.81,1.68,1
3293,49.9,-13.23,3.24,1
3294,49.92,-15.34,10.87,1
3295,49.93,-11.86,14.71,1
3296,49.95,-5.16,10.32,1
3297,49.96,1.98,6.84,1
3298,49.97,5.51,10.5,1
3299,49.99,7.06,14.31,1
3300,50.0,5.67,8.78,1
3301,50.01,-4.16,-4.04,1
3302,50.03,-12.43,-11.24,1
3303,50.04,-8.02,-5.93,1
3304,50.05,-2.79,4.51,1
3305,50.06,-5.37,11.82,1
3306,50.08,-3.77,13.72,1
3307,50.09,6.01,5.35,1
3308,50.11,13.54,-7.78,1
3309,50.12,16.65,-8.33,1
3310,50.13,15.99,2.43,1
3311,50.15,7.66,7.57,1
3312,50.16,-1.89,3.28,0
3313,50.17,-4.8,3.94,0
3314,50.19,-2.18,15.96,0
3315,50.2,6.96,17.93,0
3316,50.21,15.4,-18.12,0
3317,50.22,11.24,-78.86,0
3318,50.24,-1.88,-114.76,0
3319,50.25,-14.55,-111.43,0
3320,50.27,-9.38,-98.97,0
3321,50.28,24.34,-98.83,0
3322,50.29,48.93,-108.94,0
3323,50.31,29.92,-112.01,0
3324,50.32,-0.68,-93.71,0
3325,50.33,-5.32,-68.85,0
3326,50.34,9.77,-57.67,0
3327,50.36,24.43,-53.78,0
3328,50.37,19.82,-41.41,0
3329,50.38,-2.15,-11.75,0
3330,50.4,-12.44,28.04,0
3331,50.41,-7.24,56.43,0
3332,50.42,-6.4,68.05,0
3333,50.44,-10.58,76.96,0
3334,50.45,-16.24,87.39,0
3335,50.46,-22.98,98.54,0
3336,50.48,-17.28,115.12,0
3337,50.49,0.71,132.17,0
3338,50.51,4.02,139.5,0
3339,50.52,-18.3,139.46,0
3340,50.53,-42.04,141.6,0
3341,50.54,-45.85,146.36,0
3342,50.56,-33.27,142.99,1
3343,50.57,-16.12,132.17,1
3344,50.59,-2.93,128.28,1
3345,50.6,-2.71,130.89,1
3346,50.61,-16.17,132.31,1
3347,50.63,-26.85,131.69,1
3348,50.64,-20.22,121.25,1
3349,50.65,0.71,99.4,1
3350,50.67,18.97,83.76,1
3351,50.68,19.39,80.04,1
3352,50.69,4.41,73.21,1
3353,50.71,-11.96,59.69,1
3354,50.72,-15.39,51.24,1
3355,50.73,-5.26,45.4,1
3356,50.75,1.38,29.55,1
3357,50.76,2.63,8.59,1
3358,50.77,10.4,-3.98,1
3359,50.79,9.19,-9.28,1
3360,50.8,-13.06,-16.17,1
3361,50.81,-26.13,-22.28,1
3362,50.83,-9.82,-22.5,1
3363,50.84,12.88,-24.46,1
3364,50.85,24.46,-32.11,1
3365,50.87,33.98,-32.5,1
3366,50.88,35.28,-23.35,1
3367,50.89,14.82,-23.47,1
3368,50.9,-6.01,-37.05,1
3369,50.92,-3.0,-44.47,1
3370,50.93,9.42,-42.19,1
3371,50.95,7.94,-47.57,1
3372,50.96,-2.81,-59.16,1
3373,50.97,-1.42,-61.97,1
3374,50.98,10.99,-56.72,1
3375,51.0,7.1,-46.74,1
3376,51.01,-11.97,-35.59,1
3377,51.02,-16.93,-38.09,1
3378,51.04,-9.96,-52.59,1
3379,51.05,-11.41,-57.35,1
3380,51.06,-12.07,-49.36,1
3381,51.08,3.62,-45.26,1
3382,51.09,19.45,-47.84,1
3383,51.1,15.01,-46.38,1
3384,51.12,2.55,-42.85,1
3385,51.13,4.38,-46.18,1
3386,51.15,17.02,-48.58,1
3387,51.16,19.77,-40.45,1
3388,51.17,8.25,-35.74,1
3389,51.19,-1.27,-48.64,1
3390,51.2,-0.97,-64.74,1
3391,51.21,2.75,-65.43,1
3392,51.22,6.58,-54.24,1
3393,51.24,10.1,-44.65,1
3394,51.25,11.51,-45.14,1
3395,51.27,6.52,-51.45,1
3396,51.28,-4.79,-50.94,1
3397,51.29,-10.28,-41.37,1
3398,51.31,-9.46,-31.62,1
3399,51.32,-7.9,-27.49,1
3400,51.33,3.65,-27.96,1
3401,51.35,15.51,-30.81,1
3402,51.36,6.94,-34.75,1
3403,51.37,-4.35,-34.86,1
3404,51.38,-2.09,-27.48,1
3405,51.4,-1.59,-22.47,1
3406,51.41,-1.38,-28.29,1
3407,51.43,8.29,-33.24,1
3408,51.44,13.56,-26.44,1
3409,51.45,6.01,-16.92,1
3410,51.47,-2.43,-13.04,1
3411,51.48,-5.8,-8.52,1
3412,51.49,-4.75,-4.96,1
3413,51.51,1.59,-11.54,1
3414,51.52,6.62,-17.16,1
3415,51.53,5.35,-7.27,1
3416,51.54,1.54,3.73,1
3417,51.56,-4.24,-1.25,1
3418,51.57,-7.4,-11.24,1
3419,51.59,-4.76,-10.68,1
3420,51.6,-8.35,-5.42,1
3421,51.61,-14.07,-9.38,1
3422,51.62,-3.21,-15.39,1
3423,51.64,8.73,-8.01,1
3424,51.65,-0.19,4.45,1
3425,51.66,-10.36,7.85,1
3426,51.68,-3.6,7.0,1
3427,51.69,3.51,8.4,1
3428,51.7,-0.44,7.84,1
3429,51.72,-1.12,1.64,1
3430,51.73,11.54,-0.0,1
3431,51.74,23.2,9.08,1
3432,51.76,20.15,13.7,1
3433,51.77,5.87,10.54,1
3434,51.79,-10.94,15.01,1
3435,51.8,-15.35,23.3,1
3436,51.81,0.16,22.79,1
3437,51.83,12.0,19.45,1
3438,51.84,3.3,17.68,1
3439,51.85,-7.01,12.24,1
3440,51.87,-8.78,8.29,1
3441,51.88,-12.35,14.53,1
3442,51.89,-17.01,22.48,1
3443,51.9,-15.28,21.74,1
3444,51.92,-6.97,20.32,1
3445,51.93,3.46,23.47,1
3446,51.95,8.35,21.54,1
3447,51.96,7.79,15.17,1
3448,51.97,11.45,14.53,1
3449,51.99,14.67,20.95,1
3450,52.0,4.27,27.45,1
3451,52.01,-9.89,26.73,1
3452,52.03,-14.44,20.17,1
3453,52.04,-14.76,16.87,1
3454,52.05,-10.38,21.02,1
3455,52.06,-0.75,27.32,1
3456,52.08,-5.11,26.94,1
3457,52.09,-17.6,18.83,1
3458,52.11,-6.3,10.57,1
3459,52.12,16.73,9.36,1
3460,52.13,18.08,17.97,1
3461,52.15,5.64,28.67,1
3462,52.16,-1.43,31.49,2
3463,52.17,-5.59,26.54,2
3464,52.19,-10.86,16.23,2
3465,52.2,-11.39,7.55,2
3466,52.21,-0.01,23.06,2
3467,52.22,14.59,86.94,2
3468,52.24,14.96,188.98,2
3469,52.25,8.2,277.22,2
3470,52.26,9.01,312.45,2
3471,52.28,9.37,301.87,2
3472,52.29,-2.61,257.63,2
3473,52.3,-26.66,187.47,2
3474,52.32,-44.04,126.3,2
3475,52.33,-35.66,92.84,2
3476,52.34,-26.13,52.12,2
3477,52.36,-44.75,-14.91,2
3478,52.37,-59.35,-74.51,2
3479,52.38,-33.96,-111.06,2
3480,52.4,3.62,-148.52,2
3481,52.41,14.91,-193.29,2
3482,52.43,6.58,-224.59,2
3483,52.44,3.53,-228.36,2
3484,52.45,15.37,-210.89,2
3485,52.47,31.58,-192.38,2
3486,52.48,32.55,-182.31,2
3487,52.49,19.24,-165.73,2
3488,52.51,13.18,-140.56,2
3489,52.52,19.6,-127.26,2
3490,52.53,22.44,-124.33,2
3491,52.54,16.69,-114.0,2
3492,52.56,13.83,-97.59,1
3493,52.57,17.26,-86.11,1
3494,52.59,16.33,-84.55,1
3495,52.6,9.09,-90.05,1
3496,52.61,10.68,-92.69,1
3497,52.63,26.8,-85.59,1
3498,52.64,40.69,-67.59,1
3499,52.65,34.65,-45.93,1
3500,52.67,13.85,-32.38,1
3501,52.68,1.04,-23.63,1
3502,52.69,4.25,-13.33,1
3503,52.71,9.11,-6.81,1
3504,52.72,4.23,-3.4,1
3505,52.73,-4.56,4.7,1
3506,52.75,-2.08,13.45,1
3507,52.76,9.43,12.79,1
3508,52.77,8.5,6.62,1
3509,52.79,-6.29,6.31,1
3510,52.8,-16.02,14.95,1
3511,52.81,-14.33,24.41,1
3512,52.83,-7.98,24.73,1
3513,52.84,-4.56,25.41,1
3514,52.85,-6.58,41.11,1
3515,52.87,-10.31,53.32,1
3516,52.88,-11.85,39.88,1
3517,52.89,-7.12,17.9,1
3518,52.9,3.4,16.32,1
3519,52.92,6.19,33.35,1
3520,52.93,-3.71,44.05,1
3521,52.94,-9.36,44.16,1
3522,52.96,-6.01,49.34,1
3523,52.97,-6.12,54.34,1
3524,52.98,-7.38,48.79,1
3525,53.0,-0.56,44.44,1
3526,53.01,8.68,47.77,1
3527,53.02,8.13,49.2,1
3528,53.04,-6.55,47.46,1
3529,53.05,-20.18,46.32,1
3530,53.06,-16.32,41.04,1
3531,53.08,-7.98,34.14,1
3532,53.09,-9.89,37.04,1
3533,53.11,-11.29,47.51,1
3534,53.12,-5.37,49.07,1
3535,53.13,0.06,38.4,1
3536,53.15,2.76,31.44,1
3537,53.16,4.07,37.54,1
3538,53.17,4.38,42.29,1
3539,53.19,6.5,32.82,1
3540,53.2,5.35,20.65,1
3541,53.21,-2.53,20.15,1
3542,53.22,-7.15,25.89,1
3543,53.24,-7.16,27.03,1
3544,53.25,-11.53,25.84,1
3545,53.27,-17.12,28.49,1
3546,53.28,-15.66,31.16,1
3547,53.29,-6.63,30.01,1
3548,53.31,1.23,29.09,1
3549,53.32,-3.96,30.39,1
3550,53.33,-15.43,34.58,1
3551,53.35,-14.58,40.29,1
3552,53.36,-4.04,40.1,1
3553,53.37,4.81,32.44,1
3554,53.38,9.09,20.62,1
3555,53.4,5.32,10.46,1
3556,53.41,-1.49,10.13,1
3557,53.43,-3.85,13.95,1
3558,53.44,-11.19,9.06,1
3559,53.45,-22.88,-2.94,1
3560,53.47,-23.42,-11.0,1
3561,53.48,-13.59,-6.12,1
3562,53.49,-2.7,9.1,1
3563,53.51,7.37,17.27,1
3564,53.52,15.27,8.67,1
3565,53.53,13.78,-5.69,1
3566,53.54,2.96,-9.88,1
3567,53.56,-2.5,-1.86,1
3568,53.57,-2.19,4.54,1
3569,53.58,-8.01,1.95,1
3570,53.6,-10.49,-5.12,1
3571,53.61,1.85,-15.91,1
3572,53.62,14.15,-22.2,1
3573,53.64,13.37,-11.27,1
3574,53.65,8.7,3.31,1
3575,53.66,7.79,-0.84,1
3576,53.68,5.55,-15.11,1
3577,53.69,2.56,-19.63,1
3578,53.7,2.59,-15.23,1
3579,53.72,-1.76,-14.66,1
3580,53.73,-6.34,-22.87,1
3581,53.75,3.53,-30.56,1
3582,53.76,14.95,-27.12,1
3583,53.77,7.42,-17.39,1
3584,53.79,-9.7,-16.34,1
3585,53.8,-16.22,-25.2,1
3586,53.81,-5.04,-24.83,1
3587,53.83,14.25,-12.22,1
3588,53.84,19.98,-11.56,1
3589,53.85,4.56,-22.59,1
3590,53.87,-9.77,-22.25,1
3591,53.88,-2.21,-16.06,1
3592,53.89,13.57,-19.69,1
3593,53.9,14.02,-20.58,1
3594,53.92,0.75,-7.57,1
3595,53.93,-9.96,-0.75,1
3596,53.95,-9.66,-10.89,1
3597,53.96,0.01,-19.23,1
3598,53.97,10.95,-18.41,1
3599,53.99,15.29,-16.27,1
3600,54.0,13.94,-10.97,1
3601,54.01,12.91,-2.92,1
3602,54.03,9.65,-1.64,1
3603,54.04,-0.25,-8.2,1
3604,54.05,-10.41,-12.27,1
3605,54.06,-18.18,-11.85,1
3606,54.08,-25.55,-15.3,1
3607,54.09,-21.09,-21.24,1
3608,54.11,-5.39,-24.18,1
3609,54.12,0.47,-26.17,1
3610,54.13,-4.95,-21.22,1
3611,54.15,-3.91,1.5,1
3612,54.16,12.14,30.26,2
3613,54.17,30.17,38.13,2
3614,54.18,26.25,29.4,2
3615,54.2,4.85,47.36,2
3616,54.21,-11.97,85.78,2
3617,54.22,-19.38,83.84,2
3618,54.24,-10.96,75.66,2
3619,54.25,12.37,123.38,2
3620,54.26,21.15,139.63,2
3621,54.28,7.57,65.49,2
3622,54.29,1.45,5.14,2
3623,54.3,12.86,1.31,2
3624,54.32,14.39,6.16,2
3625,54.33,-15.08,17.5,2
3626,54.34,-38.44,0.94,2
3627,54.36,-5.6,-74.49,2
3628,54.37,48.42,-114.42,2
3629,54.38,55.89,-54.98,2
3630,54.4,23.16,9.38,2
3631,54.41,-7.39,-0.49,2
3632,54.43,-29.77,-48.25,2
3633,54.44,-46.47,-89.08,2
3634,54.45,-34.46,-96.38,2
3635,54.47,2.9,-72.36,2
3636,54.48,19.15,-83.82,2
3637,54.49,3.51,-133.87,2
3638,54.51,-4.08,-143.25,2
3639,54.52,2.97,-131.19,2
3640,54.53,3.29,-136.26,2
3641,54.54,2.89,-102.22,2
3642,54.56,1.05,-43.86,1
3643,54.57,-6.45,-41.91,1
3644,54.59,2.98,-77.53,1
3645,54.6,17.8,-85.64,1
3646,54.61,7.63,-60.39,1
3647,54.63,0.05,-33.74,1
3648,54.64,20.76,-25.45,1
3649,54.65,33.61,-19.8,1
3650,54.67,11.44,-7.35,1
3651,54.68,-14.37,-21.9,1
3652,54.69,-7.72,-59.06,1
3653,54.71,14.62,-46.78,1
3654,54.72,15.19,23.88,1
3655,54.73,-1.94,60.69,1
3656,54.75,-6.89,23.28,1
3657,54.76,5.23,-15.14,1
3658,54.77,10.85,-3.35,1
3659,54.79,-2.73,11.08,1
3660,54.8,-13.75,-8.05,1
3661,54.81,-9.2,-25.48,1
3662,54.82,-7.71,-20.02,1
3663,54.84,-13.66,-28.79,1
3664,54.85,-11.12,-59.96,1
3665,54.86,-4.32,-40.94,1
3666,54.88,-10.04,45.28,1
3667,54.89,-20.85,98.26,1
3668,54.9,-20.76,69.56,1
3669,54.92,-9.07,32.05,1
3670,54.93,8.71,34.49,1
3671,54.94,17.81,50.54,1
3672,54.96,12.34,71.91,1
3673,54.97,5.59,101.97,1
3674,54.98,-2.28,103.12,1
3675,55.0,-10.06,53.47,1
3676,55.01,-8.4,1.74,1
3677,55.02,-9.96,2.25,1
3678,55.04,-13.95,35.24,1
3679,55.05,0.13,46.37,1
3680,55.06,12.76,31.59,1
3681,55.08,2.04,21.76,1
3682,55.09,-7.67,35.95,1
3683,55.11,-5.66,57.17,1
3684,55.12,-10.05,40.61,1
3685,55.13,-19.78,15.55,1
3686,55.15,-20.19,48.67,1
3687,55.16,-14.35,92.31,1
3688,55.17,-11.52,76.83,1
3689,55.19,-7.47,28.0,1
3690,55.2,-1.34,5.58,1
3691,55.21,4.01,32.07,1
3692,55.22,7.09,59.09,1
3693,55.24,6.78,43.15,1
3694,55.25,14.29,18.65,1
3695,55.27,21.32,21.44,1
3696,55.28,4.78,36.01,1
3697,55.29,-12.53,29.07,1
3698,55.31,-4.89,5.16,1
3699,55.32,6.15,1.73,1
3700,55.33,3.53,24.03,1
3701,55.35,0.7,39.73,1
3702,55.36,8.05,19.62,1
3703,55.37,17.29,-13.96,1
3704,55.38,21.46,-19.46,1
3705,55.4,19.47,-9.79,1
3706,55.41,6.32,-2.65,1
3707,55.43,-12.51,11.75,1
3708,55.44,-22.04,23.78,1
3709,55.45,-18.4,25.93,1
3710,55.46,-9.78,33.94,1
3711,55.48,-6.47,45.79,1
3712,55.49,-1.62,44.3,1
3713,55.5,15.11,24.09,1
3714,55.52,23.24,-8.2,1
3715,55.53,8.95,-30.26,1
3716,55.54,-3.72,-38.44,1
3717,55.56,-5.38,-52.87,1
3718,55.57,-7.6,-48.01,1
3719,55.58,-7.77,-1.8,1
3720,55.6,-7.54,29.51,1
3721,55.61,-10.65,16.98,1
3722,55.62,-0.53,1.36,1
3723,55.64,17.13,-16.69,1
3724,55.65,10.28,-44.66,1
3725,55.66,-9.47,-36.09,1
3726,55.68,-7.47,-9.11,1
3727,55.69,-1.02,-15.15,1
3728,55.71,-12.15,-6.26,1
3729,55.72,-12.53,34.43,1
3730,55.73,9.99,33.56,1
3731,55.75,23.75,-11.4,1
3732,55.76,17.94,-21.81,1
3733,55.77,18.38,22.51,1
3734,55.79,22.96,40.69,1
3735,55.8,1.26,-15.76,1
3736,55.81,-26.37,-57.02,1
3737,55.83,-19.04,-23.98,1
3738,55.84,-2.21,-7.9,1
3739,55.85,-8.37,-36.78,1
3740,55.87,-12.88,-30.04,1
3741,55.88,-1.67,-4.0,1
3742,55.89,2.19,-12.24,1
3743,55.9,-6.81,-20.87,1
3744,55.92,-10.15,-10.63,1
3745,55.93,0.59,-3.35,1
3746,55.95,12.32,-3.28,1
3747,55.96,6.8,-8.93,1
3748,55.97,-11.54,-4.57,1
3749,55.99,-13.67,12.56,1
3750,56.0,3.79,0.87,1
3751,56.01,10.08,-27.31,1
3752,56.03,-0.56,-14.8,1
3753,56.04,-5.28,4.13,1
3754,56.05,4.04,-24.74,1
3755,56.06,10.12,-40.27,1
3756,56.08,-3.94,6.08,1
3757,56.09,-20.38,44.44,1
3758,56.1,-8.33,38.54,1
3759,56.12,21.86,28.98,1
3760,56.13,32.77,11.73,1
3761,56.14,14.38,-19.02,1
3762,56.16,-7.65,-7.29,0
3763,56.17,-6.78,38.52,0
3764,56.18,7.89,36.12,0
3765,56.2,6.75,-8.21,0
3766,56.21,-2.93,-23.45,0
3767,56.22,9.61,-1.49,0
3768,56.24,26.3,2.73,0
3769,56.25,14.62,-52.27,0
3770,56.26,2.34,-122.34,0
3771,56.28,19.68,-149.3,0
3772,56.29,38.52,-162.1,0
3773,56.3,27.49,-183.74,0
3774,56.32,-5.87,-182.13,0
3775,56.33,-30.01,-162.45,0
3776,56.35,-23.17,-146.55,0
3777,56.36,-4.41,-118.8,0
3778,56.37,-3.15,-70.12,0
3779,56.38,-7.68,-13.44,0
3780,56.4,2.23,39.4,0
3781,56.41,8.43,78.24,0
3782,56.43,-6.46,97.88,0
3783,56.44,-25.37,105.9,0
3784,56.45,-28.01,110.82,0
3785,56.47,-14.86,111.91,0
3786,56.48,-1.65,109.67,0
3787,56.49,-1.97,115.89,0
3788,56.51,-13.27,131.89,0
3789,56.52,-23.68,131.1,0
3790,56.53,-24.09,104.73,0
3791,56.54,-15.02,83.54,0
3792,56.56,-7.38,73.32,1
3793,56.57,-9.13,55.54,1
3794,56.59,-13.11,42.4,1
3795,56.6,-10.92,43.11,1
3796,56.61,-2.72,34.08,1
3797,56.63,11.59,13.7,1
3798,56.64,22.93,11.51,1
3799,56.65,14.23,26.7,1
3800,56.67,-4.67,26.37,1
3801,56.68,-9.42,10.94,1
3802,56.69,-3.12,11.21,1
3803,56.71,-1.55,26.83,1
3804,56.72,-2.4,34.34,1
3805,56.73,2.69,31.15,1
3806,56.74,7.68,21.92,1
3807,56.76,8.81,1.97,1
3808,56.77,9.62,-17.84,1
3809,56.78,5.25,-15.48,1
3810,56.8,0.14,2.9,1
3811,56.81,7.87,13.43,1
3812,56.82,19.1,10.72,1
3813,56.84,18.74,0.04,1
3814,56.85,11.01,-11.84,1
3815,56.86,2.03,-15.01,1
3816,56.88,-9.53,-12.05,1
3817,56.89,-19.31,-14.62,1
3818,56.9,-16.59,-19.22,1
3819,56.92,-3.93,-16.8,1
3820,56.93,5.97,-14.14,1
3821,56.94,13.12,-21.09,1
3822,56.96,19.75,-31.88,1
3823,56.97,14.48,-31.2,1
3824,56.99,-1.24,-20.47,1
3825,57.0,-4.45,-15.53,1
3826,57.01,12.07,-18.26,1
3827,57.03,24.41,-18.5,1
3828,57.04,12.8,-14.4,1
3829,57.05,-8.98,-15.25,1
3830,57.06,-14.55,-22.42,1
3831,57.08,-3.29,-20.52,1
3832,57.09,3.63,-10.03,1
3833,57.11,-1.43,-11.42,1
3834,57.12,-5.88,-25.24,1
3835,57.13,-1.76,-30.79,1
3836,57.15,2.25,-21.52,1
3837,57.16,-4.09,-12.06,1
3838,57.17,-14.29,-13.88,1
3839,57.19,-14.91,-18.81,1
3840,57.2,-5.35,-15.56,1
3841,57.21,3.2,-12.79,1
3842,57.22,5.33,-19.8,1
3843,57.24,2.1,-25.48,1
3844,57.25,-8.69,-23.65,1
3845,57.27,-20.1,-21.66,1
3846,57.28,-16.12,-14.93,1
3847,57.29,0.76,-0.03,1
3848,57.31,11.15,3.61,1
3849,57.32,7.55,-12.74,1
3850,57.33,0.26,-28.49,1
3851,57.35,-1.2,-27.57,1
3852,57.36,0.69,-18.05,1
3853,57.37,-1.86,-13.49,1
3854,57.38,-9.76,-9.36,1
3855,57.4,-12.77,2.64,1
3856,57.41,-2.55,8.01,1
3857,57.42,12.99,-4.73,1
3858,57.44,15.85,-15.66,1
3859,57.45,6.27,-10.55,1
3860,57.46,6.73,-3.35,1
3861,57.48,14.69,-0.15,1
3862,57.49,4.58,2.23,1
3863,57.5,-11.61,-2.46,1
3864,57.52,-7.66,-8.43,1
3865,57.53,2.34,-4.5,1
3866,57.54,1.52,0.07,1
3867,57.56,3.39,-1.21,1
3868,57.57,13.19,1.53,1
3869,57.58,12.49,10.26,1
3870,57.6,-3.41,9.99,1
3871,57.61,-16.34,-6.54,1
3872,57.625,-12.75,-22.63,1
3873,57.64,2.56,-27.32,1
3874,57.65,12.58,-22.14,1
3875,57.67,11.46,-4.47,1
3876,57.68,9.33,12.23,1
3877,57.69,1.81,10.21,1
3878,57.71,-17.68,2.99,1
3879,57.72,-25.0,6.62,1
3880,57.73,-9.65,12.96,1
3881,57.75,1.5,15.0,1
3882,57.76,0.68,13.96,1
3883,57.77,4.53,5.48,1
3884,57.79,9.08,-5.96,1
3885,57.8,-0.19,-3.47,1
3886,57.81,-8.58,7.85,1
3887,57.83,11.18,9.9,1
3888,57.84,37.97,6.02,1
3889,57.85,27.03,4.48,1
3890,57.87,-6.16,5.77,1
3891,57.88,-14.75,11.78,1
3892,57.89,-2.37,16.2,1
3893,57.9,1.58,13.23,1
3894,57.92,-2.48,11.1,1
3895,57.93,-5.62,12.74,1
3896,57.95,-10.6,6.72,1
3897,57.96,-9.22,-6.79,1
3898,57.97,5.48,-7.88,1
3899,57.99,15.88,7.58,1
3900,58.0,8.84,15.43,1
3901,58.01,0.68,6.32,1
3902,58.02,6.43,0.36,1
3903,58.04,11.8,6.46,1
3904,58.05,1.34,13.91,1
3905,58.06,-13.25,16.05,1
3906,58.08,-21.12,9.74,1
3907,58.09,-22.83,-2.55,1
3908,58.1,-10.64,-6.32,1
3909,58.12,7.83,3.08,1
3910,58.13,11.33,11.66,1
3911,58.14,2.77,11.99,1
3912,58.16,-4.03,10.93,0
3913,58.17,-2.86,8.39,0
3914,58.18,2.31,-0.83,0
3915,58.2,-2.5,-7.73,0
3916,58.21,-13.6,-5.16,0
3917,58.22,-7.74,-0.68,0
3918,58.24,9.37,3.31,0
3919,58.25,12.02,8.86,0
3920,58.26,11.89,12.42,0
3921,58.28,26.89,18.25,0
3922,58.29,29.83,31.6,0
3923,58.31,8.09,37.51,0
3924,58.32,-5.99,11.84,0
3925,58.33,-1.63,-50.82,0
3926,58.35,3.65,-117.0,0
3927,58.36,2.68,-145.02,0
3928,58.37,-3.45,-141.72,0
3929,58.38,-12.21,-133.71,0
3930,58.4,-15.61,-119.54,0
3931,58.41,-10.6,-103.89,0
3932,58.43,-13.5,-107.25,0
3933,58.44,-29.98,-115.53,0
3934,58.45,-28.59,-102.08,0
3935,58.47,0.55,-79.79,0
3936,58.48,25.18,-63.84,0
3937,58.49,34.1,-41.13,0
3938,58.51,39.16,-9.23,0
3939,58.52,37.87,18.53,0
3940,58.53,27.4,43.61,0
3941,58.54,18.73,70.8,0
3942,58.56,18.32,90.87,1
3943,58.57,19.43,100.16,1
3944,58.59,15.6,109.84,1
3945,58.6,8.23,128.65,1
3946,58.61,1.94,149.91,1
3947,58.63,-2.81,159.29,1
3948,58.64,-9.22,157.24,1
3949,58.65,-14.8,158.41,1
3950,58.66,-17.55,162.82,1
3951,58.68,-26.06,159.45,1
3952,58.69,-39.14,149.27,1
3953,58.7,-39.35,138.59,1
3954,58.72,-25.35,130.12,1
3955,58.73,-15.9,123.88,1
3956,58.74,-24.46,112.08,1
3957,58.76,-44.56,90.99,1
3958,58.77,-48.52,72.05,1
3959,58.78,-25.94,63.79,1
3960,58.8,-5.66,57.92,1
3961,58.81,-2.24,45.65,1
3962,58.82,-1.92,34.33,1
3963,58.84,-4.67,29.16,1
3964,58.85,-11.96,22.14,1
3965,58.86,-15.06,12.81,1
3966,58.88,-22.1,6.69,1
3967,58.89,-34.05,2.74,1
3968,58.9,-26.75,1.23,1
3969,58.92,-2.51,-0.65,1
3970,58.93,9.43,-10.63,1
3971,58.95,5.71,-21.62,1
3972,58.96,-1.13,-21.98,1
3973,58.97,-8.45,-20.94,1
3974,58.99,-9.3,-29.17,1
3975,59.0,-2.93,-39.25,1
3976,59.01,-0.28,-45.61,1
3977,59.03,5.92,-52.46,1
3978,59.04,22.57,-57.02,1
3979,59.05,27.99,-53.98,1
3980,59.06,8.69,-49.54,1
3981,59.08,-15.79,-48.07,1
3982,59.09,-17.05,-45.51,1
3983,59.11,6.76,-42.67,1
3984,59.12,23.74,-44.44,1
3985,59.13,15.96,-50.37,1
3986,59.15,4.78,-54.8,1
3987,59.16,6.98,-55.83,1
3988,59.17,7.49,-58.78,1
3989,59.19,-1.38,-59.85,1
3990,59.2,-3.1,-51.04,1
3991,59.21,5.11,-46.66,1
3992,59.22,12.81,-54.69,1
3993,59.24,21.41,-56.47,1
3994,59.25,29.03,-51.67,1
3995,59.27,27.67,-57.28,1
3996,59.28,20.71,-62.2,1
3997,59.29,15.48,-48.78,1
3998,59.3,9.33,-32.78,1
3999,59.32,0.98,-33.34,1
4000,59.33,1.45,-42.72,1
4001,59.34,10.39,-47.39,1
4002,59.36,9.95,-44.99,1
4003,59.37,-1.74,-39.18,1
4004,59.38,-7.16,-36.02,1
4005,59.4,-0.97,-37.38,1
4006,59.41,4.06,-39.16,1
4007,59.42,3.75,-36.36,1
4008,59.44,6.0,-29.73,1
4009,59.45,11.42,-27.65,1
4010,59.46,10.34,-31.89,1
4011,59.48,-0.09,-32.4,1
4012,59.49,-7.65,-27.1,1
4013,59.5,-2.33,-22.67,1
4014,59.52,6.89,-21.74,1
4015,59.53,8.31,-23.38,1
4016,59.54,8.49,-21.77,1
4017,59.56,13.84,-15.27,1
4018,59.57,11.56,-11.6,1
4019,59.59,-1.3,-11.2,1
4020,59.6,-4.51,-11.76,1
4021,59.61,8.27,-14.86,1
4022,59.63,14.38,-12.77,1
4023,59.64,2.79,-2.9,1
4024,59.65,-2.43,3.06,1
4025,59.67,7.34,0.47,1
4026,59.68,5.6,-6.84,1
4027,59.69,-3.59,-11.71,1
4028,59.71,8.59,-8.37,1
4029,59.72,23.64,-4.96,1
4030,59.73,7.44,-5.65,1
4031,59.75,-17.97,-1.59,1
4032,59.76,-13.25,3.91,1
4033,59.77,5.91,4.28,1
4034,59.79,3.9,7.77,1
4035,59.8,-8.54,15.03,1
4036,59.81,-6.1,15.31,1
4037,59.83,1.69,11.58,1
4038,59.84,-2.1,12.73,1
4039,59.85,-5.59,14.64,1
4040,59.87,3.16,13.46,1
4041,59.88,5.46,11.46,1
4042,59.89,-8.05,7.43,1
4043,59.9,-13.16,7.38,1
4044,59.92,-0.78,18.57,1
4045,59.93,10.32,24.58,1
4046,59.94,10.53,9.89,1
4047,59.96,3.87,-1.93,1
4048,59.97,-1.56,14.38,1
4049,59.98,-2.32,38.5,1
4050,60.0,-6.71,38.38,1
4051,60.01,-10.08,20.17,1
4052,60.02,0.11,13.5,1
4053,60.04,6.92,23.12,1
4054,60.05,-3.49,24.02,1
4055,60.06,-13.16,7.23,1
4056,60.08,-17.24,-2.75,1
4057,60.09,-26.0,11.59,1
4058,60.1,-24.58,29.59,1
4059,60.12,-1.31,27.73,1
4060,60.13,19.41,20.07,1
4061,60.14,18.2,25.37,1
4062,60.16,6.28,32.83,2
4063,60.17,-2.41,31.0,2
4064,60.18,-5.23,26.24,2
4065,60.2,-9.56,22.7,2
4066,60.21,-17.76,27.11,2
4067,60.22,-12.68,70.46,2
4068,60.24,1.92,160.79,2
4069,60.25,-0.71,249.76,2
4070,60.27,-0.89,301.38,2
4071,60.28,24.07,312.64,2
4072,60.29,27.37,275.54,2
4073,60.31,-12.13,207.16,2
4074,60.32,-40.14,148.77,2
4075,60.33,-34.2,101.09,2
4076,60.35,-27.25,36.85,2
4077,60.36,-31.88,-39.73,2
4078,60.37,-33.43,-103.83,2
4079,60.38,-28.16,-146.53,2
4080,60.4,-22.5,-179.04,2
4081,60.41,-16.51,-209.18,2
4082,60.43,-11.17,-220.84,2
4083,60.44,-10.54,-205.3,2
4084,60.45,-7.16,-184.65,2
4085,60.47,6.76,-164.56,2
4086,60.48,19.17,-137.42,2
4087,60.49,18.17,-125.54,2
4088,60.51,12.89,-133.51,2
4089,60.52,13.43,-127.23,2
4090,60.53,18.97,-105.74,2
4091,60.54,26.05,-93.09,2
4092,60.56,26.68,-84.19,1
4093,60.57,20.56,-68.9,1
4094,60.58,22.62,-55.57,1
4095,60.6,29.77,-55.34,1
4096,60.61,23.36,-63.93,1
4097,60.62,19.42,-64.92,1
4098,60.64,33.7,-59.98,1
4099,60.65,35.2,-58.97,1
4100,60.66,13.02,-50.17,1
4101,60.68,1.57,-28.18,1
4102,60.69,9.34,-9.06,1
4103,60.7,12.32,-1.73,1
4104,60.72,6.76,-6.55,1
4105,60.73,4.03,-17.57,1
4106,60.74,1.58,-17.87,1
4107,60.76,-2.87,-4.44,1
4108,60.77,-4.17,7.55,1
4109,60.78,-3.96,11.16,1
4110,60.8,-7.56,12.74,1
4111,60.81,-12.04,18.87,1
4112,60.82,-10.45,27.59,1
4113,60.84,-7.05,29.37,1
4114,60.85,-8.81,25.16,1
4115,60.86,-9.02,26.49,1
4116,60.88,-6.03,29.1,1
4117,60.89,-7.27,24.04,1
4118,60.9,-9.53,23.92,1
4119,60.92,-9.54,41.0,1
4120,60.93,-9.97,58.65,1
4121,60.95,-7.47,55.81,1
4122,60.96,-2.81,37.71,1
4123,60.97,-0.76,26.72,1
4124,60.99,3.01,38.02,1
4125,61.0,9.07,58.51,1
4126,61.01,8.39,61.04,1
4127,61.03,2.63,47.86,1
4128,61.04,-0.74,40.97,1
4129,61.05,-6.04,42.4,1
4130,61.06,-14.92,46.88,1
4131,61.08,-16.44,51.82,1
4132,61.09,-6.94,46.05,1
4133,61.11,2.47,34.66,1
4134,61.12,1.27,37.53,1
4135,61.13,-7.27,45.52,1
4136,61.15,-11.32,41.97,1
4137,61.16,-8.88,42.33,1
4138,61.17,-7.69,51.14,1
4139,61.19,-7.08,47.46,1
4140,61.2,-3.57,35.82,1
4141,61.21,-1.22,33.65,1
4142,61.22,-1.23,34.46,1
4143,61.24,-0.02,31.69,1
4144,61.25,2.28,32.88,1
4145,61.26,0.54,38.49,1
4146,61.28,-6.77,37.29,1
4147,61.29,-12.07,26.74,1
4148,61.3,-8.96,17.66,1
4149,61.32,-2.68,16.05,1
4150,61.33,-4.69,16.84,1
4151,61.34,-12.44,18.57,1
4152,61.36,-10.83,22.03,1
4153,61.37,-3.88,20.28,1
4154,61.38,-5.05,13.61,1
4155,61.4,-4.16,11.78,1
4156,61.41,9.2,11.54,1
4157,61.42,19.1,8.46,1
4158,61.44,11.01,15.57,1
4159,61.45,-2.35,28.38,1
4160,61.46,-1.7,17.62,1
4161,61.48,5.34,-7.81,1
4162,61.49,0.78,-9.92,1
4163,61.5,-4.59,6.22,1
4164,61.52,3.04,10.22,1
4165,61.53,7.3,0.3,1
4166,61.54,0.85,-7.16,1
4167,61.56,-3.81,-4.0,1
4168,61.57,-7.56,5.19,1
4169,61.59,-13.07,9.09,1
4170,61.6,-10.76,0.54,1
4171,61.61,-1.43,-11.84,1
4172,61.63,7.17,-12.44,1
4173,61.64,12.49,-6.32,1
4174,61.65,12.32,-8.03,1
4175,61.67,8.76,-14.26,1
4176,61.68,3.32,-15.03,1
4177,61.69,-5.83,-11.6,1
4178,61.71,-9.5,-11.65,1
4179,61.72,-0.27,-17.63,1
4180,61.73,8.81,-23.13,1
4181,61.75,5.53,-22.4,1
4182,61.76,-2.65,-21.87,1
4183,61.77,-1.52,-29.1,1
4184,61.79,8.05,-31.18,1
4185,61.8,14.28,-16.64,1
4186,61.81,13.79,-7.05,1
4187,61.83,8.3,-17.46,1
4188,61.84,-1.83,-21.77,1
4189,61.85,-8.95,-11.1,1
4190,61.86,-7.37,-13.05,1
4191,61.88,-7.57,-26.04,1
4192,61.89,-13.91,-23.62,1
4193,61.9,-11.07,-11.61,1
4194,61.92,2.93,-12.04,1
4195,61.93,7.56,-20.77,1
4196,61.94,-1.72,-19.33,1
4197,61.96,-3.65,-11.03,1
4198,61.97,9.8,-14.4,1
4199,61.98,15.81,-23.51,1
4200,62.0,1.12,-21.33,1
4201,62.01,-9.25,-18.94,1
4202,62.02,4.65,-24.43,1
4203,62.04,16.72,-25.36,1
4204,62.05,1.75,-22.66,1
4205,62.06,-13.35,-20.19,1
4206,62.08,-5.4,-13.85,1
4207,62.09,-2.22,-13.78,1
4208,62.1,-14.57,-21.75,1
4209,62.12,-11.6,-17.87,1
4210,62.13,9.6,-5.86,1
4211,62.14,21.7,-10.62,1
4212,62.16,18.89,-28.3,2
4213,62.17,15.13,-28.08,2
4214,62.19,15.75,-0.6,2
4215,62.2,14.62,41.19,2
4216,62.21,7.39,106.16,2
4217,62.22,-4.42,161.77,2
4218,62.24,-9.39,124.17,2
4219,62.25,6.0,14.23,2
4220,62.27,21.46,-43.56,2
4221,62.28,7.64,54.72,2
4222,62.29,-2.41,239.39,2
4223,62.31,23.49,240.58,2
4224,62.32,39.05,37.99,2
4225,62.33,10.38,-57.13,2
4226,62.35,-31.62,-15.74,2
4227,62.36,-45.65,-35.5,2
4228,62.37,-10.26,-47.52,2
4229,62.38,48.24,25.62,2
4230,62.4,64.4,4.91,2
4231,62.41,12.89,-137.76,2
4232,62.43,-57.22,-151.13,2
4233,62.44,-73.89,-12.83,2
4234,62.45,-21.27,-11.03,2
4235,62.47,29.47,-154.91,2
4236,62.48,20.47,-150.0,2
4237,62.49,-6.6,-17.99,2
4238,62.5,-4.58,-41.67,2
4239,62.52,0.32,-174.61,2
4240,62.53,-16.42,-165.57,2
4241,62.54,-28.44,-73.8,2
4242,62.56,-23.97,-88.06,1
4243,62.57,-29.85,-120.2,1
4244,62.58,-47.0,-39.45,1
4245,62.6,-39.54,42.72,1
4246,62.61,-1.46,0.41,1
4247,62.62,20.99,-76.05,1
4248,62.64,3.61,-49.6,1
4249,62.65,-12.92,16.69,1
4250,62.66,-0.64,6.86,1
4251,62.68,7.73,-26.71,1
4252,62.69,-8.35,-5.21,1
4253,62.7,-10.15,23.86,1
4254,62.72,21.59,-14.47,1
4255,62.73,40.83,-85.97,1
4256,62.74,20.52,-88.1,1
4257,62.76,-9.72,-36.08,1
4258,62.77,-16.09,-45.77,1
4259,62.78,12.64,-109.5,1
4260,62.8,47.63,-118.17,1
4261,62.81,48.34,-49.9,1
4262,62.825,33.28,15.68,1
4263,62.84,28.84,16.87,1
4264,62.85,12.12,-4.44,1
4265,62.87,-15.17,9.63,1
4266,62.88,-10.61,43.5,1
4267,62.89,17.37,60.29,1
4268,62.9,11.77,51.61,1
4269,62.92,-18.52,37.15,1
4270,62.93,-20.81,30.84,1
4271,62.95,-8.75,28.92,1
4272,62.96,-14.18,28.6,1
4273,62.97,-22.12,32.12,1
4274,62.99,-16.2,49.0,1
4275,63.0,-1.36,64.98,1
4276,63.01,12.81,55.93,1
4277,63.03,20.02,41.76,1
4278,63.04,15.66,40.08,1
4279,63.05,-5.6,45.03,1
4280,63.06,-29.1,39.81,1
4281,63.08,-29.76,-9.69,1
4282,63.09,-12.79,-44.44,1
4283,63.11,-2.32,8.65,1
4284,63.12,-0.29,54.15,1
4285,63.13,7.34,33.88,1
4286,63.14,9.47,26.83,1
4287,63.16,-6.27,35.23,1
4288,63.17,-13.38,40.81,1
4289,63.18,-4.79,65.34,1
4290,63.2,-4.17,69.34,1
4291,63.21,-5.91,43.67,1
4292,63.22,-5.08,18.74,1
4293,63.24,-10.83,-7.31,1
4294,63.25,-9.26,-0.04,1
4295,63.26,7.22,43.59,1
4296,63.28,18.08,49.4,1
4297,63.29,8.89,22.77,1
4298,63.3,-7.38,22.44,1
4299,63.32,-11.44,27.65,1
4300,63.33,-3.46,15.39,1
4301,63.34,6.1,-3.35,1
4302,63.36,12.79,-30.24,1
4303,63.37,14.22,-20.19,1
4304,63.38,10.77,41.53,1
4305,63.4,13.41,47.94,1
4306,63.41,21.2,-18.33,1
4307,63.42,10.42,-34.61,1
4308,63.44,-12.01,14.58,1
4309,63.45,-6.04,36.99,1
4310,63.46,17.19,10.71,1
4311,63.48,11.43,7.68,1
4312,63.49,-9.55,71.45,1
4313,63.51,-6.37,110.24,1
4314,63.52,2.63,49.45,1
4315,63.53,-10.4,-8.96,1
4316,63.54,-22.38,18.19,1
4317,63.56,-10.68,36.43,1
4318,63.57,7.27,-7.69,1
4319,63.59,12.76,-6.2,1
4320,63.6,8.02,55.38,1
4321,63.61,2.2,61.2,1
4322,63.63,-2.27,14.64,1
4323,63.64,-10.53,-6.49,1
4324,63.65,-15.83,6.47,1
4325,63.67,-10.18,28.16,1
4326,63.68,-5.82,33.1,1
4327,63.69,-7.56,22.64,1
4328,63.71,-2.41,18.99,1
4329,63.72,7.02,20.3,1
4330,63.73,8.43,17.37,1
4331,63.75,5.0,15.66,1
4332,63.76,1.55,29.64,1
4333,63.77,-5.31,55.44,1
4334,63.78,-8.26,56.11,1
4335,63.8,-1.25,26.97,1
4336,63.81,2.47,-2.64,1
4337,63.82,-5.33,-17.33,1
4338,63.84,-15.06,-18.35,1
4339,63.85,-18.85,-31.5,1
4340,63.86,-7.74,-47.01,1
4341,63.88,18.95,-25.36,1
4342,63.89,29.98,-7.52,1
4343,63.9,12.86,-34.46,1
4344,63.92,1.88,-42.77,1
4345,63.93,5.97,-4.09,1
4346,63.94,7.47,11.85,1
4347,63.96,9.71,-2.91,1
4348,63.97,9.5,-5.4,1
4349,63.98,-2.6,-17.36,1
4350,64.0,-10.2,-41.56,1
4351,64.01,-5.49,-24.22,1
4352,64.02,0.87,34.2,1
4353,64.04,6.47,55.45,1
4354,64.05,10.7,-4.93,1
4355,64.06,12.1,-77.97,1
4356,64.08,3.02,-80.99,1
4357,64.09,-21.65,-55.7,1
4358,64.1,-37.41,-63.29,1
4359,64.12,-23.21,-57.03,1
4360,64.13,0.99,-18.26,1
4361,64.14,11.9,-0.47,1
4362,64.16,10.75,9.22,0
4363,64.17,0.54,37.21,0
4364,64.18,-10.21,43.07,0
4365,64.2,-0.43,8.11,0
4366,64.21,13.25,-30.17,0
4367,64.22,-4.71,-33.48,0
4368,64.24,-23.36,-7.34,0
4369,64.25,-1.36,5.2,0
4370,64.26,27.46,-8.72,0
4371,64.28,28.23,-21.82,0
4372,64.29,18.99,-30.3,0
4373,64.3,13.77,-39.55,0
4374,64.32,8.32,-18.05,0
4375,64.33,3.74,43.77,0
4376,64.34,-0.58,88.36,0
4377,64.36,-7.26,79.61,0
4378,64.37,-10.17,55.97,0
4379,64.38,-5.59,44.89,0
4380,64.4,-7.15,25.35,0
4381,64.41,-22.8,-13.69,0
4382,64.42,-36.06,-62.92,0
4383,64.44,-32.69,-124.09,0
4384,64.45,-18.18,-198.83,0
4385,64.46,-4.43,-260.34,0
4386,64.48,2.6,-276.97,0
4387,64.49,6.0,-251.86,0
4388,64.5,15.16,-212.83,0
4389,64.52,24.99,-173.12,0
4390,64.53,20.34,-128.11,0
4391,64.54,14.33,-74.57,0
4392,64.56,26.04,-19.1,1
4393,64.57,34.57,24.88,1
4394,64.58,17.05,51.45,1
4395,64.6,-6.02,68.6,1
4396,64.61,-5.62,82.74,1
4397,64.62,5.9,91.96,1
4398,64.64,1.15,92.1,1
4399,64.65,-10.92,83.12,1
4400,64.66,-8.67,75.04,1
4401,64.68,2.0,80.19,1
4402,64.69,3.21,95.16,1
4403,64.7,-3.84,96.68,1
4404,64.72,-3.29,71.76,1
4405,64.73,3.81,42.56,1
4406,64.74,-1.94,34.38,1
4407,64.76,-17.63,44.4,1
4408,64.77,-19.66,57.18,1
4409,64.79,-6.93,66.12,1
4410,64.8,2.92,70.8,1
4411,64.81,1.3,65.26,1
4412,64.82,-9.36,51.68,1
4413,64.84,-19.09,46.33,1
4414,64.85,-18.63,48.73,1
4415,64.86,-11.01,45.93,1
4416,64.88,-4.91,40.6,1
4417,64.89,-0.71,37.84,1
4418,64.9,4.33,38.55,1
4419,64.92,5.59,48.39,1
4420,64.93,1.61,57.64,1
4421,64.94,-3.44,50.43,1
4422,64.96,-8.2,38.83,1
4423,64.97,-8.52,35.03,1
4424,64.98,0.24,28.34,1
4425,65.0,8.39,19.74,1
4426,65.01,4.06,20.97,1
4427,65.02,-5.92,25.28,1
4428,65.04,-11.4,20.64,1
4429,65.05,-10.45,12.66,1
4430,65.06,0.62,7.78,1
4431,65.08,14.73,-0.48,1
4432,65.09,15.59,-13.79,1
4433,65.1,5.81,-21.75,1
4434,65.12,-0.56,-15.42,1
4435,65.13,-1.86,-4.87,1
4436,65.14,-2.39,-10.03,1
4437,65.16,0.47,-22.77,1
4438,65.17,6.9,-20.91,1
4439,65.18,7.18,-9.29,1
4440,65.2,-0.5,-6.21,1
4441,65.21,-1.37,-16.36,1
4442,65.22,6.97,-27.18,1
4443,65.24,6.04,-22.37,1
4444,65.25,-3.06,-7.86,1
4445,65.26,0.37,-6.68,1
4446,65.28,11.14,-19.08,1
4447,65.29,8.06,-27.89,1
4448,65.3,-5.69,-34.73,1
4449,65.32,-11.7,-41.28,1
4450,65.33,-5.57,-30.52,1
4451,65.34,-1.3,-2.87,1
4452,65.36,-7.03,9.15,1
4453,65.37,-9.02,-7.78,1
4454,65.38,2.82,-24.24,1
4455,65.4,14.17,-22.22,1
4456,65.41,9.93,-19.41,1
4457,65.43,-0.86,-23.45,1
4458,65.44,0.57,-18.77,1
4459,65.45,9.82,-5.29,1
4460,65.46,4.49,-5.06,1
4461,65.48,-12.47,-20.54,1
4462,65.49,-15.2,-28.4,1
4463,65.5,-2.81,-22.17,1
4464,65.52,1.01,-17.3,1
4465,65.53,-6.16,-19.52,1
4466,65.54,-5.48,-19.5,1
4467,65.56,4.03,-11.83,1
4468,65.57,6.25,-8.02,1
4469,65.58,-1.05,-16.17,1
4470,65.6,-3.28,-19.94,1
4471,65.61,5.28,-14.86,1
4472,65.62,13.17,-21.84,1
4473,65.64,13.6,-34.91,1
4474,65.65,10.31,-28.97,1
4475,65.66,4.97,-14.54,1
4476,65.68,-0.9,-13.78,1
4477,65.69,-6.39,-16.15,1
4478,65.7,-7.68,-8.72,1
4479,65.72,2.71,-5.38,1
4480,65.73,14.5,-12.55,1
4481,65.74,7.21,-12.63,1
4482,65.76,-11.87,-1.39,1
4483,65.77,-18.97,2.59,1
4484,65.78,-10.94,-7.91,1
4485,65.8,0.49,-16.82,1
4486,65.81,10.32,-8.4,1
4487,65.82,16.76,2.32,1
4488,65.84,13.91,-5.98,1
4489,65.85,2.91,-16.31,1
4490,65.86,-2.75,-9.59,1
4491,65.88,2.38,-1.53,1
4492,65.89,4.38,-6.35,1
4493,65.9,-2.06,-17.82,1
4494,65.92,-0.08,-23.54,1
4495,65.93,9.16,-11.87,1
4496,65.94,5.12,5.54,1
4497,65.96,-4.24,4.75,1
4498,65.97,-1.58,-1.87,1
4499,65.98,0.81,5.14,1
4500,66.0,-7.88,8.49,1
4501,66.01,-12.76,0.59,1
4502,66.02,-3.05,-2.94,1
4503,66.04,11.92,0.05,1
4504,66.05,19.38,7.66,1
4505,66.06,14.43,19.43,1
4506,66.08,1.22,24.66,1
4507,66.09,-12.02,21.12,1
4508,66.11,-18.39,17.28,1
4509,66.12,-16.26,10.13,1
4510,66.13,-10.63,0.56,1
4511,66.14,0.78,3.44,1
4512,66.16,16.25,13.37,0
4513,66.17,18.02,12.25,0
4514,66.18,7.4,6.55,0
4515,66.2,1.22,2.65,0
4516,66.21,-1.84,-7.98,0
4517,66.22,-5.55,-21.83,0
4518,66.24,-8.89,-51.9,0
4519,66.25,-11.86,-115.69,0
4520,66.26,-7.13,-166.83,0
4521,66.28,5.57,-165.67,0
4522,66.29,22.49,-149.62,0
4523,66.3,45.45,-145.65,0
4524,66.32,66.06,-136.9,0
4525,66.33,72.61,-119.47,0
4526,66.34,70.36,-102.76,0
4527,66.36,60.53,-84.35,0
4528,66.37,31.77,-51.96,0
4529,66.38,-1.82,-5.31,0
4530,66.4,-19.53,30.06,0
4531,66.41,-34.73,42.31,0
4532,66.42,-50.99,58.91,0
4533,66.44,-48.14,94.52,0
4534,66.45,-35.19,125.93,0
4535,66.46,-36.8,141.21,0
4536,66.48,-49.86,153.29,0
4537,66.49,-61.4,170.67,0
4538,66.5,-63.51,185.38,0
4539,66.52,-49.44,184.58,0
4540,66.53,-32.41,174.58,0
4541,66.54,-31.22,173.15,0
4542,66.56,-36.73,175.84,1
4543,66.57,-33.28,168.44,1
4544,66.58,-23.57,151.83,1
4545,66.6,-17.43,130.85,1
4546,66.61,-21.73,113.37,1
4547,66.62,-26.99,105.41,1
4548,66.64,-14.91,98.09,1
4549,66.65,6.7,84.61,1
4550,66.66,17.7,71.62,1
4551,66.68,16.7,60.93,1
4552,66.69,7.08,49.12,1
4553,66.7,-1.82,42.61,1
4554,66.72,4.87,45.74,1
4555,66.73,17.41,44.17,1
4556,66.75,15.97,27.47,1
4557,66.76,3.61,11.9,1
4558,66.77,-2.22,10.29,1
4559,66.79,2.13,10.83,1
4560,66.8,5.47,3.62,1
4561,66.81,9.82,-7.11,1
4562,66.82,21.36,-16.59,1
4563,66.84,26.89,-24.56,1
4564,66.85,18.83,-30.54,1
4565,66.86,7.08,-30.76,1
4566,66.88,0.79,-29.17,1
4567,66.89,2.02,-35.51,1
4568,66.9,6.57,-43.38,1
4569,66.92,9.32,-39.03,1
4570,66.93,8.1,-30.24,1
4571,66.94,5.46,-31.41,1
4572,66.96,12.26,-37.94,1
4573,66.97,25.21,-42.81,1
4574,66.98,19.72,-49.51,1
4575,67.0,-4.45,-55.45,1
4576,67.01,-16.12,-55.0,1
4577,67.02,-7.09,-51.25,1
4578,67.04,-1.26,-50.04,1
4579,67.05,-0.3,-52.48,1
4580,67.06,11.76,-57.17,1
4581,67.08,20.92,-61.28,1
4582,67.09,11.09,-58.44,1
4583,67.1,2.47,-50.22,1
4584,67.12,11.33,-52.77,1
4585,67.13,17.43,-65.17,1
4586,67.14,3.32,-62.73,1
4587,67.16,-7.78,-49.37,1
4588,67.17,8.51,-51.57,1
4589,67.18,26.57,-61.11,1
4590,67.2,17.21,-57.25,1
4591,67.21,1.52,-47.62,1
4592,67.22,4.55,-45.47,1
4593,67.24,10.42,-47.37,1
4594,67.25,-0.78,-42.62,1
4595,67.26,-10.32,-29.87,1
4596,67.28,3.57,-25.5,1
4597,67.29,16.28,-39.13,1
4598,67.3,7.13,-46.05,1
4599,67.32,-1.77,-27.89,1
4600,67.33,0.22,-13.22,1
4601,67.34,-0.42,-26.45,1
4602,67.36,-5.09,-44.0,1
4603,67.37,-6.17,-40.96,1
4604,67.38,-0.96,-28.39,1
4605,67.4,3.46,-24.43,1
4606,67.41,-1.32,-28.36,1
4607,67.43,-6.91,-32.23,1
4608,67.44,0.36,-35.25,1
4609,67.45,13.88,-35.98,1
4610,67.46,14.52,-29.25,1
4611,67.48,2.8,-19.19,1
4612,67.49,-2.37,-10.72,1
4613,67.5,-0.16,-0.21,1
4614,67.52,-2.33,4.03,1
4615,67.53,-5.81,-5.74,1
4616,67.54,-4.61,-8.82,1
4617,67.56,1.6,3.81,1
4618,67.57,4.74,6.45,1
4619,67.58,-1.04,-7.04,1
4620,67.6,-1.52,-12.43,1
4621,67.61,5.12,-2.34,1
4622,67.62,-0.24,5.22,1
4623,67.64,-12.5,-0.56,1
4624,67.65,-12.08,-7.53,1
4625,67.66,-7.74,-5.07,1
4626,67.68,-12.62,0.17,1
4627,67.69,-11.44,5.63,1
4628,67.7,-1.07,16.14,1
4629,67.72,-0.11,22.66,1
4630,67.73,-0.89,15.23,1
4631,67.74,7.97,7.6,1
4632,67.76,7.58,10.47,1
4633,67.77,-10.84,12.86,1
4634,67.78,-25.3,11.96,1
4635,67.8,-16.02,13.03,1
4636,67.81,6.59,10.49,1
4637,67.82,19.59,7.61,1
4638,67.84,17.0,17.07,1
4639,67.85,4.34,32.64,1
4640,67.86,-12.94,33.74,1
4641,67.88,-23.64,18.5,1
4642,67.89,-13.41,9.45,1
4643,67.9,6.47,18.53,1
4644,67.92,4.79,29.18,1
4645,67.93,-12.43,26.44,1
4646,67.94,-12.49,20.81,1
4647,67.96,-0.89,24.57,1
4648,67.97,3.6,30.76,1
4649,67.98,13.76,32.2,1
4650,68.0,27.77,28.74,1
4651,68.01,18.68,18.64,1
4652,68.02,-3.98,6.16,1
4653,68.04,-9.0,-2.57,1
4654,68.05,-0.35,-7.65,1
4655,68.06,0.79,-5.13,1
4656,68.08,-7.86,2.99,1
4657,68.09,-15.74,9.44,1
4658,68.11,-17.78,19.11,1
4659,68.12,-11.41,32.05,1
4660,68.13,1.22,35.29,1
4661,68.14,6.33,22.48,1
4662,68.16,0.87,5.48,2
4663,68.17,-0.48,0.88,2
4664,68.18,3.67,6.34,2
4665,68.2,1.82,13.71,2
4666,68.21,-4.08,25.55,2
4667,68.22,-7.35,31.48,2
4668,68.24,-6.22,18.14,2
4669,68.25,-0.96,4.18,2
4670,68.26,2.89,8.55,2
4671,68.28,10.05,21.64,2
4672,68.29,25.85,52.89,2
4673,68.3,27.12,135.43,2
4674,68.32,4.8,251.95,2
4675,68.33,-7.33,340.15,2
4676,68.34,-0.59,368.52,2
4677,68.36,-3.21,339.69,2
4678,68.37,-10.99,263.27,2
4679,68.38,-1.51,168.3,2
4680,68.4,8.43,91.38,2
4681,68.41,-5.61,32.92,2
4682,68.42,-28.08,-35.03,2
4683,68.44,-31.4,-112.4,2
4684,68.45,-20.82,-170.04,2
4685,68.46,-21.0,-200.53,2
4686,68.48,-31.89,-220.07,2
4687,68.49,-36.16,-232.32,2
4688,68.5,-35.81,-229.31,2
4689,68.52,-33.34,-215.47,2
4690,68.53,-16.89,-199.96,2
4691,68.54,3.9,-181.1,2
4692,68.56,6.7,-164.75,1
4693,68.57,2.47,-161.38,1
4694,68.58,11.86,-156.07,1
4695,68.6,20.13,-136.21,1
4696,68.61,9.93,-120.29,1
4697,68.62,4.39,-113.43,1
4698,68.64,22.05,-95.73,1
4699,68.65,35.47,-66.35,1
4700,68.66,22.33,-46.44,1
4701,68.68,8.29,-52.75,1
4702,68.69,13.49,-72.4,1
4703,68.7,14.47,-72.51,1
4704,68.72,2.87,-51.54,1
4705,68.73,2.8,-38.23,1
4706,68.75,14.21,-35.85,1
4707,68.76,19.39,-26.36,1
4708,68.77,17.91,-8.61,1
4709,68.79,14.13,4.42,1
4710,68.8,9.6,6.17,1
4711,68.81,10.79,3.11,1
4712,68.82,17.45,5.38,1
4713,68.84,18.41,8.89,1
4714,68.85,9.52,11.52,1
4715,68.86,-3.67,19.81,1
4716,68.88,-12.39,26.27,1
4717,68.89,-8.57,24.68,1
4718,68.9,3.09,29.0,1
4719,68.92,9.19,43.48,1
4720,68.93,7.25,52.37,1
4721,68.94,4.08,45.84,1
4722,68.96,4.43,31.09,1
4723,68.97,6.26,23.26,1
4724,68.98,5.38,30.11,1
4725,69.0,8.1,41.0,1
4726,69.01,15.94,42.37,1
4727,69.02,11.7,40.65,1
4728,69.04,-4.02,43.81,1
4729,69.05,-9.1,45.15,1
4730,69.06,-3.59,44.65,1
4731,69.08,-1.82,52.49,1
4732,69.09,1.47,65.25,1
4733,69.1,10.19,67.32,1
4734,69.12,7.65,56.11,1
4735,69.13,-12.17,41.27,1
4736,69.14,-29.36,30.16,1
4737,69.16,-23.94,34.09,1
4738,69.17,-2.74,54.37,1
4739,69.18,7.01,62.12,1
4740,69.2,-1.93,40.84,1
4741,69.21,-8.66,22.26,1
4742,69.22,-4.66,31.47,1
4743,69.24,-1.59,45.96,1
4744,69.25,-2.06,46.58,1
4745,69.26,-2.34,46.29,1
4746,69.28,-3.93,46.33,1
4747,69.29,-3.52,33.26,1
4748,69.3,-0.25,20.16,1
4749,69.32,-1.41,26.27,1
4750,69.33,-6.04,34.27,1
4751,69.34,-9.02,20.96,1
4752,69.36,-10.39,5.53,1
4753,69.37,-4.7,12.47,1
4754,69.38,7.01,25.64,1
4755,69.4,6.54,26.24,1
4756,69.41,-10.81,24.99,1
4757,69.43,-23.1,30.77,1
4758,69.44,-17.17,31.6,1
4759,69.45,-7.1,19.34,1
4760,69.46,-4.77,3.96,1
4761,69.48,-2.5,-5.83,1
4762,69.49,2.64,-6.03,1
4763,69.5,2.49,3.98,1
4764,69.52,-1.53,14.89,1
4765,69.53,-2.3,19.41,1
4766,69.54,3.18,19.95,1
4767,69.56,9.85,12.87,1
4768,69.57,3.28,-4.86,1
4769,69.58,-13.23,-17.04,1
4770,69.6,-16.2,-10.34,1
4771,69.61,-2.87,1.48,1
4772,69.62,7.06,2.43,1
4773,69.64,5.76,-1.77,1
4774,69.65,2.21,-6.72,1
4775,69.66,1.46,-16.37,1
4776,69.68,-1.21,-18.64,1
4777,69.69,-6.83,-2.75,1
4778,69.7,-9.2,10.57,1
4779,69.72,-0.93,-1.82,1
4780,69.73,15.01,-23.52,1
4781,69.74,19.93,-23.94,1
4782,69.76,4.6,-5.97,1
4783,69.77,-12.61,6.78,1
4784,69.78,-12.96,-0.51,1
4785,69.8,-3.09,-25.07,1
4786,69.81,2.61,-40.42,1
4787,69.82,1.28,-25.11,1
4788,69.84,-5.72,1.4,1
4789,69.85,-15.19,8.25,1
4790,69.86,-15.02,-4.06,1
4791,69.88,1.41,-17.08,1
4792,69.89,16.43,-22.3,1
4793,69.9,9.96,-18.91,1
4794,69.92,-5.07,-6.84,1
4795,69.93,-5.77,3.4,1
4796,69.94,0.98,-5.3,1
4797,69.96,0.64,-26.42,1
4798,69.97,-3.97,-34.49,1
4799,69.98,-9.53,-26.98,1
4800,70.0,-12.55,-19.97,1
4801,70.01,-1.71,-20.66,1
4802,70.02,16.14,-26.02,1
4803,70.04,16.52,-28.42,1
4804,70.05,-1.25,-24.0,1
4805,70.06,-13.9,-15.53,1
4806,70.08,-12.83,-9.66,1
4807,70.09,-8.33,-17.49,1
4808,70.11,-5.17,-32.41,1
4809,70.12,3.02,-30.27,1
4810,70.13,12.81,-16.63,1
4811,70.14,8.73,-15.48,1
4812,70.16,-2.39,-9.09,2
4813,70.17,3.28,30.31,2
4814,70.18,20.73,68.45,2
4815,70.2,22.71,85.23,2
4816,70.21,6.49,153.76,2
4817,70.22,-0.68,260.55,2
4818,70.24,15.0,213.54,2
4819,70.25,32.85,-14.02,2
4820,70.26,30.42,-135.93,2
4821,70.28,18.63,-48.61,2
4822,70.29,14.42,11.87,2
4823,70.3,3.69,-43.96,2
4824,70.32,-14.35,-92.32,2
4825,70.33,-20.93,-97.97,2
4826,70.34,-29.05,-93.28,2
4827,70.36,-31.0,-59.38,2
4828,70.37,-1.02,-11.98,2
4829,70.38,19.98,-19.98,2
4830,70.4,3.76,-64.83,2
4831,70.41,-9.21,-75.34,2
4832,70.42,-1.52,-49.08,2
4833,70.44,4.13,-38.33,2
4834,70.45,-6.28,-66.03,2
4835,70.46,-19.79,-79.73,2
4836,70.48,-15.42,-44.5,2
4837,70.49,-3.29,-21.58,2
4838,70.5,-8.89,-44.95,2
4839,70.52,-20.18,-58.16,2
4840,70.53,-15.09,-53.48,2
