,Timestamp,Data1,Data2,Label
0,6.0,13.94,10.04,1
1,6.01,14.17,-2.87,1
2,6.03,4.52,-12.7,1
3,6.04,-10.02,-11.7,1
4,6.05,-9.86,-3.74,1
5,6.07,4.39,5.07,1
6,6.08,9.96,7.17,1
7,6.09,-2.37,2.5,1
8,6.11,-16.87,0.5,1
9,6.12,-14.85,5.47,1
10,6.13,1.55,13.22,1
11,6.15,12.82,15.64,2
12,6.16,12.15,3.87,2
13,6.17,9.46,-14.86,2
14,6.19,6.14,-21.12,2
15,6.2,-6.52,-16.27,2
16,6.21,-21.41,-35.76,2
17,6.23,-17.8,-87.41,2
18,6.24,9.85,-66.22,2
19,6.25,50.13,43.43,2
20,6.265,80.88,67.83,2
21,6.28,75.04,57.4,2
22,6.29,8.31,169.84,2
23,6.31,-77.7,301.07,2
24,6.32,-46.6,381.28,2
25,6.33,79.86,415.27,2
26,6.35,101.23,360.12,2
27,6.36,45.36,280.68,2
28,6.37,44.01,245.73,2
29,6.39,16.02,220.01,2
30,6.4,-32.57,177.25,2
31,6.41,5.73,136.07,2
32,6.43,30.03,106.78,2
33,6.44,-31.78,79.05,2
34,6.45,-47.6,48.56,2
35,6.47,8.07,21.04,2
36,6.48,-4.78,-1.88,2
37,6.49,-93.26,-23.51,2
38,6.51,-126.71,-44.56,2
39,6.52,-104.73,-63.44,2
40,6.53,-104.15,-80.32,2
41,6.55,-78.15,-95.86,2
42,6.56,-11.74,-109.72,1
43,6.57,-5.95,-122.1,1
44,6.59,-47.92,-133.34,1
45,6.6,-42.86,-143.11,1
46,6.61,-8.07,-151.29,1
47,6.63,-5.58,-158.49,1
48,6.64,-12.88,-165.13,1
49,6.65,7.6,-170.18,1
50,6.67,25.56,-172.88,1
51,6.68,34.02,-175.22,1
52,6.69,29.98,-178.09,1
53,6.71,-30.68,-180.0,1
54,6.72,-83.9,-180.15,1
55,6.73,-38.37,-179.19,1
56,6.75,13.68,-177.93,1
57,6.76,-8.55,-176.47,1
58,6.77,-3.52,-174.59,1
59,6.79,54.08,-171.92,1
60,6.8,57.26,-168.07,1
61,6.81,4.74,-163.39,1
62,6.82,-21.84,-158.57,1
63,6.84,-1.25,-154.08,1
64,6.85,37.74,-149.69,1
65,6.86,50.07,-144.48,1
66,6.88,7.77,-138.24,1
67,6.89,-30.24,-132.1,1
68,6.91,2.5,-126.3,1
69,6.92,50.29,-120.27,1
70,6.93,49.12,-113.71,1
71,6.95,37.74,-106.51,1
72,6.96,48.53,-98.86,1
73,6.97,40.52,-91.53,1
74,6.99,3.0,-84.86,1
75,7.0,-15.6,-78.14,1
76,7.01,-13.22,-71.0,1
77,7.03,-5.2,-63.7,1
78,7.04,31.08,-56.74,1
79,7.05,64.97,-50.11,1
80,7.07,50.9,-43.31,1
81,7.08,28.86,-36.21,1
82,7.09,30.38,-29.32,1
83,7.11,29.71,-22.72,1
84,7.12,27.23,-16.1,1
85,7.13,34.65,-9.21,1
86,7.15,27.26,-2.68,1
87,7.16,13.7,2.76,1
88,7.17,28.57,7.65,1
89,7.19,27.88,13.43,1
90,7.2,-25.61,19.77,1
91,7.21,-61.58,25.34,1
92,7.23,-35.78,30.49,1
93,7.24,-10.31,18.54,1
94,7.25,-21.56,-24.32,1
95,7.27,-7.37,-33.04,1
96,7.28,33.27,30.75,1
97,7.29,9.9,27.25,1
98,7.31,-42.34,-132.5,1
99,7.32,-25.67,-264.56,1
100,7.33,7.67,-201.55,1
101,7.35,-0.85,-67.12,1
102,7.36,13.82,-20.75,1
103,7.37,52.89,-61.96,1
104,7.39,32.63,-163.33,1
105,7.4,-20.46,-203.73,1
106,7.41,-24.08,-76.4,1
107,7.43,5.44,14.77,1
108,7.44,10.1,-83.7,1
109,7.45,-0.33,-157.79,1
110,7.47,14.44,-39.21,1
111,7.48,29.69,125.03,1
112,7.49,6.09,138.3,1
113,7.51,-20.5,82.7,1
114,7.52,-13.99,180.74,1
115,7.53,7.61,333.6,1
116,7.55,26.17,278.83,1
117,7.56,16.26,113.41,1
118,7.57,-23.45,86.45,1
119,7.59,-35.12,189.84,1
120,7.6,-10.59,253.09,1
121,7.61,-2.2,201.82,1
122,7.63,-13.51,147.51,1
123,7.64,-17.18,147.86,1
124,7.65,-15.61,118.17,1
125,7.67,-7.15,113.8,1
126,7.68,14.3,237.95,1
127,7.69,17.09,365.8,1
128,7.71,-9.58,359.49,1
129,7.72,-16.75,279.65,1
130,7.73,11.18,221.58,1
131,7.75,19.71,210.35,1
132,7.76,-11.7,208.06,1
133,7.77,-24.0,178.52,1
134,7.79,2.79,162.44,1
135,7.8,2.56,162.02,1
136,7.81,-39.3,157.01,1
137,7.83,-50.8,204.16,1
138,7.84,-20.43,257.66,1
139,7.85,-13.5,160.73,1
140,7.87,-36.47,-30.21,1
141,7.88,-33.49,-24.98,1
142,7.89,10.21,232.66,1
143,7.91,40.33,407.71,1
144,7.92,8.18,274.59,1
145,7.93,-39.73,25.57,1
146,7.95,-24.56,-33.04,1
147,7.96,16.52,87.1,1
148,7.97,0.19,118.79,1
149,7.99,-33.69,63.73,1
150,8.0,-20.53,110.03,1
151,8.01,-7.3,162.05,1
152,8.03,-25.15,107.56,1
153,8.04,-18.57,70.83,1
154,8.05,23.72,85.84,1
155,8.07,47.54,86.09,1
156,8.08,31.21,114.15,1
157,8.09,-5.3,138.97,1
158,8.1,-26.24,62.21,1
159,8.12,-23.28,-20.7,1
160,8.13,-31.71,-26.97,1
161,8.15,-39.71,-35.67,0
162,8.16,-15.29,-35.55,0
163,8.17,2.62,21.61,0
164,8.19,-4.96,45.02,0
165,8.2,-1.67,-37.53,0
166,8.21,11.74,-138.29,0
167,8.23,12.12,-145.22,0
168,8.24,8.06,-96.03,0
169,8.25,13.87,-105.61,0
170,8.27,19.78,-190.28,0
171,8.28,12.32,-271.05,0
172,8.29,2.07,-287.19,0
173,8.31,5.07,-250.14,0
174,8.32,13.4,-199.42,0
175,8.33,10.21,-142.21,0
176,8.35,-3.56,-67.14,0
177,8.36,-13.22,-3.4,0
178,8.37,-13.77,-14.93,0
179,8.39,-9.35,-102.49,0
180,8.4,-3.61,-174.77,0
181,8.41,-5.47,-166.5,0
182,8.43,-12.71,-106.98,0
183,8.44,-11.2,-53.12,0
184,8.45,-3.53,-33.67,0
185,8.47,2.35,-35.47,0
186,8.48,8.7,-21.13,0
187,8.49,12.65,16.4,0
188,8.51,7.43,44.14,0
189,8.52,-0.4,39.31,0
190,8.53,1.05,10.97,0
191,8.55,4.13,-12.95,1
192,8.56,-2.91,-9.48,1
193,8.57,-10.55,13.14,1
194,8.59,-6.71,26.53,1
195,8.6,3.49,23.27,1
196,8.61,8.55,22.94,1
197,8.63,7.29,32.1,1
198,8.64,6.62,33.13,1
199,8.65,6.49,23.27,1
200,8.67,4.13,15.92,1
201,8.68,4.96,10.74,1
202,8.69,12.51,1.97,1
203,8.71,16.93,-7.84,1
204,8.72,6.84,-8.13,1
205,8.73,-13.67,3.37,1
206,8.75,-28.46,4.12,1
207,8.76,-23.82,-15.29,1
208,8.77,-3.27,-31.12,1
209,8.78,11.84,-31.77,1
210,8.8,5.87,-31.71,1
211,8.81,-9.31,-34.79,1
212,8.82,-11.75,-34.68,1
213,8.84,0.47,-36.74,1
214,8.85,9.47,-42.66,1
215,8.864999999999998,3.49,-47.15,1
216,8.88,-6.38,-53.26,1
217,8.89,-3.68,-61.56,1
218,8.91,7.28,-70.79,1
219,8.92,11.77,-82.35,1
220,8.93,9.54,-85.71,1
221,8.95,8.3,-75.89,1
222,8.96,4.37,-71.05,1
223,8.97,-6.11,-75.65,1
224,8.99,-10.01,-70.47,1
225,9.0,0.04,-55.36,1
226,9.01,11.41,-50.85,1
227,9.03,16.69,-61.62,1
228,9.04,18.97,-74.29,1
229,9.05,15.9,-80.09,1
230,9.07,6.95,-80.28,1
231,9.08,0.05,-76.94,1
232,9.09,-2.24,-72.01,1
233,9.11,-2.64,-70.99,1
234,9.12,-0.27,-72.0,1
235,9.13,1.5,-65.96,1
236,9.15,-4.07,-58.77,1
237,9.16,-9.03,-60.57,1
238,9.17,-1.04,-66.15,1
239,9.19,11.83,-71.49,1
240,9.2,15.79,-74.19,1
241,9.21,13.35,-64.23,1
242,9.23,12.4,-47.11,1
243,9.24,10.11,-43.3,1
244,9.25,2.78,-52.71,1
245,9.27,-2.14,-56.34,1
246,9.28,-0.13,-45.76,1
247,9.29,2.04,-31.29,1
248,9.31,0.05,-28.35,1
249,9.32,-2.63,-35.91,1
250,9.33,-3.13,-37.32,1
251,9.35,-3.96,-25.5,1
252,9.36,-4.31,-13.04,1
253,9.37,1.79,-15.71,1
254,9.39,13.02,-27.92,1
255,9.4,18.03,-30.4,1
256,9.41,10.7,-23.49,1
257,9.43,-0.7,-19.8,1
258,9.44,-4.51,-17.01,1
259,9.45,-0.68,-8.67,1
260,9.47,4.08,-4.07,1
261,9.48,10.67,-10.09,1
262,9.49,16.19,-10.48,1
263,9.51,9.32,3.26,1
264,9.52,-5.26,12.5,1
265,9.53,-9.78,8.32,1
266,9.55,-2.87,7.28,1
267,9.56,0.58,14.22,1
268,9.57,-1.2,14.72,1
269,9.59,1.11,10.48,1
270,9.6,0.13,12.03,1
271,9.61,-7.7,13.21,1
272,9.63,-4.62,9.75,1
273,9.64,8.78,12.55,1
274,9.65,13.19,26.89,1
275,9.67,8.14,37.61,1
276,9.68,6.06,31.16,1
277,9.69,7.98,20.92,1
278,9.71,6.01,24.9,1
279,9.72,-0.87,36.63,1
280,9.73,-4.89,38.6,1
281,9.75,-5.62,29.27,1
282,9.76,-8.04,24.17,1
283,9.77,-10.65,29.72,1
284,9.79,-14.16,32.91,1
285,9.8,-18.51,32.65,1
286,9.81,-14.16,41.83,1
287,9.83,0.02,49.85,1
288,9.84,13.17,40.74,1
289,9.85,19.24,28.12,1
290,9.87,13.34,27.23,1
291,9.88,-7.6,36.89,1
292,9.89,-27.25,50.26,1
293,9.91,-22.31,54.49,1
294,9.92,0.45,46.31,1
295,9.93,12.07,42.23,1
296,9.95,4.69,50.46,1
297,9.96,-6.46,58.51,1
298,9.97,-10.21,54.77,1
299,9.99,-7.51,40.1,1
300,10.0,-5.44,29.37,1
301,10.01,-6.17,32.52,1
302,10.02,-7.34,33.67,1
303,10.04,-11.22,25.98,1
304,10.05,-13.82,30.09,1
305,10.06,-2.42,42.61,1
306,10.08,17.6,35.77,1
307,10.09,23.11,15.19,1
308,10.1,8.59,9.18,1
309,10.12,-6.34,20.4,1
310,10.13,-6.3,34.19,1
311,10.15,2.44,42.42,0
312,10.16,7.84,44.3,0
313,10.17,5.81,44.84,0
314,10.19,-2.6,45.14,0
315,10.2,-10.63,40.02,0
316,10.21,-9.51,32.25,0
317,10.23,-1.17,26.93,0
318,10.24,5.05,21.42,0
319,10.25,8.01,12.32,0
320,10.27,15.83,-1.77,0
321,10.28,28.82,-27.42,0
322,10.29,27.89,-70.79,0
323,10.31,4.29,-115.16,0
324,10.32,-13.76,-133.75,0
325,10.33,-5.94,-128.84,0
326,10.35,8.2,-124.96,0
327,10.36,7.31,-137.89,0
328,10.37,-0.44,-152.52,0
329,10.39,3.32,-136.42,0
330,10.4,7.47,-92.09,0
331,10.41,-6.16,-53.64,0
332,10.43,-25.75,-32.02,0
333,10.44,-38.58,-6.0,0
334,10.45,-38.04,35.78,0
335,10.47,-20.61,76.43,0
336,10.48,-4.68,106.31,0
337,10.49,-4.03,137.73,0
338,10.51,-6.72,175.24,0
339,10.52,-5.65,202.69,0
340,10.53,-9.76,202.84,0
341,10.55,-15.3,182.07,1
342,10.56,-2.76,164.01,1
343,10.57,21.9,157.84,1
344,10.59,23.39,156.13,1
345,10.6,-4.14,148.29,1
346,10.61,-24.82,128.29,1
347,10.63,-17.89,106.19,1
348,10.64,0.74,93.9,1
349,10.65,10.6,84.79,1
350,10.67,4.84,71.31,1
351,10.68,-4.42,59.74,1
352,10.69,-1.26,55.49,1
353,10.71,1.43,51.71,1
354,10.72,-5.9,39.8,1
355,10.73,-4.21,19.99,1
356,10.75,6.56,-2.27,1
357,10.76,5.73,-14.78,1
358,10.77,-5.49,-7.93,1
359,10.78,-10.91,1.53,1
360,10.8,-9.03,-3.03,1
361,10.81,-6.56,-11.19,1
362,10.83,-1.75,-18.01,1
363,10.84,2.92,-30.33,1
364,10.85,8.06,-43.33,1
365,10.87,19.84,-48.94,1
366,10.88,19.36,-46.22,1
367,10.89,-0.87,-40.26,1
368,10.91,-9.72,-42.92,1
369,10.92,0.34,-54.01,1
370,10.93,4.09,-54.37,1
371,10.95,-4.22,-46.02,1
372,10.96,-1.86,-47.92,1
373,10.97,16.62,-54.91,1
374,10.99,18.62,-58.0,1
375,11.0,-5.99,-57.12,1
376,11.01,-20.07,-50.57,1
377,11.03,-9.36,-49.63,1
378,11.04,0.29,-58.36,1
379,11.05,0.2,-57.76,1
380,11.07,4.36,-45.63,1
381,11.08,10.02,-41.83,1
382,11.09,4.61,-48.31,1
383,11.11,-6.55,-52.11,1
384,11.12,-8.05,-55.61,1
385,11.13,0.2,-66.53,1
386,11.15,1.83,-74.46,1
387,11.16,-10.76,-67.32,1
388,11.17,-19.06,-51.93,1
389,11.19,-4.39,-40.54,1
390,11.2,20.43,-37.84,1
391,11.21,26.18,-41.27,1
392,11.23,8.14,-41.52,1
393,11.24,-9.4,-34.29,1
394,11.25,-9.53,-30.17,1
395,11.27,-1.64,-36.96,1
396,11.28,1.44,-42.29,1
397,11.29,4.99,-34.28,1
398,11.31,10.92,-26.76,1
399,11.32,9.69,-32.97,1
400,11.33,7.78,-38.16,1
401,11.35,11.17,-30.94,1
402,11.36,12.47,-27.2,1
403,11.37,19.4,-34.42,1
404,11.39,30.45,-33.72,1
405,11.4,19.52,-18.36,1
406,11.41,-7.27,-8.27,1
407,11.43,-18.79,-12.61,1
408,11.44,-11.04,-17.66,1
409,11.45,7.17,-18.3,1
410,11.47,28.04,-20.22,1
411,11.48,29.83,-20.31,1
412,11.49,7.18,-17.47,1
413,11.51,-7.85,-18.92,1
414,11.52,3.43,-20.94,1
415,11.53,19.96,-14.78,1
416,11.55,19.88,-7.81,1
417,11.56,5.87,-10.28,1
418,11.57,-5.6,-14.11,1
419,11.59,-10.81,-11.78,1
420,11.6,-18.55,-7.53,1
421,11.61,-18.93,0.52,1
422,11.63,-0.2,10.86,1
423,11.64,16.14,8.91,1
424,11.65,10.2,-3.97,1
425,11.67,-7.36,-8.44,1
426,11.68,-17.36,0.37,1
427,11.69,-9.28,13.64,1
428,11.71,3.89,26.07,1
429,11.72,5.11,29.38,1
430,11.73,8.03,19.59,1
431,11.75,12.1,12.88,1
432,11.76,-9.5,20.13,1
433,11.77,-39.68,28.39,1
434,11.79,-35.23,26.56,1
435,11.8,2.82,20.01,1
436,11.81,36.11,13.94,1
437,11.83,31.69,9.33,1
438,11.84,0.54,10.75,1
439,11.85,-15.78,17.32,1
440,11.87,-9.01,20.89,1
441,11.88,0.16,18.66,1
442,11.89,4.68,14.38,1
443,11.91,2.23,11.63,1
444,11.92,-7.08,11.31,1
445,11.93,-12.09,12.55,1
446,11.94,-9.06,14.13,1
447,11.96,-6.16,15.67,1
448,11.97,-7.53,18.55,1
449,11.98,-13.56,19.77,1
450,12.0,-21.76,17.48,1
451,12.01,-22.79,17.47,1
452,12.02,-13.13,18.39,1
453,12.04,-3.34,15.72,1
454,12.05,-0.74,14.92,1
455,12.06,-4.82,15.84,1
456,12.08,-10.01,11.19,1
457,12.09,-5.47,3.47,1
458,12.105,1.13,3.2,1
459,12.12,-4.81,12.75,1
460,12.13,-12.54,23.52,1
461,12.15,-9.09,30.4,2
462,12.16,-1.71,28.79,2
463,12.17,-0.43,22.46,2
464,12.19,-3.71,47.73,2
465,12.2,-1.89,128.37,2
466,12.21,1.94,234.64,2
467,12.23,-8.22,324.06,2
468,12.24,-22.31,353.81,2
469,12.25,-16.65,284.95,2
470,12.27,1.81,148.25,2
471,12.28,14.07,35.92,2
472,12.29,17.06,-18.09,2
473,12.31,13.65,-59.2,2
474,12.32,6.75,-115.58,2
475,12.33,-1.29,-167.76,2
476,12.35,-8.46,-188.8,2
477,12.36,-6.73,-177.99,2
478,12.37,6.17,-159.58,2
479,12.39,14.22,-147.54,2
480,12.4,4.79,-133.62,2
481,12.41,-10.14,-113.42,2
482,12.43,-11.44,-97.94,2
483,12.44,1.28,-91.32,2
484,12.45,14.59,-82.63,2
485,12.47,18.64,-72.0,2
486,12.48,12.61,-70.21,2
487,12.49,5.48,-78.52,2
488,12.51,10.41,-85.33,2
489,12.52,19.33,-77.24,2
490,12.53,8.53,-59.65,2
491,12.55,-12.89,-46.88,1
492,12.56,-12.88,-36.83,1
493,12.57,3.25,-26.88,1
494,12.59,9.78,-24.79,1
495,12.6,8.84,-24.19,1
496,12.61,11.58,-16.47,1
497,12.63,16.96,-15.06,1
498,12.64,18.05,-24.8,1
499,12.65,4.89,-26.45,1
500,12.67,-14.63,-11.05,1
501,12.68,-17.21,5.56,1
502,12.69,-7.9,8.31,1
503,12.71,-7.95,3.91,1
504,12.72,-9.74,4.57,1
505,12.73,2.23,5.97,1
506,12.75,15.52,1.06,1
507,12.76,11.22,-2.69,1
508,12.77,-1.41,4.55,1
509,12.79,-2.5,19.61,1
510,12.8,0.58,30.73,1
511,12.81,-5.12,31.41,1
512,12.83,-5.36,27.59,1
513,12.84,7.39,28.85,1
514,12.85,12.83,33.11,1
515,12.87,8.08,30.78,1
516,12.88,5.36,26.73,1
517,12.89,-2.53,31.42,1
518,12.91,-9.39,35.61,1
519,12.92,-0.78,33.7,1
520,12.93,6.7,37.98,1
521,12.95,1.87,44.48,1
522,12.96,-2.75,41.77,1
523,12.97,1.66,36.64,1
524,12.99,9.79,33.67,1
525,13.0,2.6,32.21,1
526,13.01,-15.18,34.75,1
527,13.03,-12.84,35.99,1
528,13.04,1.9,28.31,1
529,13.05,7.31,17.04,1
530,13.07,15.35,13.09,1
531,13.08,21.74,17.9,1
532,13.09,8.64,26.95,1
533,13.11,-3.75,31.77,1
534,13.12,0.43,24.21,1
535,13.13,4.76,15.47,1
536,13.15,-1.8,19.26,1
537,13.16,-14.59,26.57,1
538,13.17,-20.46,29.44,1
539,13.19,-15.25,30.1,1
540,13.2,-12.73,23.12,1
541,13.21,-14.64,8.99,1
542,13.23,-8.77,3.31,1
543,13.24,-0.08,8.28,1
544,13.25,-1.27,14.77,1
545,13.27,-6.21,20.35,1
546,13.28,-5.51,14.92,1
547,13.29,-1.61,-2.69,1
548,13.31,1.93,-7.23,1
549,13.32,3.19,8.59,1
550,13.33,3.48,23.21,1
551,13.35,8.69,19.11,1
552,13.36,15.84,-2.14,1
553,13.37,10.38,-17.55,1
554,13.39,-4.34,-12.01,1
555,13.4,-9.42,-1.8,1
556,13.41,-6.38,-0.48,1
557,13.43,-7.24,0.67,1
558,13.44,-7.81,3.84,1
559,13.45,-1.66,-1.63,1
560,13.47,2.05,-11.08,1
561,13.48,-3.85,-7.5,1
562,13.49,-12.7,3.35,1
563,13.51,-14.03,0.2,1
564,13.52,-3.42,-13.41,1
565,13.53,8.59,-14.34,1
566,13.55,8.72,-3.03,1
567,13.56,2.3,0.25,1
568,13.57,-1.34,-0.69,1
569,13.59,-2.46,8.83,1
570,13.6,0.09,10.95,1
571,13.61,4.59,-5.45,1
572,13.63,5.66,-14.07,1
573,13.64,5.47,-4.73,1
574,13.65,2.28,2.21,1
575,13.67,-4.17,1.58,1
576,13.68,-0.59,6.24,1
577,13.69,8.47,14.01,1
578,13.71,2.33,8.08,1
579,13.72,-10.44,-9.4,1
580,13.73,-8.17,-13.44,1
581,13.75,1.04,1.57,1
582,13.76,-0.13,7.78,1
583,13.77,-2.19,-2.26,1
584,13.79,6.02,-5.59,1
585,13.8,13.04,-4.24,1
586,13.81,13.07,-9.78,1
587,13.83,11.52,-5.22,1
588,13.84,7.58,7.17,1
589,13.85,1.01,-0.69,1
590,13.86,-3.03,-19.32,1
591,13.88,2.07,-23.66,1
592,13.89,13.0,-21.72,1
593,13.9,14.21,-22.35,1
594,13.92,2.38,-18.83,1
595,13.93,-9.62,-12.65,1
596,13.94,-10.89,-7.45,1
597,13.96,-0.73,-3.28,1
598,13.97,9.21,-1.91,1
599,13.98,9.05,-2.72,1
600,14.0,4.67,-4.34,1
601,14.01,0.53,-5.58,1
602,14.02,-9.86,-6.13,1
603,14.04,-22.59,-9.04,1
604,14.05,-21.96,-15.85,1
605,14.07,-10.78,-22.78,1
606,14.08,-5.21,-21.07,1
607,14.09,-0.6,-16.34,1
608,14.11,13.2,-23.83,1
609,14.12,19.03,-28.65,1
610,14.13,2.61,-8.23,1
611,14.15,-15.81,17.52,2
612,14.16,-13.22,15.5,2
613,14.17,8.8,2.53,2
614,14.19,26.79,18.03,2
615,14.2,16.72,62.17,2
616,14.21,-1.39,106.99,2
617,14.23,7.81,94.28,2
618,14.24,24.18,1.02,2
619,14.25,7.66,-100.17,2
620,14.27,-30.14,-135.95,2
621,14.28,-48.17,-4.94,2
622,14.29,-43.1,274.65,2
623,14.31,-32.17,394.2,2
624,14.32,-6.29,277.03,2
625,14.33,25.92,225.08,2
626,14.35,25.45,270.45,2
627,14.36,-1.49,214.84,2
628,14.37,-8.7,101.29,2
629,14.39,13.95,17.9,2
630,14.4,22.92,-80.2,2
631,14.41,-4.18,-136.8,2
632,14.43,-21.16,-75.44,2
633,14.44,-3.58,-2.88,2
634,14.45,11.31,-38.86,2
635,14.47,0.35,-129.26,2
636,14.48,-17.65,-175.28,2
637,14.49,-17.63,-191.78,2
638,14.51,-8.24,-193.78,2
639,14.52,-8.15,-164.19,2
640,14.53,-7.42,-124.69,2
641,14.55,0.89,-65.94,1
642,14.56,13.38,-10.4,1
643,14.57,20.3,-29.8,1
644,14.59,2.2,-118.95,1
645,14.6,-11.69,-182.98,1
646,14.61,18.11,-115.79,1
647,14.63,42.28,21.11,1
648,14.64,20.73,62.49,1
649,14.65,8.96,2.62,1
650,14.67,21.0,-84.52,1
651,14.68,7.08,-151.61,1
652,14.69,-12.34,-108.45,1
653,14.71,-4.33,11.42,1
654,14.72,5.98,0.54,1
655,14.73,10.68,-142.17,1
656,14.75,9.37,-175.38,1
657,14.76,-2.01,-80.14,1
658,14.77,1.25,-60.87,1
659,14.79,7.37,-77.61,1
660,14.8,-13.84,15.33,1
661,14.81,-26.93,71.17,1
662,14.83,-8.98,-17.49,1
663,14.84,5.63,-80.95,1
664,14.85,7.58,-45.8,1
665,14.87,7.41,-30.11,1
666,14.88,0.03,-84.01,1
667,14.89,-10.05,-129.73,1
668,14.91,-13.43,-101.98,1
669,14.92,-9.78,-25.94,1
670,14.93,0.46,12.76,1
671,14.95,17.08,-37.91,1
672,14.96,27.41,-124.52,1
673,14.97,8.56,-155.04,1
674,14.99,-26.54,-108.36,1
675,15.0,-33.55,-31.38,1
676,15.01,-12.35,14.85,1
677,15.03,-4.99,-21.11,1
678,15.04,-14.73,-110.27,1
679,15.05,-7.49,-114.98,1
680,15.07,13.24,9.63,1
681,15.08,21.24,80.08,1
682,15.09,21.18,-5.08,1
683,15.11,20.39,-47.27,1
684,15.12,6.25,38.88,1
685,15.13,-10.84,61.39,1
686,15.15,2.8,0.57,1
687,15.16,31.17,-1.42,1
688,15.17,21.27,31.31,1
689,15.19,-15.29,45.35,1
690,15.2,-15.34,69.39,1
691,15.21,20.55,70.28,1
692,15.23,26.12,37.59,1
693,15.24,-7.88,51.4,1
694,15.25,-30.91,88.29,1
695,15.27,-28.31,71.49,1
696,15.28,-19.61,59.95,1
697,15.29,-16.49,87.25,1
698,15.31,-10.81,75.57,1
699,15.32,10.06,38.49,1
700,15.33,26.96,29.16,1
701,15.35,15.38,21.01,1
702,15.36,-2.2,23.48,1
703,15.37,-4.34,42.2,1
704,15.39,-6.47,33.28,1
705,15.4,-7.09,34.89,1
706,15.41,2.3,82.91,1
707,15.43,-4.73,99.6,1
708,15.44,-31.32,51.92,1
709,15.45,-30.39,21.79,1
710,15.47,0.64,59.27,1
711,15.48,10.15,94.63,1
712,15.49,4.69,61.13,1
713,15.51,24.21,42.85,1
714,15.52,37.96,105.7,1
715,15.53,7.9,132.41,1
716,15.55,-26.71,51.66,1
717,15.56,-28.15,-2.57,1
718,15.57,-15.0,55.07,1
719,15.59,-0.22,106.2,1
720,15.6,10.94,85.86,1
721,15.61,1.44,67.06,1
722,15.63,-14.53,51.93,1
723,15.64,-17.74,25.71,1
724,15.65,-19.37,35.66,1
725,15.67,-16.3,59.45,1
726,15.68,-0.33,35.56,1
727,15.69,9.03,-18.55,1
728,15.71,9.53,-26.89,1
729,15.72,16.84,35.39,1
730,15.73,17.01,92.64,1
731,15.75,7.91,58.91,1
732,15.76,14.5,-44.18,1
733,15.77,19.97,-65.14,1
734,15.78,-1.12,55.34,1
735,15.8,-21.8,141.15,1
736,15.81,-15.13,77.98,1
737,15.82,-2.63,-30.5,1
738,15.84,-10.83,-75.55,1
739,15.85,-16.09,-24.26,1
740,15.86,3.05,80.64,1
741,15.88,14.84,118.91,1
742,15.89,-0.31,64.71,1
743,15.9,-17.56,37.33,1
744,15.92,-18.9,74.26,1
745,15.93,-13.86,85.77,1
746,15.94,-13.42,44.06,1
747,15.96,-11.72,3.87,1
748,15.97,-2.43,-0.79,1
749,15.98,4.65,19.2,1
750,16.0,-2.97,27.88,1
751,16.01,-13.41,14.56,1
752,16.03,-10.26,6.31,1
753,16.04,-1.99,4.4,1
754,16.05,5.24,-3.68,1
755,16.07,14.2,-8.78,1
756,16.08,10.93,-15.06,1
757,16.09,-8.78,-8.9,1
758,16.11,-18.2,28.11,1
759,16.12,0.77,39.82,1
760,16.13,23.91,-18.56,1
761,16.15,19.77,-70.61,1
762,16.16,0.53,-30.7,0
763,16.17,-3.94,33.83,0
764,16.19,10.37,14.19,0
765,16.2,25.16,-40.15,0
766,16.21,21.79,-45.53,0
767,16.23,6.27,-46.36,0
768,16.24,1.9,-89.68,0
769,16.25,3.04,-136.79,0
770,16.27,-10.43,-166.9,0
771,16.28,-21.87,-199.09,0
772,16.29,-6.67,-213.65,0
773,16.31,19.98,-185.53,0
774,16.32,25.78,-143.22,0
775,16.33,7.98,-124.02,0
776,16.35,-3.54,-122.26,0
777,16.36,4.55,-103.39,0
778,16.37,10.64,-59.43,0
779,16.39,8.99,-18.74,0
780,16.4,14.19,5.57,0
781,16.41,17.92,19.32,0
782,16.42,9.5,17.8,0
783,16.44,3.99,6.92,0
784,16.45,8.38,3.02,0
785,16.46,7.78,7.2,0
786,16.48,-5.4,15.15,0
787,16.49,-17.61,19.76,0
788,16.5,-14.29,14.02,0
789,16.52,-1.52,3.51,0
790,16.53,3.83,-10.36,0
791,16.54,-0.58,-20.36,0
792,16.56,-4.66,-2.46,1
793,16.57,-7.12,32.87,1
794,16.58,-11.86,52.3,1
795,16.6,-12.46,55.7,1
796,16.61,-7.84,58.4,1
797,16.62,-7.1,68.52,1
798,16.64,-4.93,84.79,1
799,16.65,8.22,90.06,1
800,16.67,17.69,77.99,1
801,16.68,8.35,70.84,1
802,16.69,-5.16,78.21,1
803,16.71,-5.28,78.62,1
804,16.72,-1.89,63.15,1
805,16.73,-4.44,50.49,1
806,16.75,-4.81,55.85,1
807,16.76,-5.16,70.17,1
808,16.77,-13.36,70.33,1
809,16.79,-15.39,60.14,1
810,16.8,1.62,59.46,1
811,16.81,18.22,56.65,1
812,16.83,11.41,42.44,1
813,16.84,-4.22,35.1,1
814,16.85,-6.11,33.82,1
815,16.87,-5.96,23.31,1
816,16.88,-10.68,7.62,1
817,16.89,-1.45,-0.54,1
818,16.91,16.4,3.5,1
819,16.92,19.11,8.67,1
820,16.93,10.83,-1.22,1
821,16.95,9.04,-20.55,1
822,16.96,16.47,-30.18,1
823,16.97,21.8,-26.75,1
824,16.99,13.56,-19.62,1
825,17.0,-1.86,-17.03,1
826,17.01,-8.43,-25.06,1
827,17.03,-7.04,-33.21,1
828,17.04,-8.45,-25.04,1
829,17.05,-12.16,-17.98,1
830,17.06,-13.32,-33.47,1
831,17.08,-12.54,-47.98,1
832,17.09,-13.55,-35.79,1
833,17.1,-13.6,-16.5,1
834,17.12,-5.47,-16.97,1
835,17.13,5.89,-28.58,1
836,17.14,7.86,-32.1,1
837,17.16,0.45,-28.67,1
838,17.17,-7.4,-28.57,1
839,17.18,-9.05,-36.46,1
840,17.2,-3.11,-44.71,1
841,17.21,5.66,-36.92,1
842,17.22,11.18,-16.74,1
843,17.24,12.98,-14.23,1
844,17.25,13.98,-37.15,1
845,17.26,11.31,-52.08,1
846,17.28,4.47,-41.84,1
847,17.29,1.4,-31.84,1
848,17.3,0.9,-40.91,1
849,17.32,-3.54,-50.38,1
850,17.33,-7.27,-40.24,1
851,17.35,-2.9,-27.49,1
852,17.36,2.31,-33.58,1
853,17.37,-1.02,-44.72,1
854,17.39,-0.22,-40.93,1
855,17.4,13.6,-27.54,1
856,17.41,19.46,-21.4,1
857,17.43,6.45,-24.18,1
858,17.44,-3.51,-24.02,1
859,17.45,1.65,-24.24,1
860,17.47,6.37,-33.84,1
861,17.48,1.87,-38.35,1
862,17.49,-3.68,-26.02,1
863,17.51,-5.43,-13.36,1
864,17.52,-3.68,-15.79,1
865,17.53,0.9,-24.27,1
866,17.55,4.62,-25.38,1
867,17.56,6.24,-20.29,1
868,17.57,7.0,-15.36,1
869,17.59,4.44,-13.17,1
870,17.6,-0.62,-15.18,1
871,17.61,-0.49,-19.79,1
872,17.63,6.14,-18.08,1
873,17.64,7.81,-11.46,1
874,17.65,0.19,-13.89,1
875,17.67,-6.16,-17.46,1
876,17.68,-8.25,-7.47,1
877,17.69,-8.32,2.24,1
878,17.7,-1.47,-1.27,1
879,17.72,7.15,-12.23,1
880,17.73,2.77,-21.25,1
881,17.75,-9.95,-17.54,1
882,17.76,-14.61,-2.4,1
883,17.77,-13.41,2.85,1
884,17.78,-14.57,-9.81,1
885,17.8,-13.01,-16.48,1
886,17.81,-4.88,-3.55,1
887,17.82,3.88,6.6,1
888,17.84,6.18,1.06,1
889,17.85,1.03,-2.0,1
890,17.86,-6.73,3.53,1
891,17.88,-13.23,4.26,1
892,17.89,-15.32,0.82,1
893,17.9,-11.1,2.35,1
894,17.92,-2.05,7.12,1
895,17.93,8.41,10.08,1
896,17.94,11.59,11.46,1
897,17.96,3.19,10.42,1
898,17.97,-1.74,5.59,1
899,17.99,7.68,4.01,1
900,18.0,16.63,10.4,1
901,18.01,11.37,14.93,1
902,18.03,1.51,12.92,1
903,18.04,-1.93,15.8,1
904,18.05,-3.35,24.13,1
905,18.07,-7.14,24.87,1
906,18.08,-12.04,18.19,1
907,18.09,-13.77,12.29,1
908,18.11,-6.71,10.52,1
909,18.12,3.78,14.04,1
910,18.13,5.78,20.94,1
911,18.15,-2.82,28.57,1
912,18.16,-13.03,30.98,0
913,18.17,-13.97,27.05,0
914,18.19,-3.16,23.97,0
915,18.2,8.6,6.81,0
916,18.21,12.01,-34.28,0
917,18.23,12.87,-66.4,0
918,18.24,22.52,-75.62,0
919,18.25,40.77,-91.29,0
920,18.27,51.76,-120.22,0
921,18.28,40.39,-139.13,0
922,18.29,16.92,-145.14,0
923,18.31,3.58,-152.29,0
924,18.32,0.65,-154.15,0
925,18.33,-9.89,-133.5,0
926,18.34,-33.18,-89.94,0
927,18.36,-52.2,-36.58,0
928,18.37,-53.48,10.71,0
929,18.38,-43.53,42.85,0
930,18.4,-30.5,69.9,0
931,18.41,-17.47,104.78,0
932,18.42,-11.25,140.34,0
933,18.44,-11.14,166.02,0
934,18.45,-6.54,185.89,0
935,18.46,-0.61,198.12,0
936,18.48,-1.54,197.25,0
937,18.49,0.15,194.03,0
938,18.5,5.2,192.53,0
939,18.52,1.71,183.67,0
940,18.53,-4.74,170.45,0
941,18.54,-5.67,160.18,0
942,18.56,-6.22,146.51,1
943,18.57,-9.74,122.21,1
944,18.58,-11.55,100.48,1
945,18.6,-8.03,98.67,1
946,18.61,-6.6,104.76,1
947,18.63,-11.7,95.43,1
948,18.64,-13.47,75.19,1
949,18.65,-3.91,58.76,1
950,18.67,6.89,45.71,1
951,18.68,4.28,34.08,1
952,18.69,-4.19,25.26,1
953,18.71,-1.14,16.72,1
954,18.72,10.69,6.22,1
955,18.73,19.77,-4.98,1
956,18.75,21.41,-8.52,1
957,18.76,18.05,0.22,1
958,18.77,12.58,5.14,1
959,18.79,-4.0,-4.03,1
960,18.8,-31.5,-12.95,1
961,18.81,-37.38,-18.55,1
962,18.83,-5.67,-30.16,1
963,18.84,22.32,-38.26,1
964,18.85,11.86,-38.58,1
965,18.87,-11.31,-45.22,1
966,18.88,-8.96,-52.11,1
967,18.89,17.52,-43.68,1
968,18.91,34.97,-30.35,1
969,18.92,23.88,-31.07,1
970,18.93,6.97,-47.18,1
971,18.95,7.72,-60.2,1
972,18.96,12.65,-57.31,1
973,18.97,7.66,-52.56,1
974,18.98,0.37,-54.35,1
975,19.0,-2.73,-49.03,1
976,19.01,-3.88,-39.39,1
977,19.02,-3.4,-44.46,1
978,19.04,4.76,-56.8,1
979,19.05,13.29,-55.06,1
980,19.06,9.78,-45.65,1
981,19.08,5.21,-47.11,1
982,19.09,9.08,-56.4,1
983,19.1,10.88,-58.62,1
984,19.12,4.32,-53.22,1
985,19.13,-4.92,-53.13,1
986,19.14,-10.68,-58.08,1
987,19.16,-7.3,-52.9,1
988,19.17,7.42,-40.32,1
989,19.18,18.8,-39.03,1
990,19.2,12.99,-45.0,1
991,19.21,3.52,-42.7,1
992,19.22,10.74,-43.31,1
993,19.24,27.91,-55.24,1
994,19.25,26.0,-54.84,1
995,19.265,4.79,-35.58,1
996,19.28,-2.71,-24.18,1
997,19.29,4.46,-28.6,1
998,19.31,-0.57,-34.8,1
999,19.32,-16.07,-36.58,1
1000,19.33,-14.09,-33.04,1
1001,19.35,15.48,-26.69,1
1002,19.36,30.83,-26.52,1
1003,19.37,-5.51,-31.16,1
1004,19.39,-42.65,-24.52,1
1005,19.4,-19.77,-7.29,1
1006,19.41,20.13,-3.32,1
1007,19.43,15.43,-16.33,1
1008,19.44,-5.25,-26.27,1
1009,19.45,-0.62,-23.0,1
1010,19.47,8.48,-8.89,1
1011,19.48,7.73,5.92,1
1012,19.49,13.18,7.25,1
1013,19.51,17.65,-2.96,1
1014,19.52,9.02,-10.4,1
1015,19.53,1.17,-14.0,1
1016,19.55,4.09,-15.92,1
1017,19.56,7.89,-5.45,1
1018,19.57,3.55,13.42,1
1019,19.59,-5.44,20.6,1
1020,19.6,-12.06,14.09,1
1021,19.61,-10.29,3.71,1
1022,19.62,0.13,-5.58,1
1023,19.64,5.44,-9.11,1
1024,19.65,1.0,-4.81,1
1025,19.67,4.43,-0.45,1
1026,19.68,14.75,0.24,1
1027,19.69,8.45,5.39,1
1028,19.7,-10.51,13.61,1
1029,19.72,-16.19,12.76,1
1030,19.73,-7.11,2.48,1
1031,19.75,-0.85,-4.5,1
1032,19.76,-0.47,2.28,1
1033,19.77,2.52,16.32,1
1034,19.78,5.67,22.5,1
1035,19.8,-1.01,16.98,1
1036,19.81,-15.85,10.05,1
1037,19.82,-24.59,13.95,1
1038,19.84,-16.86,23.81,1
1039,19.85,0.69,24.76,1
1040,19.86,8.92,20.18,1
1041,19.88,-2.18,19.88,1
1042,19.89,-20.31,15.65,1
1043,19.9,-24.0,0.08,1
1044,19.92,-12.54,-13.04,1
1045,19.93,-7.19,-3.67,1
1046,19.95,-11.4,22.75,1
1047,19.96,-11.27,38.02,1
1048,19.97,-5.59,34.97,1
1049,19.99,-2.05,29.36,1
1050,20.0,-1.24,22.62,1
1051,20.01,1.89,11.64,1
1052,20.03,0.96,11.17,1
1053,20.04,-11.85,25.41,1
1054,20.05,-18.69,33.93,1
1055,20.07,-4.38,27.09,1
1056,20.08,10.72,16.07,1
1057,20.09,9.43,9.49,1
1058,20.11,4.16,7.2,1
1059,20.12,3.02,8.95,1
1060,20.13,0.65,13.78,1
1061,20.15,-2.64,20.79,1
1062,20.16,-5.89,29.06,2
1063,20.17,-8.62,29.44,2
1064,20.19,-7.16,15.43,2
1065,20.2,-3.42,-0.67,2
1066,20.21,-5.35,-1.81,2
1067,20.23,-9.06,8.67,2
1068,20.24,-2.61,16.06,2
1069,20.25,2.44,16.45,2
1070,20.26,-9.37,11.13,2
1071,20.28,-16.79,4.19,2
1072,20.29,-2.84,9.31,2
1073,20.3,10.73,22.82,2
1074,20.32,7.11,33.23,2
1075,20.33,-4.79,79.63,2
1076,20.34,-7.91,188.12,2
1077,20.36,-1.79,282.53,2
1078,20.37,-9.48,303.93,2
1079,20.38,-24.49,281.66,2
1080,20.4,-18.99,223.76,2
1081,20.41,-6.25,153.19,2
1082,20.42,-3.07,120.69,2
1083,20.44,2.13,79.7,2
1084,20.45,7.33,-18.83,2
1085,20.46,4.79,-115.08,2
1086,20.48,3.7,-162.21,2
1087,20.49,7.7,-182.98,2
1088,20.5,11.16,-190.83,2
1089,20.52,11.55,-178.7,2
1090,20.53,7.41,-161.35,2
1091,20.54,5.29,-156.65,2
1092,20.56,5.26,-154.04,1
1093,20.57,-4.25,-140.65,1
1094,20.59,-8.4,-125.68,1
1095,20.6,10.63,-122.16,1
1096,20.61,24.42,-121.26,1
1097,20.63,11.29,-107.17,1
1098,20.64,2.91,-86.74,1
1099,20.65,16.75,-76.15,1
1100,20.67,24.83,-78.72,1
1101,20.68,19.99,-84.61,1
1102,20.69,21.23,-80.27,1
1103,20.71,25.9,-63.26,1
1104,20.72,21.44,-46.41,1
1105,20.73,7.99,-40.19,1
1106,20.75,-4.01,-40.33,1
1107,20.76,-1.81,-38.41,1
1108,20.77,13.07,-35.91,1
1109,20.79,24.57,-37.86,1
1110,20.8,18.51,-37.5,1
1111,20.81,-1.99,-26.27,1
1112,20.83,-12.88,-14.25,1
1113,20.84,-0.2,-13.97,1
1114,20.85,12.59,-17.22,1
1115,20.87,1.78,-8.92,1
1116,20.88,-17.3,10.07,1
1117,20.89,-26.16,22.46,1
1118,20.9,-25.37,18.44,1
1119,20.92,-12.59,10.94,1
1120,20.93,7.08,11.52,1
1121,20.94,14.91,17.26,1
1122,20.96,5.38,21.98,1
1123,20.97,-8.53,23.64,1
1124,20.98,-13.62,26.4,1
1125,21.0,-9.18,29.34,1
1126,21.01,-2.33,27.35,1
1127,21.02,0.5,25.94,1
1128,21.04,-3.89,31.03,1
1129,21.05,-9.88,38.6,1
1130,21.06,-11.08,37.17,1
1131,21.08,-11.57,26.79,1
1132,21.09,-10.08,28.16,1
1133,21.1,0.01,41.55,1
1134,21.12,7.53,43.37,1
1135,21.13,-2.94,38.02,1
1136,21.14,-17.52,39.02,1
1137,21.16,-11.81,38.37,1
1138,21.17,8.09,33.06,1
1139,21.18,19.02,30.12,1
1140,21.2,12.96,30.9,1
1141,21.21,-2.82,33.79,1
1142,21.23,-14.7,33.78,1
1143,21.24,-16.87,31.75,1
1144,21.25,-17.77,35.09,1
1145,21.27,-17.85,36.47,1
1146,21.28,-8.68,29.17,1
1147,21.29,1.78,24.57,1
1148,21.31,-0.7,25.89,1
1149,21.32,-7.11,24.93,1
1150,21.33,-0.53,25.03,1
1151,21.35,6.17,28.67,1
1152,21.36,-5.01,28.08,1
1153,21.37,-14.03,26.9,1
1154,21.39,-0.02,26.84,1
1155,21.4,16.62,17.1,1
1156,21.41,12.22,8.89,1
1157,21.43,-1.38,17.75,1
1158,21.44,-4.72,26.0,1
1159,21.45,-4.51,19.7,1
1160,21.47,-7.01,11.81,1
1161,21.48,0.82,7.33,1
1162,21.49,12.6,3.16,1
1163,21.51,7.4,6.11,1
1164,21.52,-5.37,14.78,1
1165,21.53,-5.3,14.65,1
1166,21.54,2.03,10.25,1
1167,21.56,2.06,14.47,1
1168,21.57,-3.75,14.06,1
1169,21.58,-2.97,-0.01,1
1170,21.6,7.29,-4.03,1
1171,21.61,13.81,10.52,1
1172,21.62,8.71,14.73,1
1173,21.64,0.84,4.95,1
1174,21.65,-4.98,12.17,1
1175,21.67,-7.3,29.71,1
1176,21.68,1.75,25.82,1
1177,21.69,15.02,11.91,1
1178,21.7,12.54,6.44,1
1179,21.72,-2.76,-6.63,1
1180,21.73,-6.71,-23.47,1
1181,21.75,7.91,-14.82,1
1182,21.76,18.06,9.66,1
1183,21.77,6.25,17.05,1
1184,21.78,-6.92,3.0,1
1185,21.8,0.59,-14.93,1
1186,21.81,9.44,-19.48,1
1187,21.82,-4.49,-9.79,1
1188,21.84,-21.53,-2.32,1
1189,21.85,-13.97,-3.57,1
1190,21.87,4.63,-7.09,1
1191,21.88,6.15,-9.99,1
1192,21.89,-6.35,-6.91,1
1193,21.91,-8.24,0.59,1
1194,21.92,4.63,-3.77,1
1195,21.93,12.37,-14.74,1
1196,21.95,5.14,-9.35,1
1197,21.96,-2.22,-2.35,1
1198,21.97,3.15,-18.85,1
1199,21.99,9.6,-33.87,1
1200,22.0,11.77,-25.02,1
1201,22.01,18.73,-18.5,1
1202,22.03,20.0,-25.33,1
1203,22.04,5.8,-22.54,1
1204,22.05,-6.73,-12.19,1
1205,22.07,-9.24,-10.49,1
1206,22.08,-11.59,-9.1,1
1207,22.09,-13.48,-5.37,1
1208,22.11,-8.28,-11.92,1
1209,22.12,0.14,-20.47,1
1210,22.13,2.31,-19.35,1
1211,22.15,0.12,-19.55,1
1212,22.16,2.13,-29.86,2
1213,22.17,4.35,-35.08,2
1214,22.18,1.63,-5.74,2
1215,22.2,6.64,67.97,2
1216,22.21,26.36,137.82,2
1217,22.22,36.17,157.61,2
1218,22.24,18.04,153.08,2
1219,22.25,-12.7,139.54,2
1220,22.26,-41.04,52.23,2
1221,22.28,-42.6,-105.86,2
1222,22.29,-4.09,-136.89,2
1223,22.3,10.24,40.9,2
1224,22.32,-31.13,209.01,2
1225,22.33,-39.12,234.63,2
1226,22.34,17.61,197.24,2
1227,22.36,42.01,157.31,2
1228,22.37,-0.38,103.8,2
1229,22.38,-30.85,35.99,2
1230,22.4,-11.49,-29.67,2
1231,22.41,15.71,-105.61,2
1232,22.42,22.58,-149.88,2
1233,22.44,17.6,-107.09,2
1234,22.45,4.97,-79.27,2
1235,22.46,-3.13,-135.48,2
1236,22.48,10.27,-167.29,2
1237,22.49,18.96,-141.09,2
1238,22.5,3.92,-131.94,2
1239,22.52,-7.73,-125.87,2
1240,22.53,-9.7,-100.15,2
1241,22.55,-4.78,-118.91,1
1242,22.56,25.78,-154.64,1
1243,22.57,58.67,-124.79,1
1244,22.59,48.1,-64.5,1
1245,22.6,11.75,-26.11,1
1246,22.61,-8.61,-29.29,1
1247,22.63,-12.33,-45.73,1
1248,22.64,-16.53,-26.42,1
1249,22.65,-22.92,-33.14,1
1250,22.67,-21.61,-76.27,1
1251,22.68,-11.05,-64.64,1
1252,22.69,-2.86,-21.72,1
1253,22.71,-7.28,-7.29,1
1254,22.72,-11.69,-28.11,1
1255,22.73,1.25,-89.24,1
1256,22.75,14.01,-135.81,1
1257,22.76,1.48,-118.25,1
1258,22.77,-24.08,-85.27,1
1259,22.79,-37.19,-48.39,1
1260,22.8,-33.2,13.9,1
1261,22.81,-22.87,33.1,1
1262,22.82,-20.88,-37.22,1
1263,22.84,-31.33,-112.94,1
1264,22.85,-29.3,-92.3,1
1265,22.86,6.72,0.77,1
1266,22.88,43.74,48.02,1
1267,22.89,35.62,15.71,1
1268,22.9,4.77,1.33,1
1269,22.92,-5.48,45.85,1
1270,22.93,-14.66,44.71,1
1271,22.94,-37.59,-47.81,1
1272,22.96,-31.81,-103.98,1
1273,22.97,11.34,-43.27,1
1274,22.98,38.06,30.3,1
1275,23.0,23.6,19.26,1
1276,23.01,-1.19,-29.67,1
1277,23.02,-8.61,-27.17,1
1278,23.04,-1.31,27.55,1
1279,23.05,8.46,64.67,1
1280,23.06,13.28,73.06,1
1281,23.08,5.97,74.86,1
1282,23.09,-11.25,29.81,1
1283,23.1,-19.06,-50.97,1
1284,23.12,-10.4,-58.34,1
1285,23.13,5.45,9.43,1
1286,23.14,23.8,41.92,1
1287,23.16,28.05,36.74,1
1288,23.17,9.65,56.29,1
1289,23.19,-3.92,79.42,1
1290,23.2,-5.94,73.95,1
1291,23.21,-18.58,44.48,1
1292,23.23,-27.39,3.32,1
1293,23.24,-5.14,-4.6,1
1294,23.25,17.38,18.84,1
1295,23.27,-3.85,14.58,1
1296,23.28,-32.55,14.77,1
1297,23.29,-18.25,43.62,1
1298,23.31,8.96,36.16,1
1299,23.32,11.28,7.81,1
1300,23.33,3.39,15.16,1
1301,23.35,4.24,39.75,1
1302,23.36,7.92,69.21,1
1303,23.37,5.39,93.8,1
1304,23.39,2.46,62.1,1
1305,23.4,1.42,10.64,1
1306,23.41,3.66,21.33,1
1307,23.43,18.05,21.84,1
1308,23.44,35.43,-29.17,1
1309,23.45,34.84,-0.66,1
1310,23.46,9.65,98.57,1
1311,23.48,-16.22,106.18,1
1312,23.49,-11.34,27.47,1
1313,23.5,9.1,-11.76,1
1314,23.52,10.47,24.65,1
1315,23.53,-5.98,79.02,1
1316,23.54,-14.41,97.18,1
1317,23.56,-4.41,87.08,1
1318,23.57,1.49,72.83,1
1319,23.58,-9.74,50.61,1
1320,23.6,-15.26,21.82,1
1321,23.61,-5.02,25.78,1
1322,23.62,-0.9,68.77,1
1323,23.64,-9.66,91.47,1
1324,23.65,-9.78,73.31,1
1325,23.67,2.83,47.9,1
1326,23.68,11.37,59.65,1
1327,23.69,9.56,106.26,1
1328,23.7,-2.27,81.08,1
1329,23.72,-8.68,-23.64,1
1330,23.73,7.72,-38.71,1
1331,23.75,20.73,53.94,1
1332,23.76,4.37,89.99,1
1333,23.77,-8.65,28.25,1
1334,23.78,7.11,-15.98,1
1335,23.8,18.01,22.16,1
1336,23.81,1.5,63.57,1
1337,23.83,-10.84,38.76,1
1338,23.84,-3.41,-13.43,1
1339,23.85,0.98,-58.62,1
1340,23.87,2.87,-88.1,1
1341,23.88,11.34,-73.77,1
1342,23.89,6.32,-33.54,1
1343,23.91,-10.31,-29.26,1
1344,23.92,-4.75,-49.72,1
1345,23.93,21.3,-34.21,1
1346,23.95,30.51,8.63,1
1347,23.96,11.89,36.58,1
1348,23.97,-13.18,39.71,1
1349,23.99,-27.02,16.57,1
1350,24.0,-17.89,-20.64,1
1351,24.01,8.86,-27.23,1
1352,24.03,15.69,12.24,1
1353,24.04,3.78,29.39,1
1354,24.05,12.41,-15.8,1
1355,24.07,22.45,-66.31,1
1356,24.08,7.61,-78.54,1
1357,24.09,2.39,-52.35,1
1358,24.1,17.96,-17.31,1
1359,24.12,23.96,-12.16,1
1360,24.13,18.11,-14.8,1
1361,24.14,8.4,-13.87,1
1362,24.16,-12.09,-25.97,0
1363,24.17,-31.23,-18.59,0
1364,24.18,-27.8,-1.53,0
1365,24.2,-11.52,-24.99,0
1366,24.21,-5.94,-51.44,0
1367,24.22,-7.33,-28.11,0
1368,24.24,-0.04,8.83,0
1369,24.25,7.09,7.31,0
1370,24.26,-4.02,-21.14,0
1371,24.28,-20.46,-26.31,0
1372,24.29,-18.8,-1.46,0
1373,24.3,-10.19,-6.06,0
1374,24.32,-9.64,-54.32,0
1375,24.33,-3.15,-96.56,0
1376,24.34,13.27,-138.63,0
1377,24.36,20.39,-201.44,0
1378,24.37,14.21,-243.88,0
1379,24.38,2.39,-239.72,0
1380,24.4,-12.63,-203.08,0
1381,24.41,-21.2,-146.96,0
1382,24.42,-19.04,-91.5,0
1383,24.44,-16.03,-49.35,0
1384,24.45,-13.22,-5.82,0
1385,24.47,-4.27,37.64,0
1386,24.48,3.9,54.05,0
1387,24.49,0.32,46.42,0
1388,24.51,-8.06,42.66,0
1389,24.52,-9.8,57.06,0
1390,24.53,-6.9,84.99,0
1391,24.55,-1.95,98.94,1
1392,24.56,3.63,76.39,1
1393,24.57,6.88,43.71,1
1394,24.59,11.73,37.86,1
1395,24.6,16.35,51.92,1
1396,24.61,9.12,56.16,1
1397,24.63,-6.32,45.78,1
1398,24.64,-13.21,43.36,1
1399,24.65,-10.05,57.52,1
1400,24.67,-2.79,70.47,1
1401,24.68,6.64,72.85,1
1402,24.69,6.48,70.82,1
1403,24.71,-6.31,69.08,1
1404,24.72,-11.73,69.55,1
1405,24.73,-10.34,73.8,1
1406,24.75,-21.5,79.88,1
1407,24.76,-29.66,80.84,1
1408,24.77,-11.86,71.08,1
1409,24.78,7.1,54.7,1
1410,24.8,-0.5,42.38,1
1411,24.81,-11.49,45.29,1
1412,24.82,0.5,60.76,1
1413,24.84,13.97,65.98,1
1414,24.85,4.09,52.43,1
1415,24.86,-8.99,41.2,1
1416,24.88,-2.4,41.94,1
1417,24.89,10.8,41.81,1
1418,24.9,10.98,39.94,1
1419,24.92,-1.33,39.1,1
1420,24.93,-14.83,28.44,1
1421,24.94,-19.1,12.26,1
1422,24.96,-10.64,8.33,1
1423,24.97,5.63,14.82,1
1424,24.98,17.34,18.45,1
1425,25.0,17.46,17.58,1
1426,25.01,10.84,13.84,1
1427,25.02,3.18,2.84,1
1428,25.04,1.81,-11.71,1
1429,25.05,7.17,-16.6,1
1430,25.06,8.51,-13.55,1
1431,25.08,4.13,-15.15,1
1432,25.09,4.14,-18.91,1
1433,25.1,7.26,-17.32,1
1434,25.12,0.74,-16.78,1
1435,25.13,-9.87,-24.61,1
1436,25.15,-8.44,-41.79,1
1437,25.16,2.12,-54.18,1
1438,25.17,11.06,-40.55,1
1439,25.19,11.31,-18.1,1
1440,25.2,3.53,-20.16,1
1441,25.21,-1.33,-36.16,1
1442,25.23,2.65,-39.99,1
1443,25.24,9.65,-33.22,1
1444,25.25,9.06,-30.53,1
1445,25.27,1.05,-39.37,1
1446,25.28,0.98,-49.3,1
1447,25.29,7.66,-43.83,1
1448,25.31,4.31,-34.99,1
1449,25.32,-0.57,-41.32,1
1450,25.33,8.2,-45.73,1
1451,25.35,13.87,-29.94,1
1452,25.36,1.16,-10.67,1
1453,25.37,-11.11,-11.29,1
1454,25.38,-2.47,-28.51,1
1455,25.4,15.87,-40.04,1
1456,25.41,17.18,-37.77,1
1457,25.42,0.8,-34.24,1
1458,25.44,-9.52,-31.76,1
1459,25.45,-6.03,-22.87,1
1460,25.46,-0.14,-17.23,1
1461,25.48,1.31,-24.35,1
1462,25.49,0.16,-31.57,1
1463,25.5,-0.89,-34.06,1
1464,25.52,0.27,-40.55,1
1465,25.53,6.53,-43.95,1
1466,25.54,10.39,-32.88,1
1467,25.56,5.68,-13.47,1
1468,25.57,2.73,-5.15,1
1469,25.58,4.65,-17.91,1
1470,25.6,3.19,-32.21,1
1471,25.61,-1.55,-28.59,1
1472,25.62,-5.01,-20.14,1
1473,25.64,-9.45,-21.47,1
1474,25.65,-14.74,-19.49,1
1475,25.67,-10.56,-7.11,1
1476,25.68,4.2,-1.81,1
1477,25.69,15.22,-5.56,1
1478,25.7,14.18,-8.71,1
1479,25.72,8.75,-16.59,1
1480,25.73,10.0,-23.85,1
1481,25.75,10.66,-19.59,1
1482,25.76,-2.6,-14.42,1
1483,25.77,-17.5,-17.61,1
1484,25.79,-15.51,-21.66,1
1485,25.8,-5.12,-19.66,1
1486,25.81,-4.84,-15.66,1
1487,25.83,-7.2,-13.86,1
1488,25.84,3.16,-10.25,1
1489,25.85,9.94,-1.36,1
1490,25.87,-3.03,4.3,1
1491,25.88,-19.67,1.1,1
1492,25.89,-17.88,0.9,1
1493,25.91,3.07,8.16,1
1494,25.92,19.22,10.49,1
1495,25.93,10.96,6.79,1
1496,25.95,-8.6,8.81,1
1497,25.96,-14.54,12.56,1
1498,25.97,-3.39,7.84,1
1499,25.99,9.35,4.2,1
1500,26.0,13.16,9.97,1
1501,26.01,8.32,14.74,1
1502,26.02,-3.19,11.8,1
1503,26.04,-13.78,8.88,1
1504,26.05,-12.55,10.48,1
1505,26.06,-4.97,10.41,1
1506,26.08,-0.61,7.62,1
1507,26.09,5.93,7.39,1
1508,26.1,13.64,6.96,1
1509,26.12,12.96,4.56,1
1510,26.13,8.09,6.97,1
1511,26.14,3.17,9.18,1
1512,26.16,-3.01,6.24,0
1513,26.17,-3.13,12.04,0
1514,26.18,5.9,22.55,0
1515,26.2,10.29,12.83,0
1516,26.21,2.09,-16.81,0
1517,26.22,-2.3,-51.03,0
1518,26.24,10.01,-86.66,0
1519,26.25,23.08,-113.4,0
1520,26.26,24.22,-119.27,0
1521,26.28,24.83,-118.81,0
1522,26.29,28.76,-125.58,0
1523,26.3,27.15,-125.81,0
1524,26.32,24.91,-110.44,0
1525,26.33,24.07,-92.65,0
1526,26.34,11.03,-80.61,0
1527,26.36,-14.44,-67.24,0
1528,26.37,-28.99,-45.53,0
1529,26.38,-22.97,-9.63,0
1530,26.4,-17.94,34.51,0
1531,26.41,-27.88,60.72,0
1532,26.43,-45.15,66.44,0
1533,26.44,-49.31,82.14,0
1534,26.45,-23.11,115.4,0
1535,26.47,5.99,147.63,0
1536,26.48,1.06,168.44,0
1537,26.49,-15.12,173.08,0
1538,26.51,-7.88,158.91,0
1539,26.52,6.03,139.67,0
1540,26.53,5.25,135.23,0
1541,26.55,-0.66,146.7,1
1542,26.56,-6.53,159.39,1
1543,26.57,-14.2,160.21,1
1544,26.59,-23.54,149.39,1
1545,26.6,-34.06,139.21,1
1546,26.61,-37.04,136.42,1
1547,26.63,-26.93,133.93,1
1548,26.64,-10.83,116.57,1
1549,26.65,-2.86,88.11,1
1550,26.67,-9.76,77.54,1
1551,26.68,-19.55,83.63,1
1552,26.69,-16.07,74.17,1
1553,26.7,0.17,47.34,1
1554,26.72,7.2,27.48,1
1555,26.73,-6.13,23.63,1
1556,26.75,-16.66,20.69,1
1557,26.76,-9.96,6.92,1
1558,26.77,-2.8,-2.93,1
1559,26.78,-3.04,1.95,1
1560,26.8,0.43,6.36,1
1561,26.81,7.66,-2.76,1
1562,26.82,6.81,-17.97,1
1563,26.84,3.16,-26.63,1
1564,26.85,14.21,-27.07,1
1565,26.86,28.09,-23.85,1
1566,26.88,23.96,-19.3,1
1567,26.89,13.29,-19.94,1
1568,26.9,3.49,-33.16,1
1569,26.92,-10.4,-47.95,1
1570,26.93,-12.4,-45.67,1
1571,26.94,-2.29,-31.69,1
1572,26.96,-6.98,-26.87,1
1573,26.97,-18.96,-37.48,1
1574,26.98,-10.41,-51.24,1
1575,27.0,8.12,-55.68,1
1576,27.01,12.97,-54.96,1
1577,27.02,11.46,-56.8,1
1578,27.04,20.16,-59.13,1
1579,27.05,30.59,-63.03,1
1580,27.06,26.72,-68.66,1
1581,27.08,10.54,-65.42,1
1582,27.09,-2.11,-50.88,1
1583,27.11,-3.01,-41.38,1
1584,27.12,-0.88,-47.4,1
1585,27.13,-0.13,-55.22,1
1586,27.15,3.13,-53.49,1
1587,27.16,5.22,-53.56,1
1588,27.17,7.49,-60.02,1
1589,27.19,14.83,-60.18,1
1590,27.2,17.14,-51.59,1
1591,27.21,7.29,-45.56,1
1592,27.23,-2.65,-45.74,1
1593,27.24,-3.94,-47.7,1
1594,27.25,-3.11,-49.36,1
1595,27.27,-4.97,-46.79,1
1596,27.28,-3.44,-37.17,1
1597,27.29,3.36,-31.31,1
1598,27.3,5.81,-39.84,1
1599,27.32,3.65,-47.26,1
1600,27.33,9.24,-34.88,1
1601,27.34,22.55,-18.84,1
1602,27.36,27.94,-17.68,1
1603,27.37,17.52,-21.73,1
1604,27.38,2.08,-25.16,1
1605,27.4,-2.86,-33.28,1
1606,27.41,5.2,-38.18,1
1607,27.42,14.07,-31.41,1
1608,27.44,13.45,-20.82,1
1609,27.45,2.7,-12.15,1
1610,27.46,-10.59,-4.34,1
1611,27.48,-7.68,-4.41,1
1612,27.49,13.34,-12.78,1
1613,27.5,19.23,-15.95,1
1614,27.52,-1.67,-10.99,1
1615,27.53,-10.79,-10.71,1
1616,27.54,7.51,-19.33,1
1617,27.56,16.02,-23.79,1
1618,27.57,1.68,-14.67,1
1619,27.58,-6.98,1.06,1
1620,27.6,-7.92,7.14,1
1621,27.61,-19.1,-0.77,1
1622,27.62,-32.22,-6.96,1
1623,27.64,-27.75,-4.05,1
1624,27.65,-4.53,-0.06,1
1625,27.67,12.84,5.1,1
1626,27.68,6.89,13.91,1
1627,27.69,-3.07,17.18,1
1628,27.7,-1.75,11.67,1
1629,27.72,2.35,10.2,1
1630,27.73,7.37,16.09,1
1631,27.75,12.17,15.42,1
1632,27.76,2.86,10.2,1
1633,27.77,-13.91,15.08,1
1634,27.79,-11.72,20.04,1
1635,27.8,2.0,10.88,1
1636,27.81,0.41,9.22,1
1637,27.83,-10.75,30.87,1
1638,27.84,-16.61,45.23,1
1639,27.85,-16.45,31.18,1
1640,27.87,-9.55,14.19,1
1641,27.88,2.93,16.02,1
1642,27.89,13.72,23.85,1
1643,27.91,13.03,22.32,1
1644,27.92,0.24,19.3,1
1645,27.93,-6.13,23.08,1
1646,27.94,5.78,23.18,1
1647,27.96,16.83,15.28,1
1648,27.97,5.21,7.32,1
1649,27.98,-14.19,3.9,1
1650,28.0,-11.25,8.55,1
1651,28.01,6.78,18.58,1
1652,28.02,15.24,25.73,1
1653,28.04,12.91,20.04,1
1654,28.05,1.35,0.3,1
1655,28.06,-12.92,-3.21,1
1656,28.08,-8.48,20.44,1
1657,28.09,9.69,30.64,1
1658,28.1,13.99,18.53,1
1659,28.12,0.96,19.0,1
1660,28.13,-9.3,33.86,1
1661,28.14,-4.58,37.72,1
1662,28.16,4.85,43.51,2
1663,28.17,2.42,94.68,2
1664,28.18,-14.84,183.62,2
1665,28.2,-29.49,253.59,2
1666,28.21,-19.73,283.16,2
1667,28.22,-4.73,288.12,2
1668,28.24,-23.07,262.24,2
1669,28.25,-52.23,193.84,2
1670,28.26,-51.29,116.57,2
1671,28.28,-42.31,64.83,2
1672,28.29,-37.17,10.28,2
1673,28.3,0.64,-73.9,2
1674,28.32,57.66,-144.68,2
1675,28.33,71.36,-169.73,2
1676,28.34,37.67,-180.55,2
1677,28.36,15.2,-187.42,2
1678,28.37,22.61,-170.74,2
1679,28.39,20.35,-149.56,2
1680,28.4,-0.07,-143.21,2
1681,28.41,-5.67,-138.61,2
1682,28.43,6.53,-133.23,2
1683,28.44,12.38,-128.62,2
1684,28.45,7.6,-111.68,2
1685,28.47,6.5,-80.43,2
1686,28.48,9.68,-55.39,2
1687,28.49,4.06,-56.91,2
1688,28.51,-8.21,-78.29,2
1689,28.52,-11.9,-88.63,2
1690,28.53,-9.21,-75.66,2
1691,28.55,-2.2,-66.73,1
1692,28.56,17.65,-75.24,1
1693,28.57,26.86,-73.85,1
1694,28.58,2.25,-53.6,1
1695,28.6,-22.99,-40.26,1
1696,28.61,-14.05,-40.87,1
1697,28.62,10.53,-35.71,1
1698,28.64,14.21,-20.7,1
1699,28.65,-3.1,-8.81,1
1700,28.67,-14.74,-3.58,1
1701,28.68,-13.19,-6.35,1
1702,28.69,-7.16,-12.99,1
1703,28.7,-4.28,-4.93,1
1704,28.72,-5.97,13.91,1
1705,28.73,-0.76,16.75,1
1706,28.75,10.23,5.85,1
1707,28.76,7.93,0.46,1
1708,28.77,-7.06,1.55,1
1709,28.78,-15.99,8.53,1
1710,28.8,-11.59,20.95,1
1711,28.81,3.23,21.32,1
1712,28.82,18.62,9.62,1
1713,28.84,16.32,12.81,1
1714,28.85,-9.41,31.76,1
1715,28.86,-31.89,37.77,1
1716,28.88,-22.85,30.96,1
1717,28.89,0.14,35.18,1
1718,28.9,3.74,43.08,1
1719,28.92,-1.34,33.48,1
1720,28.93,6.24,21.99,1
1721,28.94,14.14,32.82,1
1722,28.96,9.61,50.63,1
1723,28.97,0.74,48.08,1
1724,28.98,-5.36,37.25,1
1725,29.0,-8.2,44.0,1
1726,29.01,-6.35,55.12,1
1727,29.03,0.49,49.43,1
1728,29.04,6.36,38.83,1
1729,29.05,3.3,32.55,1
1730,29.07,-2.68,25.96,1
1731,29.08,-0.09,25.41,1
1732,29.09,4.48,32.24,1
1733,29.11,4.69,30.33,1
1734,29.12,10.75,18.24,1
1735,29.13,16.77,17.98,1
1736,29.15,-0.15,33.15,1
1737,29.16,-25.8,38.69,1
1738,29.17,-22.77,31.09,1
1739,29.19,-1.48,30.3,1
1740,29.2,2.81,35.38,1
1741,29.21,-3.75,32.75,1
1742,29.22,1.61,26.26,1
1743,29.24,9.31,25.77,1
1744,29.25,0.85,25.76,1
1745,29.26,-12.11,16.44,1
1746,29.28,-9.83,6.39,1
1747,29.29,-1.1,9.47,1
1748,29.3,-2.43,21.44,1
1749,29.32,-4.74,28.82,1
1750,29.33,3.32,27.55,1
1751,29.34,11.58,21.27,1
1752,29.36,10.02,13.9,1
1753,29.37,4.51,13.1,1
1754,29.38,2.57,17.56,1
1755,29.4,0.84,11.22,1
1756,29.41,-2.27,0.8,1
1757,29.42,-2.16,10.08,1
1758,29.44,-2.99,24.75,1
1759,29.45,-6.79,19.27,1
1760,29.46,-4.39,7.42,1
1761,29.48,4.44,6.1,1
1762,29.49,16.93,7.04,1
1763,29.5,33.03,4.81,1
1764,29.52,39.21,-1.11,1
1765,29.53,25.54,-11.5,1
1766,29.54,-0.51,-18.87,1
1767,29.56,-28.13,-18.94,1
1768,29.57,-39.48,-16.05,1
1769,29.58,-19.29,-16.43,1
1770,29.6,14.85,-17.02,1
1771,29.61,29.35,-8.69,1
1772,29.62,19.32,4.46,1
1773,29.64,-0.09,6.02,1
1774,29.65,-16.68,-16.83,1
1775,29.67,-16.14,-43.01,1
1776,29.68,-1.38,-33.94,1
1777,29.69,4.19,-2.87,1
1778,29.71,-1.98,7.1,1
1779,29.72,-2.84,-5.37,1
1780,29.73,2.28,-17.45,1
1781,29.75,2.48,-22.98,1
1782,29.76,-2.7,-22.95,1
1783,29.77,-6.41,-17.1,1
1784,29.79,-5.37,-13.53,1
1785,29.8,-0.85,-12.92,1
1786,29.81,1.94,-6.36,1
1787,29.83,-1.92,-4.28,1
1788,29.84,-8.79,-14.5,1
1789,29.85,-10.61,-15.79,1
1790,29.86,-6.4,-6.11,1
1791,29.88,0.95,-11.78,1
1792,29.89,11.14,-28.75,1
1793,29.9,16.55,-31.74,1
1794,29.92,7.83,-20.9,1
1795,29.93,-3.26,-8.55,1
1796,29.94,-2.31,-2.93,1
1797,29.96,-0.14,-6.73,1
1798,29.97,-7.29,-10.03,1
1799,29.98,-14.24,-10.77,1
1800,30.0,-12.63,-18.65,1
1801,30.01,-5.09,-24.33,1
1802,30.02,-0.14,-18.0,1
1803,30.04,-5.53,-11.97,1
1804,30.05,-10.37,-14.25,1
1805,30.06,-1.51,-21.19,1
1806,30.08,10.45,-23.54,1
1807,30.09,14.78,-15.21,1
1808,30.1,13.91,-5.51,1
1809,30.12,11.74,-0.17,1
1810,30.13,10.99,0.85,1
1811,30.14,1.52,-9.28,1
1812,30.16,-18.5,-19.02,2
1813,30.17,-23.31,-9.37,2
1814,30.18,-12.06,5.12,2
1815,30.2,-6.82,0.35,2
1816,30.21,-1.98,-4.43,2
1817,30.22,5.77,40.01,2
1818,30.24,5.41,120.2,2
1819,30.25,2.76,153.35,2
1820,30.26,-7.87,136.24,2
1821,30.28,-29.97,114.05,2
1822,30.29,-25.81,42.65,2
1823,30.3,3.48,-61.7,2
1824,30.32,19.74,-86.93,2
1825,30.33,30.51,-26.45,2
1826,30.35,30.29,8.16,2
1827,30.36,12.47,-45.12,2
1828,30.37,9.42,-43.13,2
1829,30.39,12.23,98.1,2
1830,30.4,13.18,128.42,2
1831,30.41,24.64,-51.91,2
1832,30.43,15.4,-134.91,2
1833,30.44,-13.81,-24.56,2
1834,30.45,-13.75,9.29,2
1835,30.47,14.89,-97.6,2
1836,30.48,20.13,-161.2,2
1837,30.49,-14.3,-121.1,2
1838,30.5,-42.46,-63.86,2
1839,30.52,-37.12,-43.07,2
1840,30.53,-28.88,-26.7,2
1841,30.54,-33.15,11.92,2
1842,30.56,-17.89,58.95,1
1843,30.57,23.4,71.87,1
1844,30.58,43.48,16.74,1
1845,30.6,14.21,-39.64,1
1846,30.61,-30.0,-31.12,1
1847,30.62,-31.83,-20.5,1
1848,30.64,10.98,-32.01,1
1849,30.65,35.11,7.85,1
1850,30.67,20.35,58.54,1
1851,30.68,12.95,16.92,1
1852,30.69,15.87,-60.54,1
1853,30.7,3.37,-42.41,1
1854,30.72,-6.79,47.31,1
1855,30.73,-5.35,43.29,1
1856,30.75,-3.22,-69.15,1
1857,30.76,4.79,-116.34,1
1858,30.77,3.32,-67.94,1
1859,30.78,-12.76,-31.15,1
1860,30.8,-8.05,-9.13,1
1861,30.81,11.22,18.65,1
1862,30.82,13.82,10.28,1
1863,30.84,2.88,-24.28,1
1864,30.85,-23.55,-43.8,1
1865,30.86,-56.87,-43.21,1
1866,30.88,-57.36,-17.94,1
1867,30.89,-19.1,0.37,1
1868,30.9,20.33,-22.19,1
1869,30.92,28.89,-22.15,1
1870,30.93,13.82,16.99,1
1871,30.94,15.69,16.19,1
1872,30.96,44.48,-15.88,1
1873,30.97,60.96,-22.8,1
1874,30.99,42.64,-34.07,1
1875,31.0,17.78,-88.24,1
1876,31.01,6.72,-105.25,1
1877,31.03,-8.3,-14.72,1
1878,31.04,-21.88,67.69,1
1879,31.05,-21.79,41.08,1
1880,31.07,-26.65,-14.35,1
1881,31.08,-25.14,-3.31,1
1882,31.09,1.47,44.28,1
1883,31.11,17.41,41.05,1
1884,31.12,-1.41,9.28,1
1885,31.13,-16.97,37.16,1
1886,31.14,-0.99,76.75,1
1887,31.16,16.94,37.74,1
1888,31.17,15.69,-13.08,1
1889,31.18,8.55,3.05,1
1890,31.2,0.21,17.16,1
1891,31.21,-2.69,-31.58,1
1892,31.22,-0.96,-60.48,1
1893,31.24,-16.38,-5.08,1
1894,31.25,-36.55,41.04,1
1895,31.26,-23.57,15.18,1
1896,31.28,15.81,-21.8,1
1897,31.29,36.14,-48.2,1
1898,31.3,18.53,-64.92,1
1899,31.32,-12.57,-31.45,1
1900,31.33,-33.35,36.39,1
1901,31.34,-31.0,67.14,1
1902,31.36,-5.16,50.87,1
1903,31.37,13.26,43.82,1
1904,31.38,4.95,75.16,1
1905,31.4,-8.97,118.04,1
1906,31.41,-9.63,105.54,1
1907,31.42,2.09,17.09,1
1908,31.44,13.45,-25.92,1
1909,31.45,9.96,45.02,1
1910,31.46,-1.81,88.74,1
1911,31.48,-2.06,29.24,1
1912,31.49,8.83,-2.26,1
1913,31.5,12.74,57.27,1
1914,31.52,6.83,92.62,1
1915,31.53,1.27,55.29,1
1916,31.54,-4.78,29.23,1
1917,31.56,-6.2,30.48,1
1918,31.57,3.1,13.79,1
1919,31.58,-1.02,-13.72,1
1920,31.6,-24.33,-18.65,1
1921,31.61,-23.59,6.42,1
1922,31.63,8.75,17.5,1
1923,31.64,20.71,-10.87,1
1924,31.65,-5.54,-20.87,1
1925,31.67,-24.7,18.84,1
1926,31.68,-9.22,51.65,1
1927,31.69,6.36,34.77,1
1928,31.71,0.45,-10.69,1
1929,31.72,-2.6,-39.79,1
1930,31.73,1.83,-19.22,1
1931,31.75,5.94,22.76,1
1932,31.76,15.53,20.0,1
1933,31.77,18.71,-9.96,1
1934,31.78,3.51,10.56,1
1935,31.8,-11.61,59.01,1
1936,31.81,-8.18,32.38,1
1937,31.82,4.53,-58.12,1
1938,31.84,15.03,-69.8,1
1939,31.85,18.5,40.71,1
1940,31.86,3.36,140.27,1
1941,31.88,-15.17,128.78,1
1942,31.89,-4.16,62.82,1
1943,31.9,18.73,42.4,1
1944,31.92,14.89,65.22,1
1945,31.93,-3.98,47.63,1
1946,31.94,-5.77,-16.62,1
1947,31.96,6.64,-59.69,1
1948,31.97,8.99,-59.68,1
1949,31.98,-2.37,-22.07,1
1950,32.0,-8.0,22.87,1
1951,32.01,0.15,12.42,1
1952,32.03,5.89,-43.04,1
1953,32.04,-8.12,-60.38,1
1954,32.05,-31.05,-37.18,1
1955,32.06,-32.08,-44.07,1
1956,32.08,-6.07,-63.35,1
1957,32.09,15.51,-35.68,1
1958,32.11,14.85,-10.24,1
1959,32.12,11.72,-39.58,1
1960,32.13,11.69,-35.15,1
1961,32.15,0.58,45.08,1
1962,32.16,-12.2,64.43,0
1963,32.17,-16.09,-19.14,0
1964,32.19,-15.36,-85.18,0
1965,32.2,-4.63,-95.2,0
1966,32.21,10.47,-76.91,0
1967,32.22,4.11,-32.82,0
1968,32.24,-18.46,6.06,0
1969,32.25,-23.87,-1.97,0
1970,32.27,-11.41,-52.23,0
1971,32.28,-2.51,-104.54,0
1972,32.29,2.91,-135.03,0
1973,32.31,11.09,-159.54,0
1974,32.32,18.66,-190.3,0
1975,32.33,27.15,-210.0,0
1976,32.35,35.34,-208.23,0
1977,32.36,28.02,-188.75,0
1978,32.37,4.91,-143.84,0
1979,32.39,-10.24,-83.97,0
1980,32.4,-10.42,-45.14,0
1981,32.41,-8.57,-25.75,0
1982,32.43,-6.05,3.61,0
1983,32.44,-1.34,35.29,0
1984,32.45,-3.46,50.46,0
1985,32.47,-13.89,64.99,0
1986,32.48,-18.88,86.27,0
1987,32.49,-13.62,97.15,0
1988,32.51,-9.74,98.81,0
1989,32.52,-9.47,98.16,0
1990,32.53,-5.85,90.1,0
1991,32.54,-2.33,81.54,0
1992,32.56,-1.53,81.29,1
1993,32.57,3.74,83.12,1
1994,32.59,9.47,80.94,1
1995,32.6,2.88,80.46,1
1996,32.61,-8.02,88.8,1
1997,32.63,-8.93,96.69,1
1998,32.64,-3.06,89.08,1
1999,32.65,2.64,74.17,1
2000,32.67,1.79,72.09,1
2001,32.68,-7.86,79.79,1
2002,32.69,-13.0,79.9,1
2003,32.71,-5.53,73.04,1
2004,32.72,-1.47,70.87,1
2005,32.73,-8.68,71.29,1
2006,32.75,-7.35,67.65,1
2007,32.76,3.8,61.98,1
2008,32.77,-0.27,55.23,1
2009,32.79,-11.31,44.36,1
2010,32.8,-3.24,34.89,1
2011,32.81,13.11,36.3,1
2012,32.83,13.38,43.6,1
2013,32.84,1.75,44.37,1
2014,32.85,-0.1,37.52,1
2015,32.87,8.05,29.51,1
2016,32.88,6.74,27.48,1
2017,32.89,-1.19,31.86,1
2018,32.9,1.13,30.95,1
2019,32.92,9.4,22.71,1
2020,32.93,12.03,20.62,1
2021,32.95,10.49,20.09,1
2022,32.96,10.17,7.34,1
2023,32.97,6.75,-4.99,1
2024,32.99,-1.7,-1.44,1
2025,33.0,-3.27,8.36,1
2026,33.01,5.9,7.17,1
2027,33.03,13.44,-2.9,1
2028,33.04,15.73,-6.95,1
2029,33.05,17.82,-6.45,1
2030,33.06,12.22,-8.54,1
2031,33.08,-2.0,-9.79,1
2032,33.09,-0.76,-12.48,1
2033,33.11,16.14,-22.13,1
2034,33.12,13.52,-30.08,1
2035,33.13,-12.42,-27.8,1
2036,33.15,-24.2,-25.28,1
2037,33.16,-2.82,-29.4,1
2038,33.17,24.78,-31.0,1
2039,33.19,25.55,-27.25,1
2040,33.2,6.76,-29.08,1
2041,33.21,-5.54,-38.13,1
2042,33.22,-11.13,-40.51,1
2043,33.24,-16.07,-33.73,1
2044,33.25,-7.98,-34.6,1
2045,33.27,11.07,-45.18,1
2046,33.28,18.0,-46.15,1
2047,33.29,9.82,-36.56,1
2048,33.31,0.97,-37.41,1
2049,33.32,-5.05,-48.87,1
2050,33.33,-7.44,-47.32,1
2051,33.35,-1.21,-31.71,1
2052,33.36,10.64,-27.69,1
2053,33.37,15.99,-41.75,1
2054,33.38,9.11,-48.32,1
2055,33.4,-2.14,-33.53,1
2056,33.41,-10.85,-21.74,1
2057,33.43,-16.96,-30.12,1
2058,33.44,-16.2,-38.45,1
2059,33.45,-6.74,-36.85,1
2060,33.47,0.09,-42.11,1
2061,33.48,-0.85,-52.36,1
2062,33.49,-3.01,-43.1,1
2063,33.51,-6.29,-14.23,1
2064,33.52,-12.39,0.38,1
2065,33.53,-15.34,-14.67,1
2066,33.54,-8.99,-32.38,1
2067,33.56,4.62,-35.73,1
2068,33.57,11.64,-34.83,1
2069,33.59,2.0,-27.78,1
2070,33.6,-12.11,-11.55,1
2071,33.61,-13.89,-4.68,1
2072,33.63,-5.83,-16.47,1
2073,33.64,5.23,-31.19,1
2074,33.65,16.26,-30.82,1
2075,33.67,15.74,-19.32,1
2076,33.68,-2.42,-16.06,1
2077,33.69,-20.8,-18.74,1
2078,33.71,-19.83,-9.69,1
2079,33.72,-5.04,2.83,1
2080,33.73,4.49,1.31,1
2081,33.75,5.47,-8.66,1
2082,33.76,8.28,-14.42,1
2083,33.77,11.18,-15.25,1
2084,33.79,3.19,-11.47,1
2085,33.8,-9.71,-2.01,1
2086,33.81,-10.3,4.83,1
2087,33.83,1.97,4.45,1
2088,33.84,9.82,2.33,1
2089,33.85,3.54,0.63,1
2090,33.87,-4.09,-4.46,1
2091,33.88,-0.91,-9.14,1
2092,33.89,6.54,-1.15,1
2093,33.9,5.98,13.01,1
2094,33.92,-3.8,13.04,1
2095,33.93,-8.02,0.02,1
2096,33.95,2.41,-9.58,1
2097,33.96,13.01,-11.39,1
2098,33.97,9.95,-12.01,1
2099,33.99,-2.29,-9.89,1
2100,34.0,-11.89,-3.42,1
2101,34.01,-9.4,-2.29,1
2102,34.03,1.97,-3.77,1
2103,34.04,9.86,1.95,1
2104,34.05,10.24,6.48,1
2105,34.06,9.84,2.62,1
2106,34.08,7.29,2.14,1
2107,34.09,-7.83,12.52,1
2108,34.11,-20.72,18.29,1
2109,34.12,-7.59,7.64,1
2110,34.13,10.47,2.16,1
2111,34.15,2.27,21.09,1
2112,34.16,-11.06,33.21,0
2113,34.17,-0.24,12.73,0
2114,34.19,8.25,0.66,0
2115,34.2,-13.73,20.86,0
2116,34.21,-34.35,29.93,0
2117,34.23,-22.78,12.95,0
2118,34.24,-2.21,4.34,0
2119,34.25,4.6,12.82,0
2120,34.27,5.98,12.63,0
2121,34.28,6.44,-17.3,0
2122,34.29,6.24,-62.59,0
2123,34.31,11.51,-88.2,0
2124,34.32,14.78,-94.87,0
2125,34.33,18.8,-110.35,0
2126,34.35,37.76,-133.89,0
2127,34.36,49.88,-147.31,0
2128,34.37,34.61,-151.32,0
2129,34.38,16.0,-142.11,0
2130,34.4,12.14,-110.12,0
2131,34.41,7.42,-76.38,0
2132,34.43,-6.83,-56.16,0
2133,34.44,-18.19,-29.87,0
2134,34.45,-27.89,9.59,0
2135,34.47,-38.5,51.01,0
2136,34.48,-27.4,89.23,0
2137,34.49,-5.03,118.12,0
2138,34.51,-11.99,132.99,0
2139,34.52,-29.88,144.04,0
2140,34.53,-24.01,165.13,0
2141,34.54,-21.27,189.61,0
2142,34.56,-34.8,201.48,1
2143,34.57,-31.64,200.07,1
2144,34.59,-9.24,188.51,1
2145,34.6,2.68,168.38,1
2146,34.61,-5.74,148.91,1
2147,34.63,-14.55,138.12,1
2148,34.64,-4.03,133.02,1
2149,34.65,9.74,122.85,1
2150,34.67,1.06,105.39,1
2151,34.68,-14.72,93.99,1
2152,34.69,-9.62,90.93,1
2153,34.71,9.12,71.3,1
2154,34.72,14.77,27.51,1
2155,34.73,1.82,0.33,1
2156,34.75,-13.12,18.6,1
2157,34.76,-16.67,48.52,1
2158,34.77,-4.42,51.6,1
2159,34.79,12.65,38.8,1
2160,34.8,7.64,36.22,1
2161,34.81,-16.8,35.91,1
2162,34.83,-14.23,20.15,1
2163,34.84,30.84,2.54,1
2164,34.85,61.13,-6.43,1
2165,34.87,20.08,-10.94,1
2166,34.88,-54.28,-0.37,1
2167,34.89,-71.61,13.8,1
2168,34.91,-28.76,-1.78,1
2169,34.92,11.4,-28.49,1
2170,34.93,38.65,-28.64,1
2171,34.95,68.62,-23.87,1
2172,34.96,84.2,-41.97,1
2173,34.97,67.82,-58.89,1
2174,34.99,13.7,-53.56,1
2175,35.0,-60.41,-36.32,1
2176,35.01,-71.83,-23.28,1
2177,35.03,4.19,-31.54,1
2178,35.04,58.41,-53.07,1
2179,35.05,35.61,-56.44,1
2180,35.06,-10.05,-44.52,1
2181,35.08,-32.74,-42.12,1
2182,35.09,-18.51,-45.64,1
2183,35.11,13.72,-39.37,1
2184,35.12,26.0,-28.96,1
2185,35.13,16.55,-30.48,1
2186,35.15,4.45,-42.02,1
2187,35.16,-4.51,-52.89,1
2188,35.17,-4.34,-60.4,1
2189,35.19,7.77,-57.5,1
2190,35.2,17.16,-42.97,1
2191,35.21,2.31,-38.88,1
2192,35.22,-26.42,-54.68,1
2193,35.24,-27.07,-65.49,1
2194,35.25,-1.94,-56.89,1
2195,35.27,8.49,-49.82,1
2196,35.28,7.09,-56.78,1
2197,35.29,14.81,-57.51,1
2198,35.31,14.24,-44.4,1
2199,35.32,-7.03,-38.38,1
2200,35.33,-20.1,-45.96,1
2201,35.35,-4.21,-51.63,1
2202,35.36,15.95,-49.28,1
2203,35.37,13.6,-46.04,1
2204,35.38,4.1,-44.05,1
2205,35.4,5.92,-39.42,1
2206,35.41,5.49,-32.47,1
2207,35.43,-6.38,-27.88,1
2208,35.44,-15.91,-26.55,1
2209,35.45,-14.17,-26.25,1
2210,35.47,-6.62,-27.96,1
2211,35.48,2.14,-28.09,1
2212,35.49,9.89,-21.24,1
2213,35.51,6.94,-16.12,1
2214,35.52,-11.59,-21.55,1
2215,35.53,-24.03,-26.35,1
2216,35.55,-8.17,-21.48,1
2217,35.56,15.22,-14.47,1
2218,35.57,12.43,-8.98,1
2219,35.59,-7.58,-3.66,1
2220,35.6,-12.09,-3.39,1
2221,35.61,0.62,-9.01,1
2222,35.63,7.19,-10.27,1
2223,35.64,4.15,-3.21,1
2224,35.65,0.62,1.44,1
2225,35.67,1.73,1.38,1
2226,35.68,12.28,3.1,1
2227,35.69,15.42,2.67,1
2228,35.71,-1.88,-0.81,1
2229,35.72,-10.46,-0.56,1
2230,35.73,3.28,3.26,1
2231,35.75,9.15,10.6,1
2232,35.76,-2.14,17.78,1
2233,35.77,-8.36,14.44,1
2234,35.79,-2.6,6.49,1
2235,35.8,4.86,7.98,1
2236,35.81,9.31,14.83,1
2237,35.83,7.54,15.03,1
2238,35.84,-0.25,7.46,1
2239,35.85,-1.67,1.1,1
2240,35.87,2.63,3.05,1
2241,35.88,-1.32,8.29,1
2242,35.89,-1.93,12.47,1
2243,35.9,15.29,20.98,1
2244,35.92,27.53,29.81,1
2245,35.93,13.43,26.69,1
2246,35.95,-7.54,18.28,1
2247,35.96,-10.79,16.36,1
2248,35.97,-6.33,16.42,1
2249,35.99,-12.16,19.06,1
2250,36.0,-18.31,27.26,1
2251,36.01,-11.83,26.24,1
2252,36.03,-4.26,12.38,1
2253,36.04,-5.0,6.28,1
2254,36.05,-6.55,18.07,1
2255,36.06,-7.39,33.83,1
2256,36.08,-8.56,34.92,1
2257,36.09,-3.75,22.04,1
2258,36.11,1.42,13.98,1
2259,36.12,-3.97,16.57,1
2260,36.13,-11.57,17.96,1
2261,36.15,-8.95,17.01,1
2262,36.16,1.58,20.84,2
2263,36.17,10.35,25.19,2
2264,36.19,8.95,23.29,2
2265,36.2,-0.1,19.2,2
2266,36.21,-2.76,19.62,2
2267,36.23,8.96,23.07,2
2268,36.24,21.67,24.63,2
2269,36.25,16.08,35.83,2
2270,36.27,-1.61,82.61,2
2271,36.28,-9.39,168.5,2
2272,36.29,-6.85,252.41,2
2273,36.31,-12.72,280.2,2
2274,36.32,-29.94,245.42,2
2275,36.33,-37.59,192.32,2
2276,36.35,-28.13,146.29,2
2277,36.36,-16.4,92.17,2
2278,36.37,-4.73,25.05,2
2279,36.38,6.29,-36.5,2
2280,36.4,5.54,-88.25,2
2281,36.41,2.5,-139.14,2
2282,36.43,12.8,-172.34,2
2283,36.44,23.54,-167.39,2
2284,36.45,20.0,-146.85,2
2285,36.47,10.82,-138.38,2
2286,36.48,5.09,-136.7,2
2287,36.49,3.96,-134.37,2
2288,36.51,8.74,-126.94,2
2289,36.52,13.66,-108.95,2
2290,36.53,10.38,-92.92,2
2291,36.54,1.87,-88.09,2
2292,36.56,-4.13,-84.45,1
2293,36.57,-4.88,-81.73,1
2294,36.59,-1.07,-83.62,1
2295,36.6,2.91,-77.7,1
2296,36.61,4.61,-62.21,1
2297,36.63,5.09,-51.68,1
2298,36.64,2.92,-46.6,1
2299,36.65,1.85,-39.03,1
2300,36.67,6.08,-31.31,1
2301,36.68,6.46,-23.9,1
2302,36.69,0.41,-18.95,1
2303,36.71,0.76,-25.0,1
2304,36.72,6.22,-34.54,1
2305,36.73,3.01,-27.88,1
2306,36.75,-5.18,-9.85,1
2307,36.76,-4.13,-4.2,1
2308,36.77,5.98,-7.58,1
2309,36.79,11.49,1.99,1
2310,36.8,4.63,13.89,1
2311,36.81,-8.56,8.44,1
2312,36.83,-16.49,0.98,1
2313,36.84,-13.18,6.18,1
2314,36.85,-3.83,13.62,1
2315,36.87,1.38,15.69,1
2316,36.88,0.67,16.1,1
2317,36.89,-1.27,18.12,1
2318,36.9,-3.31,24.09,1
2319,36.92,-4.34,31.42,1
2320,36.93,-6.33,35.38,1
2321,36.95,-10.87,37.15,1
2322,36.96,-7.97,35.06,1
2323,36.97,2.6,27.28,1
2324,36.99,6.19,26.47,1
2325,37.0,1.19,37.05,1
2326,37.01,-2.41,40.15,1
2327,37.03,0.48,32.58,1
2328,37.04,2.93,31.59,1
2329,37.05,-2.79,34.2,1
2330,37.06,-5.11,31.93,1
2331,37.08,4.28,33.23,1
2332,37.09,6.43,39.02,1
2333,37.11,-9.18,39.98,1
2334,37.12,-21.95,34.43,1
2335,37.13,-16.52,30.3,1
2336,37.15,-5.28,36.12,1
2337,37.16,-2.57,42.54,1
2338,37.17,-2.87,33.85,1
2339,37.19,4.1,20.52,1
2340,37.2,13.27,22.94,1
2341,37.21,12.99,36.12,1
2342,37.22,3.89,37.06,1
2343,37.24,-1.92,22.83,1
2344,37.25,2.46,12.44,1
2345,37.27,5.91,12.73,1
2346,37.28,-4.87,16.23,1
2347,37.29,-21.0,18.15,1
2348,37.31,-20.1,18.62,1
2349,37.32,0.24,17.97,1
2350,37.33,14.18,17.44,1
2351,37.35,8.17,20.48,1
2352,37.36,-1.37,21.49,1
2353,37.37,-2.73,12.37,1
2354,37.38,-2.51,8.57,1
2355,37.4,-7.76,17.94,1
2356,37.41,-12.97,19.11,1
2357,37.43,-7.31,7.9,1
2358,37.44,3.95,5.2,1
2359,37.45,6.88,14.08,1
2360,37.47,1.93,14.17,1
2361,37.48,-2.56,0.41,1
2362,37.49,-4.22,-6.68,1
2363,37.51,-2.85,0.28,1
2364,37.52,2.82,6.18,1
2365,37.53,9.01,-0.11,1
2366,37.54,9.55,-12.25,1
2367,37.56,7.15,-14.11,1
2368,37.57,9.0,-3.3,1
2369,37.59,13.15,4.88,1
2370,37.6,8.27,2.64,1
2371,37.61,-3.93,-3.23,1
2372,37.63,-3.07,-3.75,1
2373,37.64,11.27,5.37,1
2374,37.65,13.9,15.02,1
2375,37.67,2.83,9.47,1
2376,37.68,-3.68,-6.3,1
2377,37.69,-6.3,-15.39,1
2378,37.71,-10.58,-16.48,1
2379,37.72,-8.9,-17.51,1
2380,37.73,-0.72,-18.42,1
2381,37.75,4.08,-17.21,1
2382,37.76,1.79,-17.75,1
2383,37.77,-3.55,-19.25,1
2384,37.79,-5.48,-15.41,1
2385,37.8,-4.65,-8.67,1
2386,37.81,-7.9,-9.12,1
2387,37.83,-6.04,-16.78,1
2388,37.84,9.78,-18.94,1
2389,37.85,20.81,-11.81,1
2390,37.87,14.1,-7.12,1
2391,37.88,2.87,-11.13,1
2392,37.89,-2.54,-17.18,1
2393,37.9,-3.25,-18.96,1
2394,37.92,-2.31,-18.31,1
2395,37.93,-2.52,-17.61,1
2396,37.95,-3.82,-12.06,1
2397,37.96,-0.53,-1.97,1
2398,37.97,6.4,-1.96,1
2399,37.99,5.36,-13.36,1
2400,38.0,0.29,-17.73,1
2401,38.01,5.96,-17.69,1
2402,38.03,15.32,-27.77,1
2403,38.04,13.99,-31.34,1
2404,38.05,7.96,-15.65,1
2405,38.06,6.41,-7.33,1
2406,38.08,1.96,-19.52,1
2407,38.09,-7.73,-26.21,1
2408,38.11,-8.26,-15.62,1
2409,38.12,-3.39,-4.43,1
2410,38.13,-9.48,-2.63,1
2411,38.15,-15.18,-8.38,1
2412,38.16,-8.67,-12.19,2
2413,38.17,-7.41,-6.86,2
2414,38.19,-14.49,-4.56,2
2415,38.2,-9.58,-7.63,2
2416,38.21,2.95,6.9,2
2417,38.22,-1.09,41.48,2
2418,38.24,-12.27,64.67,2
2419,38.25,0.55,92.11,2
2420,38.27,31.54,162.79,2
2421,38.28,44.71,194.92,2
2422,38.29,24.36,127.29,2
2423,38.31,-9.72,21.17,2
2424,38.32,-26.48,-140.57,2
2425,38.33,-16.93,-265.02,2
2426,38.35,-0.96,-86.82,2
2427,38.36,7.96,244.79,2
2428,38.37,11.71,295.59,2
2429,38.38,5.9,102.69,2
2430,38.4,-1.09,-4.95,2
2431,38.41,-0.34,20.79,2
2432,38.43,-10.29,51.01,2
2433,38.44,-26.3,30.0,2
2434,38.45,-18.52,-15.39,2
2435,38.47,-4.03,-9.42,2
2436,38.48,-11.93,13.13,2
2437,38.49,-17.87,-62.9,2
2438,38.51,-3.35,-145.06,2
2439,38.52,9.7,-105.63,2
2440,38.53,12.27,-55.01,2
2441,38.54,12.36,-87.32,2
2442,38.56,6.81,-117.36,1
2443,38.57,-9.12,-89.61,1
2444,38.59,-24.26,-64.53,1
2445,38.6,-15.08,-83.44,1
2446,38.61,20.96,-107.57,1
2447,38.63,41.78,-101.37,1
2448,38.64,19.84,-77.55,1
2449,38.65,-8.14,-51.55,1
2450,38.67,-2.43,-31.28,1
2451,38.68,15.91,-44.55,1
2452,38.69,7.92,-100.84,1
2453,38.71,-11.03,-138.79,1
2454,38.72,-4.57,-92.73,1
2455,38.73,9.55,8.23,1
2456,38.75,0.46,52.29,1
2457,38.76,-8.78,7.54,1
2458,38.77,5.46,-13.13,1
2459,38.79,11.45,7.76,1
2460,38.8,-9.58,-36.69,1
2461,38.81,-16.39,-98.34,1
2462,38.83,2.35,-66.67,1
2463,38.84,10.04,0.13,1
2464,38.85,3.17,16.86,1
2465,38.87,-0.31,2.08,1
2466,38.88,0.35,-6.47,1
2467,38.89,3.02,-12.81,1
2468,38.9,7.83,-23.75,1
2469,38.92,17.4,-10.09,1
2470,38.93,25.19,34.3,1
2471,38.95,8.32,69.98,1
2472,38.96,-23.71,69.63,1
2473,38.97,-30.4,30.54,1
2474,38.99,-14.42,-20.49,1
2475,39.0,-9.54,-31.04,1
2476,39.01,-12.29,18.59,1
2477,39.03,2.1,70.73,1
2478,39.04,19.26,51.65,1
2479,39.05,9.68,-10.75,1
2480,39.06,-10.91,-32.21,1
2481,39.08,-10.25,1.25,1
2482,39.09,8.49,49.82,1
2483,39.11,13.96,59.15,1
2484,39.12,-9.95,6.62,1
2485,39.13,-27.26,-22.52,1
2486,39.15,-6.12,27.48,1
2487,39.16,13.63,53.22,1
2488,39.17,0.53,-5.21,1
2489,39.19,-11.48,-41.02,1
2490,39.2,-6.35,4.46,1
2491,39.21,-2.25,40.19,1
2492,39.22,2.74,28.04,1
2493,39.24,8.29,21.4,1
2494,39.25,0.12,6.81,1
2495,39.27,-5.18,-20.42,1
2496,39.28,13.26,1.14,1
2497,39.29,24.49,42.27,1
2498,39.31,3.74,35.8,1
2499,39.32,-12.23,21.52,1
2500,39.33,0.72,27.2,1
2501,39.35,15.39,12.35,1
2502,39.36,19.65,2.31,1
2503,39.37,21.59,27.73,1
2504,39.38,19.4,43.17,1
2505,39.4,18.16,22.12,1
2506,39.41,14.88,-24.23,1
2507,39.43,2.12,-49.9,1
2508,39.44,-3.5,3.96,1
2509,39.45,1.49,84.73,1
2510,39.47,-3.83,82.87,1
2511,39.48,-19.23,25.26,1
2512,39.49,-27.06,17.35,1
2513,39.51,-20.67,47.43,1
2514,39.52,-6.72,31.23,1
2515,39.53,6.13,-8.09,1
2516,39.54,9.45,12.89,1
2517,39.56,-2.57,61.47,1
2518,39.57,-16.34,53.04,1
2519,39.59,-16.28,4.62,1
2520,39.6,-16.14,-21.89,1
2521,39.61,-25.6,-24.08,1
2522,39.63,-25.09,-8.56,1
2523,39.64,-5.31,21.31,1
2524,39.65,8.19,15.07,1
2525,39.67,1.07,-23.32,1
2526,39.68,-4.59,-19.93,1
2527,39.69,-0.56,17.71,1
2528,39.71,1.66,29.28,1
2529,39.72,1.65,5.14,1
2530,39.73,-0.92,-31.09,1
2531,39.75,-3.79,-49.74,1
2532,39.76,3.31,-29.95,1
2533,39.77,16.13,23.81,1
2534,39.79,11.71,73.48,1
2535,39.8,-12.5,56.28,1
2536,39.81,-26.44,-5.44,1
2537,39.83,-22.07,-12.5,1
2538,39.84,-13.8,13.53,1
2539,39.85,-0.97,5.2,1
2540,39.87,5.84,16.52,1
2541,39.88,-12.38,56.25,1
2542,39.89,-30.42,36.16,1
2543,39.9,-10.8,-17.1,1
2544,39.92,23.05,-17.1,1
2545,39.93,25.7,1.31,1
2546,39.95,10.1,-3.69,1
2547,39.96,7.18,6.78,1
2548,39.97,10.9,30.57,1
2549,39.99,14.98,24.67,1
2550,40.0,14.98,-11.15,1
2551,40.01,0.04,-37.7,1
2552,40.03,-7.44,2.01,1
2553,40.04,9.58,72.46,1
2554,40.05,16.39,43.57,1
2555,40.065,0.1,-51.14,1
2556,40.08,-7.69,-51.36,1
2557,40.09,-4.61,7.9,1
2558,40.11,-11.43,-14.3,1
2559,40.12,-20.05,-71.27,1
2560,40.13,-13.74,-39.08,1
2561,40.15,6.27,39.19,1
2562,40.16,17.75,57.62,0
2563,40.17,0.82,28.16,0
2564,40.19,-11.53,3.43,0
2565,40.2,12.14,-37.48,0
2566,40.21,28.75,-111.92,0
2567,40.22,7.74,-166.19,0
2568,40.24,-5.96,-168.35,0
2569,40.25,13.91,-146.81,0
2570,40.27,28.17,-136.2,0
2571,40.28,16.94,-149.84,0
2572,40.29,11.34,-155.45,0
2573,40.31,19.74,-113.9,0
2574,40.32,22.91,-45.02,0
2575,40.33,24.63,11.17,0
2576,40.35,22.43,45.08,0
2577,40.36,0.24,60.23,0
2578,40.37,-20.46,65.55,0
2579,40.38,-17.68,80.65,0
2580,40.4,-11.95,98.85,0
2581,40.41,-10.5,83.15,0
2582,40.43,-0.96,40.01,0
2583,40.44,3.92,15.4,0
2584,40.45,-2.91,12.99,0
2585,40.47,-2.47,4.07,0
2586,40.48,6.08,-3.77,0
2587,40.49,5.33,16.85,0
2588,40.51,-1.72,54.93,0
2589,40.52,0.55,75.32,0
2590,40.53,3.9,72.54,0
2591,40.54,-8.05,68.19,0
2592,40.56,-22.12,69.95,1
2593,40.57,-16.31,69.46,1
2594,40.59,0.79,67.52,1
2595,40.6,0.77,72.48,1
2596,40.61,-19.88,77.53,1
2597,40.63,-32.29,68.01,1
2598,40.64,-24.3,52.57,1
2599,40.65,-14.49,51.72,1
2600,40.67,-8.01,60.34,1
2601,40.68,2.91,57.81,1
2602,40.69,1.71,42.8,1
2603,40.71,-18.05,30.25,1
2604,40.72,-22.49,30.07,1
2605,40.73,0.32,40.55,1
2606,40.75,17.1,49.74,1
2607,40.76,11.94,49.38,1
2608,40.77,0.23,43.14,1
2609,40.79,-6.31,38.21,1
2610,40.8,-4.11,38.47,1
2611,40.81,3.75,39.33,1
2612,40.83,8.87,34.56,1
2613,40.84,10.43,25.58,1
2614,40.85,11.37,19.94,1
2615,40.87,10.35,24.11,1
2616,40.88,7.53,28.58,1
2617,40.89,3.54,20.49,1
2618,40.9,-2.18,7.53,1
2619,40.92,-7.5,0.54,1
2620,40.93,-8.12,-2.58,1
2621,40.95,-0.14,-9.54,1
2622,40.96,8.0,-20.18,1
2623,40.97,0.69,-21.53,1
2624,40.99,-11.21,-13.23,1
2625,41.0,-7.1,-13.68,1
2626,41.01,-0.04,-22.18,1
2627,41.03,-4.66,-21.67,1
2628,41.04,-3.7,-15.58,1
2629,41.05,6.55,-14.27,1
2630,41.06,6.16,-19.18,1
2631,41.08,-2.69,-31.99,1
2632,41.09,-7.68,-44.09,1
2633,41.11,-12.5,-39.91,1
2634,41.12,-15.02,-26.0,1
2635,41.13,-6.13,-26.66,1
2636,41.15,4.94,-40.16,1
2637,41.16,5.88,-42.07,1
2638,41.17,3.37,-37.41,1
2639,41.19,6.06,-41.24,1
2640,41.2,9.4,-37.55,1
2641,41.21,6.16,-27.28,1
2642,41.22,-2.18,-33.27,1
2643,41.24,-5.95,-42.67,1
2644,41.25,-1.21,-39.44,1
2645,41.27,0.44,-38.67,1
2646,41.28,-5.99,-42.65,1
2647,41.29,-9.84,-40.82,1
2648,41.31,-9.18,-37.83,1
2649,41.32,-10.21,-36.39,1
2650,41.33,-5.63,-36.7,1
2651,41.35,7.89,-42.29,1
2652,41.36,13.22,-43.05,1
2653,41.37,4.5,-36.58,1
2654,41.38,-2.28,-37.5,1
2655,41.4,0.31,-41.38,1
2656,41.41,6.51,-33.64,1
2657,41.43,8.0,-22.7,1
2658,41.44,4.16,-21.33,1
2659,41.45,3.98,-26.74,1
2660,41.47,7.43,-34.34,1
2661,41.48,5.89,-37.67,1
2662,41.49,3.23,-28.14,1
2663,41.51,6.42,-14.02,1
2664,41.52,9.01,-13.03,1
2665,41.53,7.03,-21.9,1
2666,41.54,4.76,-22.63,1
2667,41.56,-0.89,-18.11,1
2668,41.57,-6.99,-23.92,1
2669,41.59,-1.73,-29.66,1
2670,41.6,8.12,-19.35,1
2671,41.61,7.99,-11.48,1
2672,41.63,3.11,-23.2,1
2673,41.64,2.83,-28.74,1
2674,41.65,2.6,-9.08,1
2675,41.67,-0.42,4.92,1
2676,41.68,3.6,-10.65,1
2677,41.69,15.58,-27.21,1
2678,41.71,20.44,-17.35,1
2679,41.72,14.56,0.27,1
2680,41.73,9.34,1.31,1
2681,41.75,5.53,-8.87,1
2682,41.76,1.62,-11.85,1
2683,41.77,6.08,-3.01,1
2684,41.79,12.76,2.08,1
2685,41.8,6.87,-1.73,1
2686,41.81,-3.98,4.06,1
2687,41.83,-3.92,15.8,1
2688,41.84,1.39,8.17,1
2689,41.85,-2.84,-8.49,1
2690,41.87,-11.12,-8.09,1
2691,41.88,-9.75,0.05,1
2692,41.89,-3.28,-2.93,1
2693,41.9,0.18,-10.49,1
2694,41.92,1.5,-6.77,1
2695,41.93,-0.53,9.21,1
2696,41.95,-3.31,21.62,1
2697,41.96,-6.06,17.82,1
2698,41.97,-14.44,4.43,1
2699,41.99,-16.03,-4.3,1
2700,42.0,0.55,-4.66,1
2701,42.01,13.18,-2.44,1
2702,42.03,4.61,-1.0,1
2703,42.04,-5.32,-0.66,1
2704,42.05,0.16,-0.42,1
2705,42.06,3.22,6.45,1
2706,42.08,-4.92,19.8,1
2707,42.09,-7.17,23.09,1
2708,42.11,-6.84,10.52,1
2709,42.12,-15.64,3.4,1
2710,42.13,-19.2,19.06,1
2711,42.15,-9.27,38.9,1
2712,42.16,1.8,35.08,0
2713,42.17,7.35,16.67,0
2714,42.19,10.09,9.17,0
2715,42.2,8.41,9.37,0
2716,42.21,-0.85,-7.98,0
2717,42.22,-7.96,-52.34,0
2718,42.24,-2.39,-96.44,0
2719,42.25,8.44,-106.62,0
2720,42.27,13.31,-97.82,0
2721,42.28,14.19,-113.88,0
2722,42.29,19.77,-150.57,0
2723,42.31,30.17,-162.84,0
2724,42.32,30.23,-144.84,0
2725,42.33,9.99,-126.09,0
2726,42.35,-17.21,-103.89,0
2727,42.36,-28.8,-59.53,0
2728,42.37,-17.82,-5.28,0
2729,42.38,-4.03,32.32,0
2730,42.4,-7.87,48.5,0
2731,42.41,-17.52,66.02,0
2732,42.43,-17.37,97.32,0
2733,42.44,-18.63,127.0,0
2734,42.45,-25.48,149.82,0
2735,42.47,-20.79,170.67,0
2736,42.48,-3.4,180.34,0
2737,42.49,0.69,177.81,0
2738,42.51,-20.54,182.36,0
2739,42.52,-42.3,195.55,0
2740,42.53,-38.45,192.63,0
2741,42.54,-13.52,164.91,0
2742,42.56,13.54,128.9,1
2743,42.57,33.19,110.05,1
2744,42.59,36.27,123.37,1
2745,42.6,17.25,139.64,1
2746,42.61,-5.93,124.78,1
2747,42.63,-20.17,99.56,1
2748,42.64,-27.94,84.01,1
2749,42.65,-11.86,56.77,1
2750,42.66,30.22,12.98,1
2751,42.68,44.27,-18.83,1
2752,42.69,5.99,-18.54,1
2753,42.71,-23.49,13.92,1
2754,42.72,-7.91,56.6,1
2755,42.73,17.43,69.16,1
2756,42.75,24.84,41.91,1
2757,42.76,8.19,15.06,1
2758,42.77,-17.77,15.58,1
2759,42.79,-8.84,21.7,1
2760,42.8,37.14,13.61,1
2761,42.81,51.02,1.24,1
2762,42.83,3.26,-6.02,1
2763,42.84,-34.1,-7.34,1
2764,42.85,-13.38,-6.36,1
2765,42.87,17.48,-10.23,1
2766,42.88,19.11,-16.66,1
2767,42.89,2.75,-22.68,1
2768,42.9,-18.37,-31.28,1
2769,42.92,-30.86,-37.35,1
2770,42.93,-29.17,-36.37,1
2771,42.95,-22.63,-35.77,1
2772,42.96,-7.92,-41.15,1
2773,42.97,14.74,-48.78,1
2774,42.99,23.3,-50.73,1
2775,43.0,12.55,-44.65,1
2776,43.01,4.02,-41.63,1
2777,43.03,5.72,-49.41,1
2778,43.04,5.22,-56.19,1
2779,43.05,2.17,-51.1,1
2780,43.06,1.09,-46.34,1
2781,43.08,-4.5,-53.07,1
2782,43.09,-11.41,-58.31,1
2783,43.11,-9.83,-52.53,1
2784,43.12,-3.44,-49.12,1
2785,43.13,2.07,-57.63,1
2786,43.15,9.34,-62.41,1
2787,43.16,13.19,-49.98,1
2788,43.17,4.56,-38.49,1
2789,43.19,-5.29,-46.09,1
2790,43.2,-2.89,-59.58,1
2791,43.21,-2.12,-60.39,1
2792,43.22,-15.87,-53.21,1
2793,43.24,-21.45,-50.4,1
2794,43.25,0.61,-47.78,1
2795,43.27,22.28,-39.41,1
2796,43.28,13.74,-36.99,1
2797,43.29,-8.99,-44.1,1
2798,43.3,-17.33,-45.02,1
2799,43.32,-5.81,-37.52,1
2800,43.33,7.11,-33.55,1
2801,43.35,6.99,-39.29,1
2802,43.36,5.56,-50.42,1
2803,43.37,8.25,-51.74,1
2804,43.38,-1.37,-37.41,1
2805,43.4,-14.98,-22.29,1
2806,43.41,-1.36,-19.34,1
2807,43.43,28.03,-24.74,1
2808,43.44,30.82,-26.66,1
2809,43.45,9.12,-19.92,1
2810,43.47,-4.34,-9.73,1
2811,43.48,-5.15,-2.51,1
2812,43.49,-2.68,-0.13,1
2813,43.51,5.49,-1.71,1
2814,43.52,14.16,-2.64,1
2815,43.53,9.32,-3.52,1
2816,43.54,-2.8,-6.58,1
2817,43.56,-2.69,-5.65,1
2818,43.57,6.26,-6.28,1
2819,43.59,3.55,-18.94,1
2820,43.6,-3.93,-25.59,1
2821,43.61,5.27,-9.86,1
2822,43.63,15.45,5.22,1
2823,43.64,2.86,-2.69,1
2824,43.65,-13.6,-16.01,1
2825,43.67,-9.34,-10.38,1
2826,43.68,1.86,5.8,1
2827,43.69,-0.53,12.08,1
2828,43.71,-5.25,9.64,1
2829,43.72,0.05,13.97,1
2830,43.73,1.57,24.1,1
2831,43.75,-4.93,21.7,1
2832,43.76,-5.94,10.01,1
2833,43.77,-2.66,11.32,1
2834,43.79,-2.67,20.0,1
2835,43.8,-5.04,17.34,1
2836,43.81,-7.52,12.99,1
2837,43.83,-4.85,20.82,1
2838,43.84,2.81,26.24,1
2839,43.85,4.76,17.46,1
2840,43.87,-0.92,11.54,1
2841,43.88,-7.26,17.09,1
2842,43.89,-13.46,19.95,1
2843,43.9,-16.98,19.31,1
2844,43.92,-8.33,23.13,1
2845,43.93,9.03,24.44,1
2846,43.94,17.73,19.32,1
2847,43.96,8.59,17.95,1
2848,43.97,-3.56,22.57,1
2849,43.99,-0.39,25.28,1
2850,44.0,6.12,22.42,1
2851,44.01,2.91,16.26,1
2852,44.03,5.05,13.36,1
2853,44.04,10.18,17.79,1
2854,44.05,-4.37,22.65,1
2855,44.06,-20.9,18.62,1
2856,44.08,-11.17,9.27,1
2857,44.09,4.35,6.59,1
2858,44.11,5.91,12.37,1
2859,44.12,6.35,19.69,1
2860,44.13,8.27,25.42,1
2861,44.15,2.11,29.28,1
2862,44.16,-6.29,27.16,2
2863,44.17,0.0,15.56,2
2864,44.19,17.17,11.54,2
2865,44.2,15.69,49.59,2
2866,44.21,-3.31,136.31,2
2867,44.22,-8.53,234.44,2
2868,44.24,-3.29,302.19,2
2869,44.25,-5.99,323.89,2
2870,44.27,-5.63,294.02,2
2871,44.28,3.73,203.55,2
2872,44.29,4.11,78.22,2
2873,44.31,-11.75,-20.34,2
2874,44.32,-26.82,-64.41,2
2875,44.33,-26.0,-83.63,2
2876,44.35,-14.42,-114.03,2
2877,44.36,-0.13,-153.18,2
2878,44.37,14.71,-177.79,2
2879,44.38,17.83,-179.71,2
2880,44.4,2.82,-165.51,2
2881,44.41,-11.64,-147.98,2
2882,44.43,-11.89,-132.27,2
2883,44.44,-5.86,-111.25,2
2884,44.45,-1.9,-92.45,2
2885,44.47,-3.29,-89.86,2
2886,44.48,-5.57,-94.37,2
2887,44.49,-3.39,-92.83,2
2888,44.51,-1.24,-87.14,2
2889,44.52,2.03,-83.54,2
2890,44.53,13.27,-77.75,2
2891,44.54,24.72,-59.28,2
2892,44.56,20.44,-36.33,1
2893,44.57,1.54,-30.75,1
2894,44.58,-13.35,-43.28,1
2895,44.6,-12.6,-51.1,1
2896,44.61,-3.39,-39.41,1
2897,44.625,0.46,-22.63,1
2898,44.64,-2.75,-23.6,1
2899,44.65,-6.17,-29.54,1
2900,44.67,-4.48,-18.37,1
2901,44.68,7.05,-4.01,1
2902,44.69,21.46,-1.3,1
2903,44.71,21.14,0.46,1
2904,44.72,3.48,3.44,1
2905,44.73,-11.77,-1.12,1
2906,44.75,-6.34,-3.34,1
2907,44.76,9.49,8.1,1
2908,44.77,13.7,15.96,1
2909,44.79,10.56,11.14,1
2910,44.8,13.1,15.61,1
2911,44.81,13.91,33.38,1
2912,44.83,4.68,41.3,1
2913,44.84,-5.72,31.72,1
2914,44.85,-6.04,17.87,1
2915,44.87,3.53,14.79,1
2916,44.88,15.24,24.97,1
2917,44.89,16.38,32.08,1
2918,44.9,1.55,26.79,1
2919,44.92,-13.11,23.33,1
2920,44.93,-13.98,30.81,1
2921,44.95,-3.02,37.22,1
2922,44.96,12.01,32.53,1
2923,44.97,15.72,26.09,1
2924,44.99,5.88,29.54,1
2925,45.0,1.77,37.81,1
2926,45.01,4.9,41.42,1
2927,45.03,1.37,35.81,1
2928,45.04,-7.08,24.12,1
2929,45.05,-10.67,23.59,1
2930,45.06,-4.41,38.13,1
2931,45.08,3.72,40.32,1
2932,45.09,-2.59,22.05,1
2933,45.11,-16.13,11.56,1
2934,45.12,-17.8,16.55,1
2935,45.13,-13.82,22.05,1
2936,45.15,-15.5,27.16,1
2937,45.16,-9.54,31.75,1
2938,45.17,10.0,29.64,1
2939,45.19,19.58,25.74,1
2940,45.2,5.9,25.22,1
2941,45.21,-12.81,20.42,1
2942,45.22,-18.02,11.11,1
2943,45.24,-13.88,9.84,1
2944,45.25,-9.03,18.04,1
2945,45.26,-2.76,25.24,1
2946,45.28,3.3,27.35,1
2947,45.29,0.95,24.51,1
2948,45.31,-6.33,15.5,1
2949,45.32,-2.75,2.51,1
2950,45.33,10.29,-3.64,1
2951,45.35,8.81,5.19,1
2952,45.36,-10.48,16.2,1
2953,45.37,-20.22,12.35,1
2954,45.38,-9.94,2.72,1
2955,45.4,2.1,3.16,1
2956,45.41,5.09,9.08,1
2957,45.43,0.44,11.37,1
2958,45.44,-9.63,7.66,1
2959,45.45,-18.09,4.36,1
2960,45.47,-17.42,9.53,1
2961,45.48,-9.02,12.15,1
2962,45.49,-1.48,-0.98,1
2963,45.51,-0.77,-13.34,1
2964,45.52,-2.08,-6.45,1
2965,45.53,0.69,2.8,1
2966,45.54,1.68,-6.05,1
2967,45.56,-2.58,-17.86,1
2968,45.57,-1.89,-15.94,1
2969,45.59,4.0,-10.99,1
2970,45.6,6.46,-8.3,1
2971,45.61,10.67,-2.05,1
2972,45.63,17.04,4.39,1
2973,45.64,14.19,9.09,1
2974,45.65,8.15,13.04,1
2975,45.67,10.53,7.22,1
2976,45.68,12.67,-11.06,1
2977,45.69,6.0,-25.11,1
2978,45.71,-3.36,-24.83,1
2979,45.72,-8.13,-15.84,1
2980,45.73,-5.22,-4.93,1
2981,45.75,3.83,-0.2,1
2982,45.76,10.88,-3.67,1
2983,45.77,9.35,-6.37,1
2984,45.79,2.98,-9.58,1
2985,45.8,0.6,-22.88,1
2986,45.81,-0.35,-32.62,1
2987,45.83,-5.34,-22.34,1
2988,45.84,-7.1,-8.84,1
2989,45.85,-0.49,-7.36,1
2990,45.86,10.71,-5.41,1
2991,45.88,19.66,0.61,1
2992,45.89,18.25,-1.84,1
2993,45.9,7.16,-8.46,1
2994,45.92,-4.35,-9.8,1
2995,45.93,-8.94,-8.83,1
2996,45.95,-2.75,-6.9,1
2997,45.96,8.38,-7.9,1
2998,45.97,8.59,-15.67,1
2999,45.99,-2.28,-20.79,1
3000,46.0,-5.81,-18.63,1
3001,46.01,-1.41,-12.41,1
3002,46.03,-4.05,-5.85,1
3003,46.04,-8.76,-10.24,1
3004,46.05,-7.25,-21.57,1
3005,46.06,-7.68,-19.54,1
3006,46.08,-8.58,-7.05,1
3007,46.09,-2.78,4.27,1
3008,46.11,0.41,10.79,1
3009,46.12,-1.75,2.15,1
3010,46.13,-0.09,-16.69,1
3011,46.15,-0.11,-22.14,1
3012,46.16,-5.38,-14.33,2
3013,46.17,-2.88,-14.11,2
3014,46.19,7.42,-26.9,2
3015,46.2,11.52,-34.65,2
3016,46.21,5.41,-9.08,2
3017,46.22,-3.8,48.1,2
3018,46.24,-10.29,92.04,2
3019,46.25,-12.65,126.75,2
3020,46.27,0.02,187.14,2
3021,46.28,31.51,204.36,2
3022,46.29,47.43,124.81,2
3023,46.31,23.74,29.83,2
3024,46.32,-8.13,-32.98,2
3025,46.33,-15.77,-82.74,2
3026,46.35,-2.33,-108.61,2
3027,46.36,8.39,-110.82,2
3028,46.37,-5.68,-91.57,2
3029,46.38,-24.11,-36.41,2
3030,46.4,-15.81,-4.88,2
3031,46.41,-2.11,-76.8,2
3032,46.43,-6.99,-149.73,2
3033,46.44,-11.27,-79.63,2
3034,46.45,-3.17,17.02,2
3035,46.47,0.55,-0.79,2
3036,46.48,-5.56,-33.68,2
3037,46.49,-12.38,2.81,2
3038,46.5,-18.03,36.61,2
3039,46.52,-17.22,11.79,2
3040,46.53,-0.72,-23.96,2
3041,46.54,15.61,-6.06,2
3042,46.56,9.89,36.92,1
3043,46.57,-1.67,27.02,1
3044,46.59,3.18,-30.94,1
3045,46.6,7.85,-66.75,1
3046,46.61,-1.13,-57.75,1
3047,46.63,-5.06,-43.68,1
3048,46.64,-1.27,-45.06,1
3049,46.65,-4.18,-34.44,1
3050,46.67,-7.0,-16.56,1
3051,46.68,-0.25,-37.51,1
3052,46.69,6.67,-79.59,1
3053,46.71,4.78,-67.87,1
3054,46.72,-0.32,-8.36,1
3055,46.73,-2.39,10.75,1
3056,46.75,-1.7,-19.82,1
3057,46.76,6.13,-17.31,1
3058,46.77,22.7,24.05,1
3059,46.79,31.79,21.42,1
3060,46.8,19.52,-19.29,1
3061,46.81,0.65,-25.2,1
3062,46.83,-4.77,-26.62,1
3063,46.84,1.74,-58.3,1
3064,46.85,10.92,-42.04,1
3065,46.87,12.48,26.65,1
3066,46.88,0.79,46.68,1
3067,46.89,-11.45,23.58,1
3068,46.9,-10.42,25.84,1
3069,46.92,-3.71,34.42,1
3070,46.93,-2.21,17.77,1
3071,46.95,-2.09,-8.25,1
3072,46.96,2.43,-25.23,1
3073,46.97,1.5,-10.53,1
3074,46.99,-15.21,27.93,1
3075,47.0,-25.73,34.7,1
3076,47.01,-10.92,6.82,1
3077,47.03,2.77,4.72,1
3078,47.04,-1.46,30.77,1
3079,47.05,-6.65,26.31,1
3080,47.06,-9.36,2.54,1
3081,47.08,-9.16,21.05,1
3082,47.09,2.02,38.8,1
3083,47.11,9.79,-10.99,1
3084,47.12,3.74,-45.93,1
3085,47.13,4.91,11.78,1
3086,47.14,13.12,72.55,1
3087,47.16,0.24,62.58,1
3088,47.17,-17.99,46.96,1
3089,47.18,-8.41,58.29,1
3090,47.2,7.71,31.31,1
3091,47.21,5.06,-24.59,1
3092,47.22,-1.45,-28.14,1
3093,47.24,1.74,8.97,1
3094,47.25,5.96,27.33,1
3095,47.27,1.66,30.8,1
3096,47.28,-5.95,33.33,1
3097,47.29,-10.03,17.06,1
3098,47.31,-10.03,-16.73,1
3099,47.32,-4.27,-40.24,1
3100,47.33,-0.67,-27.9,1
3101,47.35,-8.65,12.27,1
3102,47.36,-14.75,36.03,1
3103,47.37,-5.19,25.03,1
3104,47.38,5.64,3.01,1
3105,47.4,0.69,-3.78,1
3106,47.41,-10.36,5.43,1
3107,47.43,-9.2,1.88,1
3108,47.44,2.49,-13.41,1
3109,47.45,10.58,1.39,1
3110,47.47,9.96,41.98,1
3111,47.48,7.31,43.53,1
3112,47.49,9.35,-11.69,1
3113,47.51,10.94,-40.21,1
3114,47.52,0.87,5.32,1
3115,47.53,-9.33,46.63,1
3116,47.54,-0.3,21.31,1
3117,47.56,10.15,-22.68,1
3118,47.57,4.28,-15.88,1
3119,47.59,2.44,24.22,1
3120,47.6,12.11,25.2,1
3121,47.61,11.03,-1.24,1
3122,47.63,-2.79,13.32,1
3123,47.64,-2.58,33.85,1
3124,47.65,15.44,-2.69,1
3125,47.67,21.87,-35.97,1
3126,47.68,8.7,-11.14,1
3127,47.69,2.2,18.51,1
3128,47.71,8.64,23.88,1
3129,47.72,6.99,23.54,1
3130,47.73,-1.74,3.98,1
3131,47.75,-2.14,-21.33,1
3132,47.76,2.48,-11.05,1
3133,47.77,12.07,9.16,1
3134,47.78,22.26,2.98,1
3135,47.8,11.47,-3.17,1
3136,47.81,-8.82,10.94,1
3137,47.82,-8.35,26.97,1
3138,47.84,0.65,28.15,1
3139,47.85,-3.9,9.71,1
3140,47.86,-11.94,-16.56,1
3141,47.88,-12.8,-19.24,1
3142,47.89,-11.17,12.07,1
3143,47.9,-9.86,34.09,1
3144,47.92,-12.28,5.75,1
3145,47.93,-18.12,-29.42,1
3146,47.95,-13.67,-3.9,1
3147,47.96,1.03,48.15,1
3148,47.97,7.84,44.81,1
3149,47.99,2.03,-9.69,1
3150,48.0,-10.24,-36.73,1
3151,48.01,-20.58,-7.31,1
3152,48.03,-20.47,24.57,1
3153,48.04,-10.4,21.49,1
3154,48.05,2.08,3.62,1
3155,48.06,4.51,-5.34,1
3156,48.08,-2.71,-12.94,1
3157,48.09,-3.13,-34.61,1
3158,48.11,2.71,-47.33,1
3159,48.12,6.09,-15.29,1
3160,48.13,12.38,30.94,1
3161,48.15,18.4,32.33,1
3162,48.16,9.64,-0.29,0
3163,48.17,-9.28,-22.37,0
3164,48.19,-13.31,-29.33,0
3165,48.2,4.14,-35.72,0
3166,48.21,18.89,-26.41,0
3167,48.22,15.72,6.16,0
3168,48.24,6.97,12.07,0
3169,48.25,5.87,-31.45,0
3170,48.27,7.65,-73.3,0
3171,48.28,4.57,-92.26,0
3172,48.29,0.02,-118.2,0
3173,48.31,-7.58,-154.11,0
3174,48.32,-16.43,-173.49,0
3175,48.33,-9.73,-160.63,0
3176,48.35,8.59,-119.11,0
3177,48.36,13.89,-72.99,0
3178,48.37,6.01,-49.56,0
3179,48.38,2.99,-37.15,0
3180,48.4,4.9,-8.14,0
3181,48.41,1.61,20.12,0
3182,48.42,0.43,31.51,0
3183,48.44,4.49,53.36,0
3184,48.45,-0.2,86.18,0
3185,48.46,-8.55,95.65,0
3186,48.48,-4.89,84.41,0
3187,48.49,-0.61,83.65,0
3188,48.5,-5.15,99.3,0
3189,48.52,-3.73,111.23,0
3190,48.53,2.09,103.35,0
3191,48.54,0.92,86.82,0
3192,48.56,1.65,79.34,1
3193,48.57,1.52,70.46,1
3194,48.59,-13.33,52.77,1
3195,48.6,-28.39,47.08,1
3196,48.61,-23.03,56.93,1
3197,48.63,-5.58,59.51,1
3198,48.64,3.91,50.73,1
3199,48.65,4.95,47.94,1
3200,48.67,9.1,53.86,1
3201,48.68,13.86,54.27,1
3202,48.69,8.1,47.97,1
3203,48.71,-2.96,40.02,1
3204,48.72,-3.33,29.07,1
3205,48.73,2.25,20.04,1
3206,48.75,-2.53,11.64,1
3207,48.76,-11.23,5.42,1
3208,48.77,-9.54,20.47,1
3209,48.79,-3.45,42.65,1
3210,48.8,-2.73,36.91,1
3211,48.81,-4.96,17.02,1
3212,48.83,-4.62,11.35,1
3213,48.84,1.57,14.33,1
3214,48.85,5.75,16.28,1
3215,48.87,-2.18,14.12,1
3216,48.88,-10.11,4.7,1
3217,48.89,-5.0,-4.42,1
3218,48.9,5.65,-7.7,1
3219,48.92,13.0,-10.87,1
3220,48.93,10.85,-11.92,1
3221,48.95,-3.85,-10.44,1
3222,48.96,-12.59,-13.78,1
3223,48.97,0.21,-11.21,1
3224,48.99,12.36,1.38,1
3225,49.0,0.91,-0.45,1
3226,49.01,-15.54,-17.94,1
3227,49.03,-9.03,-24.12,1
3228,49.04,8.0,-20.33,1
3229,49.05,6.04,-25.87,1
3230,49.06,-7.33,-35.56,1
3231,49.08,-6.53,-33.99,1
3232,49.09,1.2,-23.07,1
3233,49.1,1.19,-17.74,1
3234,49.12,1.61,-23.83,1
3235,49.13,3.08,-27.61,1
3236,49.14,0.06,-21.17,1
3237,49.16,0.42,-22.67,1
3238,49.17,3.2,-37.95,1
3239,49.19,1.57,-41.28,1
3240,49.2,1.25,-31.15,1
3241,49.21,1.53,-34.56,1
3242,49.22,-6.58,-44.66,1
3243,49.24,-13.25,-37.25,1
3244,49.25,-2.18,-24.83,1
3245,49.27,18.74,-31.27,1
3246,49.28,27.7,-44.43,1
3247,49.29,20.71,-36.85,1
3248,49.31,13.03,-17.52,1
3249,49.32,10.56,-13.84,1
3250,49.33,3.49,-22.7,1
3251,49.35,-11.0,-27.82,1
3252,49.36,-19.3,-25.76,1
3253,49.37,-10.81,-22.62,1
3254,49.38,1.68,-27.81,1
3255,49.4,2.98,-33.62,1
3256,49.41,-0.17,-25.17,1
3257,49.43,1.46,-13.41,1
3258,49.44,4.35,-10.38,1
3259,49.45,3.27,-10.2,1
3260,49.47,2.96,-15.16,1
3261,49.48,10.88,-23.12,1
3262,49.49,18.6,-15.1,1
3263,49.51,10.99,-0.77,1
3264,49.52,-3.53,-9.9,1
3265,49.53,-2.73,-27.78,1
3266,49.54,9.87,-23.91,1
3267,49.56,12.75,-9.58,1
3268,49.57,1.74,-3.72,1
3269,49.59,-11.35,-0.01,1
3270,49.6,-12.51,3.31,1
3271,49.61,-1.18,-2.75,1
3272,49.63,0.72,-7.99,1
3273,49.64,-11.76,0.62,1
3274,49.65,-13.15,6.23,1
3275,49.67,3.97,-5.7,1
3276,49.68,14.64,-18.15,1
3277,49.69,3.03,-17.29,1
3278,49.7,-11.11,-10.94,1
3279,49.72,-8.98,-7.8,1
3280,49.73,-3.12,-5.39,1
3281,49.74,-5.87,2.84,1
3282,49.76,-7.21,9.88,1
3283,49.77,4.43,4.5,1
3284,49.78,17.46,-2.96,1
3285,49.8,12.82,-2.73,1
3286,49.81,1.16,-9.86,1
3287,49.825,3.68,-21.59,1
3288,49.84,11.17,-10.55,1
3289,49.85,7.04,11.62,1
3290,49.87,-2.69,9.81,1
3291,49.88,-7.81,-3.98,1
3292,49.89,-6.11,-0.73,1
3293,49.9,0.25,8.58,1
3294,49.92,4.0,3.88,1
3295,49.93,-0.31,-2.54,1
3296,49.95,-9.14,7.48,1
3297,49.96,-15.12,22.46,1
3298,49.97,-17.08,23.49,1
3299,49.99,-16.01,13.64,1
3300,50.0,-7.45,5.97,1
3301,50.01,2.86,7.44,1
3302,50.03,1.67,15.41,1
3303,50.04,-4.9,20.1,1
3304,50.05,-5.51,16.47,1
3305,50.06,-6.46,5.7,1
3306,50.08,-12.0,-6.89,1
3307,50.09,-17.69,-8.84,1
3308,50.11,-21.43,4.72,1
3309,50.12,-17.02,20.43,1
3310,50.13,-2.89,24.69,1
3311,50.15,3.8,17.92,1
3312,50.16,-2.15,8.84,0
3313,50.17,-4.39,7.6,0
3314,50.19,-1.05,12.6,0
3315,50.2,-0.94,11.73,0
3316,50.21,1.23,3.02,0
3317,50.22,10.65,-5.27,0
3318,50.24,18.26,-13.85,0
3319,50.25,15.14,-43.7,0
3320,50.27,7.46,-96.19,0
3321,50.28,5.22,-127.8,0
3322,50.29,11.54,-124.89,0
3323,50.31,26.96,-125.26,0
3324,50.32,42.27,-138.36,0
3325,50.33,42.59,-142.53,0
3326,50.34,30.27,-129.16,0
3327,50.36,19.59,-98.12,0
3328,50.37,14.35,-54.93,0
3329,50.38,6.19,-17.24,0
3330,50.4,-10.04,4.65,0
3331,50.41,-27.42,23.14,0
3332,50.42,-31.65,48.23,0
3333,50.44,-14.76,66.79,0
3334,50.45,4.45,77.43,0
3335,50.46,2.25,97.39,0
3336,50.48,-16.26,121.91,0
3337,50.49,-31.17,142.73,0
3338,50.51,-30.2,166.33,0
3339,50.52,-19.95,181.44,0
3340,50.53,-14.93,174.06,0
3341,50.54,-6.84,159.51,0
3342,50.56,11.33,152.67,1
3343,50.57,17.85,147.45,1
3344,50.59,4.99,139.61,1
3345,50.6,-5.24,129.69,1
3346,50.61,2.14,116.12,1
3347,50.63,15.79,104.85,1
3348,50.64,13.18,96.64,1
3349,50.65,-2.06,73.22,1
3350,50.67,-3.24,31.25,1
3351,50.68,9.09,2.26,1
3352,50.69,9.09,9.13,1
3353,50.71,-6.98,33.87,1
3354,50.72,-17.62,47.1,1
3355,50.73,-14.49,40.71,1
3356,50.75,-11.58,27.04,1
3357,50.76,-13.25,19.97,1
3358,50.77,-8.44,19.57,1
3359,50.79,2.43,17.23,1
3360,50.8,4.46,7.37,1
3361,50.81,-3.01,-3.65,1
3362,50.83,-3.53,-6.39,1
3363,50.84,1.59,-9.01,1
3364,50.85,-3.7,-20.82,1
3365,50.87,-13.63,-30.6,1
3366,50.88,-13.23,-27.73,1
3367,50.89,-2.47,-21.58,1
3368,50.9,6.95,-27.76,1
3369,50.92,1.77,-41.2,1
3370,50.93,-8.7,-39.67,1
3371,50.95,-2.3,-25.85,1
3372,50.96,9.22,-23.24,1
3373,50.97,5.75,-30.68,1
3374,50.98,1.93,-36.78,1
3375,51.0,10.98,-45.8,1
3376,51.01,17.54,-54.81,1
3377,51.02,10.63,-49.45,1
3378,51.04,-0.07,-32.85,1
3379,51.05,-2.87,-28.18,1
3380,51.06,-0.14,-43.88,1
3381,51.08,0.78,-59.29,1
3382,51.09,-0.95,-56.77,1
3383,51.1,-4.25,-45.64,1
3384,51.12,-3.51,-41.8,1
3385,51.13,3.5,-43.23,1
3386,51.15,4.76,-42.15,1
3387,51.16,-2.68,-42.98,1
3388,51.17,-5.33,-47.63,1
3389,51.19,0.11,-47.26,1
3390,51.2,4.88,-40.58,1
3391,51.21,7.56,-34.75,1
3392,51.22,10.15,-33.81,1
3393,51.24,9.57,-38.61,1
3394,51.25,6.56,-45.26,1
3395,51.27,5.79,-49.48,1
3396,51.28,6.59,-46.92,1
3397,51.29,2.67,-32.57,1
3398,51.31,-1.89,-17.22,1
3399,51.32,2.67,-18.9,1
3400,51.33,9.08,-31.93,1
3401,51.35,8.78,-36.11,1
3402,51.36,6.69,-28.51,1
3403,51.37,0.28,-20.77,1
3404,51.38,-13.12,-23.43,1
3405,51.4,-17.34,-36.21,1
3406,51.41,-3.49,-37.46,1
3407,51.43,9.32,-14.29,1
3408,51.44,4.4,6.55,1
3409,51.45,-5.13,2.23,1
3410,51.47,-2.16,-12.82,1
3411,51.48,3.68,-20.79,1
3412,51.49,1.22,-21.79,1
3413,51.51,-1.23,-20.51,1
3414,51.52,-0.39,-17.48,1
3415,51.53,-2.89,-9.41,1
3416,51.54,-8.11,-1.66,1
3417,51.56,-9.85,-8.36,1
3418,51.57,-4.18,-22.62,1
3419,51.59,4.02,-20.28,1
3420,51.6,9.58,-9.22,1
3421,51.61,11.39,-15.57,1
3422,51.62,4.44,-24.69,1
3423,51.64,-9.11,-12.17,1
3424,51.65,-15.27,4.45,1
3425,51.66,-10.4,4.96,1
3426,51.68,-4.07,2.06,1
3427,51.69,-3.98,8.1,1
3428,51.7,-5.74,13.82,1
3429,51.72,1.29,11.4,1
3430,51.73,3.51,9.92,1
3431,51.74,-14.32,13.56,1
3432,51.76,-20.92,8.33,1
3433,51.77,1.81,-9.25,1
3434,51.79,17.16,-17.27,1
3435,51.8,11.03,-3.53,1
3436,51.81,6.23,13.33,1
3437,51.83,3.07,13.64,1
3438,51.84,-6.12,3.57,1
3439,51.85,-8.53,-1.16,1
3440,51.87,-1.65,-0.85,1
3441,51.88,2.04,0.37,1
3442,51.89,2.12,10.02,1
3443,51.9,5.76,22.6,1
3444,51.92,11.77,21.14,1
3445,51.93,10.74,12.87,1
3446,51.95,1.03,16.39,1
3447,51.96,-6.51,25.9,1
3448,51.97,-9.43,26.14,1
3449,51.99,-12.68,22.04,1
3450,52.0,-7.63,27.22,1
3451,52.01,10.85,38.88,1
3452,52.03,22.93,41.8,1
3453,52.04,15.54,32.05,1
3454,52.05,6.97,21.87,1
3455,52.06,8.46,22.58,1
3456,52.08,8.09,29.01,1
3457,52.09,0.77,23.57,1
3458,52.11,-6.11,3.07,1
3459,52.12,-1.64,-7.12,1
3460,52.13,11.7,8.86,1
3461,52.15,11.35,27.45,1
3462,52.16,-7.75,30.06,2
3463,52.17,-19.32,30.72,2
3464,52.19,-10.87,33.27,2
3465,52.2,0.59,23.31,2
3466,52.21,6.1,8.93,2
3467,52.22,13.77,10.85,2
3468,52.24,18.25,19.98,2
3469,52.25,5.81,15.25,2
3470,52.26,-11.26,12.49,2
3471,52.28,-9.57,53.98,2
3472,52.29,5.96,151.51,2
3473,52.3,7.89,255.29,2
3474,52.32,-12.89,310.46,2
3475,52.33,-25.67,315.84,2
3476,52.34,-5.75,278.6,2
3477,52.36,19.09,196.42,2
3478,52.37,18.23,104.67,2
3479,52.38,4.59,36.54,2
3480,52.4,-2.08,-22.33,2
3481,52.41,-0.02,-86.02,2
3482,52.43,2.89,-138.67,2
3483,52.44,-3.54,-166.65,2
3484,52.45,-15.74,-177.2,2
3485,52.47,-18.35,-179.65,2
3486,52.48,-8.0,-174.21,2
3487,52.49,1.85,-161.95,2
3488,52.51,-0.69,-150.53,2
3489,52.52,-10.03,-146.06,2
3490,52.53,-10.98,-144.61,2
3491,52.54,-2.0,-135.42,2
3492,52.56,0.43,-109.8,1
3493,52.57,-7.5,-67.44,1
3494,52.59,-5.48,-29.88,1
3495,52.6,7.89,-30.67,1
3496,52.61,15.58,-67.01,1
3497,52.63,21.73,-92.96,1
3498,52.64,25.22,-85.67,1
3499,52.65,12.9,-69.17,1
3500,52.67,-0.5,-65.62,1
3501,52.68,-3.49,-65.35,1
3502,52.69,-5.61,-52.78,1
3503,52.71,-4.33,-36.2,1
3504,52.72,-1.93,-28.18,1
3505,52.73,-8.1,-23.05,1
3506,52.75,-6.66,-18.88,1
3507,52.76,12.43,-17.24,1
3508,52.77,20.42,-10.59,1
3509,52.79,2.59,1.0,1
3510,52.8,-12.44,7.95,1
3511,52.81,-3.58,7.08,1
3512,52.83,8.51,2.97,1
3513,52.84,-2.07,1.08,1
3514,52.85,-21.81,1.96,1
3515,52.87,-18.42,5.16,1
3516,52.88,3.22,8.72,1
3517,52.89,11.06,12.37,1
3518,52.9,-1.11,21.89,1
3519,52.92,-8.84,29.86,1
3520,52.93,-1.75,22.75,1
3521,52.94,1.8,10.17,1
3522,52.96,-6.69,9.29,1
3523,52.97,-7.38,16.9,1
3524,52.98,3.75,19.12,1
3525,53.0,4.66,17.92,1
3526,53.01,-3.6,26.36,1
3527,53.02,-1.16,41.83,1
3528,53.04,6.74,50.73,1
3529,53.05,0.7,43.13,1
3530,53.06,-13.79,19.67,1
3531,53.08,-12.12,2.73,1
3532,53.09,6.71,12.69,1
3533,53.11,18.02,33.47,1
3534,53.12,12.07,38.3,1
3535,53.13,2.34,33.08,1
3536,53.15,-3.84,37.31,1
3537,53.16,-11.73,43.3,1
3538,53.17,-13.96,31.95,1
3539,53.19,-5.68,15.01,1
3540,53.2,-2.53,17.38,1
3541,53.21,-4.68,33.77,1
3542,53.22,-0.42,39.03,1
3543,53.24,2.97,34.94,1
3544,53.25,3.74,35.98,1
3545,53.27,9.7,32.11,1
3546,53.28,10.97,24.9,1
3547,53.29,-0.02,33.33,1
3548,53.31,-9.66,42.51,1
3549,53.32,-7.59,34.46,1
3550,53.33,-2.41,27.72,1
3551,53.35,-2.51,28.2,1
3552,53.36,-0.85,19.49,1
3553,53.37,4.32,8.83,1
3554,53.38,2.04,9.85,1
3555,53.4,-4.51,11.36,1
3556,53.41,-6.23,6.92,1
3557,53.43,-8.83,10.36,1
3558,53.44,-12.26,25.21,1
3559,53.45,-6.39,37.65,1
3560,53.47,3.73,37.8,1
3561,53.48,4.21,29.2,1
3562,53.49,-5.76,17.58,1
3563,53.51,-13.29,8.04,1
3564,53.52,-10.1,5.88,1
3565,53.53,-4.75,8.83,1
3566,53.54,-2.04,6.99,1
3567,53.56,6.52,-3.74,1
3568,53.57,16.18,-9.83,1
3569,53.58,11.43,-1.59,1
3570,53.6,-1.77,4.53,1
3571,53.61,-4.3,-0.86,1
3572,53.62,4.34,-5.33,1
3573,53.64,11.43,-5.69,1
3574,53.65,11.35,-4.9,1
3575,53.66,2.56,2.68,1
3576,53.68,-9.18,11.69,1
3577,53.69,-7.49,6.55,1
3578,53.7,5.67,-7.44,1
3579,53.72,8.1,-10.61,1
3580,53.73,-2.0,-1.76,1
3581,53.75,-7.03,6.54,1
3582,53.76,-2.14,5.88,1
3583,53.77,4.59,-7.39,1
3584,53.79,4.24,-24.17,1
3585,53.8,-3.98,-25.94,1
3586,53.81,-8.13,-14.04,1
3587,53.83,-6.27,-6.73,1
3588,53.84,-8.95,-8.44,1
3589,53.85,-11.34,-9.03,1
3590,53.87,-7.46,-9.76,1
3591,53.88,-7.12,-18.09,1
3592,53.89,-10.52,-25.75,1
3593,53.9,-6.84,-23.91,1
3594,53.92,2.31,-19.78,1
3595,53.93,7.11,-16.68,1
3596,53.95,2.4,-6.26,1
3597,53.96,-9.0,5.31,1
3598,53.97,-14.11,-0.1,1
3599,53.99,-4.06,-16.29,1
3600,54.0,8.37,-18.33,1
3601,54.01,8.84,-6.77,1
3602,54.03,4.35,-3.55,1
3603,54.04,5.02,-10.24,1
3604,54.05,9.53,-14.33,1
3605,54.06,10.54,-19.78,1
3606,54.08,-1.3,-28.39,1
3607,54.09,-17.29,-28.57,1
3608,54.11,-7.9,-22.53,1
3609,54.12,25.67,-19.02,1
3610,54.13,40.11,-11.27,1
3611,54.15,16.66,-2.2,1
3612,54.16,-8.0,-12.13,2
3613,54.17,-3.14,-32.26,2
3614,54.18,11.19,-28.66,2
3615,54.2,10.82,-3.21,2
3616,54.21,7.35,11.03,2
3617,54.22,8.35,10.72,2
3618,54.24,0.8,31.08,2
3619,54.25,-6.02,77.46,2
3620,54.26,11.07,103.09,2
3621,54.28,36.36,98.69,2
3622,54.29,32.32,66.1,2
3623,54.3,2.84,-17.36,2
3624,54.32,-14.68,-60.54,2
3625,54.33,-13.88,3.52,2
3626,54.34,-18.46,38.76,2
3627,54.36,-25.71,-18.7,2
3628,54.37,-15.75,-67.0,2
3629,54.38,1.93,-50.57,2
3630,54.4,1.62,11.1,2
3631,54.41,-10.4,53.3,2
3632,54.43,-6.34,25.23,2
3633,54.44,4.76,-25.49,2
3634,54.45,-4.3,-48.76,2
3635,54.47,-15.95,-66.39,2
3636,54.48,-7.0,-88.12,2
3637,54.49,1.16,-88.12,2
3638,54.51,-0.99,-63.52,2
3639,54.52,8.67,-39.73,2
3640,54.53,19.42,-33.54,2
3641,54.54,4.13,-31.35,2
3642,54.56,-18.01,-7.08,1
3643,54.57,-13.95,17.27,1
3644,54.59,5.52,-26.15,1
3645,54.6,11.84,-93.51,1
3646,54.61,4.86,-58.18,1
3647,54.63,3.34,13.8,1
3648,54.64,12.04,-2.95,1
3649,54.65,16.68,-21.74,1
3650,54.67,7.98,32.89,1
3651,54.68,-1.49,68.38,1
3652,54.69,-2.51,22.48,1
3653,54.71,-13.44,-44.18,1
3654,54.72,-35.38,-51.29,1
3655,54.73,-30.74,-14.64,1
3656,54.75,-0.85,-2.81,1
3657,54.76,12.91,-10.28,1
3658,54.77,14.91,-2.38,1
3659,54.79,24.42,1.07,1
3660,54.8,24.28,-15.31,1
3661,54.81,12.35,-35.25,1
3662,54.82,8.18,-41.81,1
3663,54.84,8.74,-25.96,1
3664,54.85,4.27,-11.93,1
3665,54.86,2.09,-22.59,1
3666,54.88,7.31,-23.63,1
3667,54.89,8.2,8.08,1
3668,54.9,-4.98,31.07,1
3669,54.92,-18.74,23.41,1
3670,54.93,-12.87,19.05,1
3671,54.94,8.91,33.69,1
3672,54.96,19.23,49.7,1
3673,54.97,6.29,43.5,1
3674,54.98,-2.45,4.23,1
3675,55.0,10.14,-26.06,1
3676,55.01,18.52,-8.97,1
3677,55.025000000000006,8.51,21.05,1
3678,55.04,-5.14,36.09,1
3679,55.05,-16.37,47.81,1
3680,55.06,-24.53,47.13,1
3681,55.08,-23.15,24.63,1
3682,55.09,-13.15,17.37,1
3683,55.11,-2.87,52.28,1
3684,55.12,0.41,70.52,1
3685,55.13,-7.84,19.52,1
3686,55.15,-18.08,-32.89,1
3687,55.16,-13.72,-15.39,1
3688,55.17,4.4,23.98,1
3689,55.19,20.43,24.67,1
3690,55.2,18.43,6.85,1
3691,55.21,-0.32,4.88,1
3692,55.22,-11.63,16.52,1
3693,55.24,-1.18,23.09,1
3694,55.25,11.5,15.92,1
3695,55.27,2.5,8.06,1
3696,55.28,-16.05,22.09,1
3697,55.29,-14.16,53.24,1
3698,55.31,2.36,51.94,1
3699,55.32,5.06,-5.0,1
3700,55.33,-1.06,-43.51,1
3701,55.35,5.39,-1.82,1
3702,55.36,13.41,41.5,1
3703,55.37,-3.46,-0.7,1
3704,55.38,-27.56,-72.05,1
3705,55.4,-12.75,-86.24,1
3706,55.41,22.23,-51.93,1
3707,55.43,15.34,-11.93,1
3708,55.44,-20.58,4.42,1
3709,55.45,-24.05,-20.86,1
3710,55.46,3.13,-44.42,1
3711,55.48,13.47,-13.24,1
3712,55.49,-1.44,36.66,1
3713,55.5,-14.39,46.68,1
3714,55.52,-8.82,14.06,1
3715,55.53,6.91,-27.61,1
3716,55.54,13.48,-41.11,1
3717,55.56,5.18,-18.56,1
3718,55.57,-8.6,10.05,1
3719,55.58,-16.57,14.67,1
3720,55.6,-10.58,-5.79,1
3721,55.61,4.41,-21.64,1
3722,55.62,13.99,-10.52,1
3723,55.64,10.03,4.7,1
3724,55.65,-4.45,-2.51,1
3725,55.66,-14.6,-19.22,1
3726,55.68,-8.2,-9.42,1
3727,55.69,6.18,33.95,1
3728,55.71,8.76,56.99,1
3729,55.72,-5.09,37.31,1
3730,55.73,-16.2,31.4,1
3731,55.75,-11.97,42.79,1
3732,55.76,-1.98,6.58,1
3733,55.77,4.87,-54.6,1
3734,55.79,2.03,-49.53,1
3735,55.8,-9.82,-1.27,1
3736,55.81,-9.7,3.1,1
3737,55.83,5.38,3.24,1
3738,55.84,13.89,50.87,1
3739,55.85,13.8,64.17,1
3740,55.87,12.19,11.98,1
3741,55.88,6.74,-15.23,1
3742,55.89,5.12,7.15,1
3743,55.9,9.11,11.17,1
3744,55.92,6.09,-24.93,1
3745,55.93,4.09,-33.15,1
3746,55.95,7.7,26.0,1
3747,55.96,-2.59,67.42,1
3748,55.97,-19.82,33.73,1
3749,55.99,-17.16,11.6,1
3750,56.0,-2.69,42.79,1
3751,56.01,-0.06,33.86,1
3752,56.03,-7.04,-36.73,1
3753,56.04,-3.82,-68.03,1
3754,56.05,10.36,-25.88,1
3755,56.06,11.09,24.49,1
3756,56.08,-5.75,26.21,1
3757,56.09,-17.16,-14.19,1
3758,56.1,-18.81,-30.12,1
3759,56.12,-13.72,-2.75,1
3760,56.13,1.45,3.78,1
3761,56.14,11.59,-15.61,1
3762,56.16,8.03,-21.57,0
3763,56.17,-0.75,-48.94,0
3764,56.18,-12.64,-108.22,0
3765,56.2,-15.32,-118.68,0
3766,56.21,2.79,-50.52,0
3767,56.22,20.43,27.41,0
3768,56.24,15.31,49.35,0
3769,56.25,-3.56,16.59,0
3770,56.26,-11.9,-28.88,0
3771,56.28,4.03,-58.34,0
3772,56.29,20.5,-67.93,0
3773,56.3,6.56,-59.47,0
3774,56.32,-10.72,-40.11,0
3775,56.33,2.26,-22.08,0
3776,56.35,16.91,-19.64,0
3777,56.36,8.96,-38.79,0
3778,56.37,2.91,-52.13,0
3779,56.38,8.65,-21.29,0
3780,56.4,5.0,33.77,0
3781,56.41,-5.44,56.27,0
3782,56.43,-1.81,46.48,0
3783,56.44,12.71,43.64,0
3784,56.45,17.95,48.8,0
3785,56.47,6.85,48.9,0
3786,56.48,-5.55,52.89,0
3787,56.49,-4.66,62.56,0
3788,56.51,4.97,64.34,0
3789,56.52,12.82,58.38,0
3790,56.53,13.16,58.56,0
3791,56.54,6.75,59.83,0
3792,56.56,0.15,55.73,1
3793,56.57,-7.54,62.76,1
3794,56.59,-16.28,76.22,1
3795,56.6,-12.17,63.38,1
3796,56.61,3.15,19.95,1
3797,56.63,4.47,-16.08,1
3798,56.64,-6.14,-12.79,1
3799,56.65,2.9,13.45,1
3800,56.67,28.03,27.85,1
3801,56.68,27.88,24.63,1
3802,56.69,-2.26,21.05,1
3803,56.71,-15.59,28.38,1
3804,56.72,12.48,34.94,1
3805,56.73,45.35,30.44,1
3806,56.74,40.05,24.67,1
3807,56.76,7.55,24.21,1
3808,56.77,-16.14,28.07,1
3809,56.78,-25.84,34.86,1
3810,56.8,-34.47,32.91,1
3811,56.81,-36.46,17.12,1
3812,56.82,-30.68,11.25,1
3813,56.84,-34.45,25.89,1
3814,56.85,-20.36,29.42,1
3815,56.86,42.17,12.52,1
3816,56.88,78.84,2.64,1
3817,56.89,16.31,7.87,1
3818,56.9,-72.08,16.2,1
3819,56.92,-76.38,17.8,1
3820,56.93,-17.95,11.2,1
3821,56.94,14.56,7.09,1
3822,56.96,1.55,3.83,1
3823,56.97,-21.53,-10.04,1
3824,56.99,-28.46,-25.16,1
3825,57.0,-22.79,-32.84,1
3826,57.01,-18.18,-40.22,1
3827,57.03,-10.78,-38.71,1
3828,57.04,2.6,-21.53,1
3829,57.05,7.84,-13.0,1
3830,57.06,0.6,-23.37,1
3831,57.08,-9.73,-31.71,1
3832,57.09,-16.35,-30.45,1
3833,57.11,-13.4,-28.55,1
3834,57.12,-0.39,-27.1,1
3835,57.13,14.47,-23.68,1
3836,57.15,23.13,-24.97,1
3837,57.16,25.11,-37.67,1
3838,57.17,23.99,-49.46,1
3839,57.19,14.98,-44.81,1
3840,57.2,-0.71,-31.25,1
3841,57.21,-6.55,-25.78,1
3842,57.22,-2.72,-29.98,1
3843,57.24,-3.2,-31.47,1
3844,57.25,-3.25,-26.46,1
3845,57.27,1.99,-26.36,1
3846,57.28,3.19,-35.64,1
3847,57.29,3.15,-46.05,1
3848,57.31,10.93,-50.72,1
3849,57.32,16.48,-46.67,1
3850,57.33,10.62,-35.14,1
3851,57.35,5.0,-21.91,1
3852,57.36,8.37,-12.95,1
3853,57.37,14.33,-13.2,1
3854,57.38,16.06,-21.32,1
3855,57.4,14.48,-26.76,1
3856,57.41,12.25,-19.29,1
3857,57.42,3.96,-7.28,1
3858,57.44,-8.45,-11.65,1
3859,57.45,-3.47,-29.2,1
3860,57.46,19.27,-29.56,1
3861,57.48,29.13,-5.27,1
3862,57.49,23.03,6.18,1
3863,57.5,21.03,-14.36,1
3864,57.52,13.57,-29.5,1
3865,57.53,-10.52,-16.88,1
3866,57.54,-26.04,-4.95,1
3867,57.56,-11.88,-9.35,1
3868,57.57,9.92,-12.29,1
3869,57.58,8.11,-10.13,1
3870,57.6,-5.79,-11.91,1
3871,57.61,-4.54,-11.57,1
3872,57.63,-3.75,-5.78,1
3873,57.64,-19.8,-1.9,1
3874,57.65,-24.32,2.76,1
3875,57.67,-4.0,9.06,1
3876,57.68,13.02,7.25,1
3877,57.69,10.27,0.73,1
3878,57.71,3.06,2.14,1
3879,57.72,2.78,6.97,1
3880,57.73,0.57,1.6,1
3881,57.75,-3.86,-9.96,1
3882,57.76,2.05,-10.69,1
3883,57.77,10.3,3.98,1
3884,57.79,0.78,20.51,1
3885,57.8,-20.64,24.5,1
3886,57.81,-22.8,18.52,1
3887,57.83,3.8,14.35,1
3888,57.84,23.86,6.47,1
3889,57.85,11.86,-11.26,1
3890,57.87,-6.02,-16.19,1
3891,57.88,-2.9,-0.48,1
3892,57.89,3.85,7.85,1
3893,57.9,-6.36,0.99,1
3894,57.92,-19.5,-1.01,1
3895,57.93,-17.21,3.28,1
3896,57.95,-4.48,3.0,1
3897,57.96,2.2,7.8,1
3898,57.97,-2.29,21.33,1
3899,57.99,-1.39,21.4,1
3900,58.0,10.58,5.31,1
3901,58.01,12.67,1.4,1
3902,58.02,-1.55,16.01,1
3903,58.04,-17.09,21.4,1
3904,58.05,-21.43,4.51,1
3905,58.06,-13.66,-13.1,1
3906,58.08,-10.07,-8.74,1
3907,58.09,-19.7,9.7,1
3908,58.1,-23.19,16.09,1
3909,58.12,-11.59,8.05,1
3910,58.13,-2.8,4.35,1
3911,58.14,-3.15,5.09,1
3912,58.16,-1.42,0.57,0
3913,58.17,8.76,-0.8,0
3914,58.18,20.55,11.69,0
3915,58.2,9.91,25.74,0
3916,58.21,-17.2,15.66,0
3917,58.22,-11.23,-18.08,0
3918,58.24,17.7,-47.16,0
3919,58.25,9.0,-65.63,0
3920,58.26,-12.43,-91.98,0
3921,58.28,5.92,-118.52,0
3922,58.29,23.39,-118.15,0
3923,58.31,14.87,-100.0,0
3924,58.32,33.65,-95.6,0
3925,58.33,69.04,-99.17,0
3926,58.35,50.82,-87.66,0
3927,58.36,3.73,-67.87,0
3928,58.37,-3.71,-51.46,0
3929,58.38,10.37,-28.72,0
3930,58.4,3.04,2.08,0
3931,58.41,-18.9,21.84,0
3932,58.43,-34.03,31.9,0
3933,58.44,-31.73,53.42,0
3934,58.45,-20.85,78.05,0
3935,58.47,-13.84,86.99,0
3936,58.48,-5.82,95.15,0
3937,58.49,-7.55,117.46,0
3938,58.51,-34.55,137.94,0
3939,58.52,-54.85,139.87,0
3940,58.53,-35.68,130.99,0
3941,58.54,-8.38,131.7,0
3942,58.56,-8.9,144.8,1
3943,58.57,-16.39,151.78,1
3944,58.59,-10.0,146.84,1
3945,58.6,-7.57,140.21,1
3946,58.61,-12.95,129.14,1
3947,58.63,-5.14,108.63,1
3948,58.64,12.0,90.96,1
3949,58.65,14.91,83.46,1
3950,58.66,3.51,75.41,1
3951,58.68,-3.2,63.46,1
3952,58.69,-3.29,56.39,1
3953,58.7,-7.06,52.71,1
3954,58.72,-6.79,43.68,1
3955,58.73,3.75,29.06,1
3956,58.74,9.07,19.78,1
3957,58.76,6.2,23.76,1
3958,58.77,6.79,28.31,1
3959,58.78,7.47,17.16,1
3960,58.8,2.33,-2.48,1
3961,58.81,-0.83,-15.01,1
3962,58.82,1.31,-14.79,1
3963,58.84,2.27,-8.4,1
3964,58.85,1.91,-12.42,1
3965,58.86,4.56,-25.63,1
3966,58.88,8.84,-25.51,1
3967,58.89,14.66,-13.72,1
3968,58.9,25.84,-16.17,1
3969,58.92,31.31,-33.01,1
3970,58.93,14.66,-38.78,1
3971,58.95,-8.32,-29.22,1
3972,58.96,-7.58,-28.13,1
3973,58.97,11.22,-44.3,1
3974,58.99,17.48,-57.25,1
3975,59.0,6.14,-55.22,1
3976,59.01,1.92,-50.71,1
3977,59.03,11.17,-53.23,1
3978,59.04,13.05,-59.24,1
3979,59.05,5.3,-63.69,1
3980,59.06,8.3,-59.67,1
3981,59.08,19.75,-46.58,1
3982,59.09,14.95,-41.85,1
3983,59.11,-6.36,-52.31,1
3984,59.12,-16.75,-57.31,1
3985,59.13,-7.17,-44.86,1
3986,59.15,2.51,-32.69,1
3987,59.16,1.75,-36.75,1
3988,59.17,-0.13,-48.54,1
3989,59.19,4.82,-53.26,1
3990,59.2,15.42,-49.63,1
3991,59.21,19.27,-43.57,1
3992,59.22,7.99,-38.84,1
3993,59.24,-5.39,-41.08,1
3994,59.25,-8.66,-48.67,1
3995,59.27,-5.17,-42.72,1
3996,59.28,-0.36,-20.37,1
3997,59.29,3.86,-14.56,1
3998,59.3,5.23,-34.36,1
3999,59.32,0.11,-42.46,1
4000,59.33,-8.11,-26.82,1
4001,59.34,-8.74,-16.91,1
4002,59.36,-2.6,-25.91,1
4003,59.37,1.87,-35.29,1
4004,59.38,4.79,-30.42,1
4005,59.4,5.73,-24.14,1
4006,59.41,-2.86,-31.67,1
4007,59.42,-17.37,-40.19,1
4008,59.44,-21.6,-33.55,1
4009,59.45,-6.84,-22.16,1
4010,59.46,17.0,-24.45,1
4011,59.48,23.46,-34.62,1
4012,59.49,1.24,-31.45,1
4013,59.5,-18.17,-18.48,1
4014,59.52,-14.45,-13.97,1
4015,59.53,-10.58,-10.15,1
4016,59.54,-7.99,-0.87,1
4017,59.56,13.63,-5.2,1
4018,59.57,29.34,-17.84,1
4019,59.59,8.23,-7.36,1
4020,59.6,-21.55,22.12,1
4021,59.61,-18.91,31.21,1
4022,59.63,8.02,8.93,1
4023,59.64,19.42,-8.44,1
4024,59.65,1.07,-0.02,1
4025,59.67,-14.1,9.23,1
4026,59.68,-2.9,3.21,1
4027,59.69,3.27,-0.66,1
4028,59.71,-18.07,6.79,1
4029,59.72,-31.5,12.47,1
4030,59.73,-14.15,8.24,1
4031,59.75,6.38,2.9,1
4032,59.76,11.33,5.72,1
4033,59.77,6.7,12.59,1
4034,59.79,-2.67,16.45,1
4035,59.8,-7.28,14.22,1
4036,59.81,0.32,4.27,1
4037,59.83,10.16,-1.25,1
4038,59.84,13.49,8.77,1
4039,59.85,13.51,21.13,1
4040,59.87,9.1,22.45,1
4041,59.88,-10.41,17.94,1
4042,59.89,-35.4,15.91,1
4043,59.9,-29.68,15.35,1
4044,59.92,3.88,11.84,1
4045,59.93,14.59,8.92,1
4046,59.94,-0.24,11.23,1
4047,59.96,0.54,14.67,1
4048,59.97,8.52,16.73,1
4049,59.98,-3.2,22.07,1
4050,60.0,-12.71,31.24,1
4051,60.01,-1.19,33.3,1
4052,60.02,9.6,20.82,1
4053,60.04,5.74,12.38,1
4054,60.05,-5.02,21.18,1
4055,60.06,-15.0,26.7,1
4056,60.08,-18.68,21.6,1
4057,60.09,-15.65,22.77,1
4058,60.1,-6.82,24.65,1
4059,60.12,6.23,12.12,1
4060,60.13,11.43,1.38,1
4061,60.14,4.26,13.51,1
4062,60.16,1.62,32.96,2
4063,60.17,9.39,38.53,2
4064,60.18,6.82,34.34,2
4065,60.2,-8.74,24.9,2
4066,60.21,-11.07,11.58,2
4067,60.22,3.64,6.34,2
4068,60.24,12.61,7.97,2
4069,60.25,7.15,2.75,2
4070,60.27,-3.15,8.63,2
4071,60.28,-10.35,55.75,2
4072,60.29,-8.31,136.63,2
4073,60.31,7.93,222.52,2
4074,60.32,23.73,283.82,2
4075,60.33,12.21,302.81,2
4076,60.35,-18.91,287.13,2
4077,60.36,-30.41,229.17,2
4078,60.37,-15.83,121.56,2
4079,60.38,-6.1,19.67,2
4080,60.4,-10.78,-27.58,2
4081,60.41,-14.27,-52.85,2
4082,60.43,-14.66,-99.77,2
4083,60.44,-14.98,-149.19,2
4084,60.45,-7.7,-167.65,2
4085,60.47,3.08,-166.97,2
4086,60.48,11.69,-170.27,2
4087,60.49,27.23,-176.92,2
4088,60.51,36.59,-174.36,2
4089,60.52,18.88,-155.9,2
4090,60.53,-5.0,-134.14,2
4091,60.54,-6.68,-124.4,2
4092,60.56,10.21,-120.62,1
4093,60.57,28.56,-114.31,1
4094,60.58,33.55,-108.21,1
4095,60.6,20.76,-103.64,1
4096,60.61,6.71,-100.96,1
4097,60.62,5.51,-103.44,1
4098,60.64,3.4,-110.82,1
4099,60.65,-8.8,-115.85,1
4100,60.66,-11.71,-108.23,1
4101,60.68,2.99,-86.07,1
4102,60.69,17.36,-58.0,1
4103,60.7,18.0,-35.66,1
4104,60.72,13.48,-23.41,1
4105,60.73,23.03,-14.05,1
4106,60.74,36.13,-3.24,1
4107,60.76,21.14,2.78,1
4108,60.77,-9.93,-1.71,1
4109,60.78,-20.25,-7.71,1
4110,60.8,-11.97,6.83,1
4111,60.81,-7.73,35.69,1
4112,60.82,-10.8,41.14,1
4113,60.84,-15.4,21.97,1
4114,60.85,-17.53,16.6,1
4115,60.865,-8.85,28.62,1
4116,60.88,7.96,32.91,1
4117,60.89,10.81,31.51,1
4118,60.9,-6.36,39.47,1
4119,60.92,-16.65,53.8,1
4120,60.93,-7.06,61.2,1
4121,60.95,0.96,54.95,1
4122,60.96,-1.6,45.73,1
4123,60.97,-4.34,46.94,1
4124,60.99,-8.17,49.68,1
4125,61.0,-12.27,40.9,1
4126,61.01,-5.8,35.08,1
4127,61.03,7.06,49.21,1
4128,61.04,11.82,63.27,1
4129,61.05,11.6,47.69,1
4130,61.06,9.99,18.97,1
4131,61.08,-5.59,16.38,1
4132,61.09,-28.71,40.12,1
4133,61.11,-29.57,59.5,1
4134,61.12,-6.1,55.22,1
4135,61.13,9.34,33.28,1
4136,61.15,7.86,19.52,1
4137,61.16,2.91,28.34,1
4138,61.17,-13.61,38.99,1
4139,61.19,-32.91,36.62,1
4140,61.2,-17.88,37.64,1
4141,61.21,18.38,42.93,1
4142,61.22,28.74,36.17,1
4143,61.24,14.18,24.81,1
4144,61.25,3.47,22.44,1
4145,61.26,2.37,21.17,1
4146,61.28,1.51,15.49,1
4147,61.29,-4.47,14.59,1
4148,61.3,-11.64,17.31,1
4149,61.32,-11.14,16.17,1
4150,61.33,-5.94,19.16,1
4151,61.34,-8.2,29.11,1
4152,61.36,-15.6,30.25,1
4153,61.37,-14.49,17.23,1
4154,61.38,-4.39,3.71,1
4155,61.4,5.37,0.31,1
4156,61.41,7.79,7.86,1
4157,61.42,-0.68,19.04,1
4158,61.44,-8.02,21.91,1
4159,61.45,-0.93,13.56,1
4160,61.46,8.06,5.25,1
4161,61.48,4.74,4.72,1
4162,61.49,-1.68,6.51,1
4163,61.5,-2.09,2.71,1
4164,61.52,-2.51,-3.74,1
4165,61.53,-10.7,-4.14,1
4166,61.54,-20.61,0.42,1
4167,61.56,-11.88,3.28,1
4168,61.57,14.42,3.42,1
4169,61.59,22.3,4.98,1
4170,61.6,3.96,7.99,1
4171,61.61,-7.61,5.77,1
4172,61.63,-4.4,1.35,1
4173,61.64,-8.07,0.32,1
4174,61.65,-14.29,-5.46,1
4175,61.67,-0.58,-15.49,1
4176,61.68,16.08,-15.44,1
4177,61.69,5.95,-6.52,1
4178,61.71,-10.21,-4.2,1
4179,61.72,-4.09,-12.08,1
4180,61.73,9.51,-16.12,1
4181,61.75,14.06,-9.65,1
4182,61.76,10.28,-8.66,1
4183,61.77,0.63,-17.91,1
4184,61.79,-1.0,-17.09,1
4185,61.8,15.13,-7.09,1
4186,61.81,28.25,-11.68,1
4187,61.83,15.41,-25.46,1
4188,61.84,-13.09,-24.78,1
4189,61.85,-26.22,-16.13,1
4190,61.86,-10.22,-18.47,1
4191,61.88,10.8,-25.15,1
4192,61.89,9.73,-21.95,1
4193,61.9,0.21,-10.97,1
4194,61.92,4.35,-5.24,1
4195,61.93,11.95,-11.93,1
4196,61.94,8.7,-21.3,1
4197,61.96,-3.5,-23.53,1
4198,61.97,-16.31,-23.21,1
4199,61.98,-18.17,-26.59,1
4200,62.0,-8.79,-28.03,1
4201,62.01,1.13,-22.5,1
4202,62.02,6.87,-18.92,1
4203,62.04,7.71,-20.51,1
4204,62.05,9.16,-16.63,1
4205,62.06,17.68,-6.41,1
4206,62.08,16.03,-0.06,1
4207,62.09,-8.51,0.38,1
4208,62.1,-22.3,-6.16,1
4209,62.12,-4.83,-22.99,1
4210,62.13,6.72,-35.7,1
4211,62.14,-4.39,-28.8,1
4212,62.16,-7.3,-11.97,2
4213,62.17,3.39,11.9,2
4214,62.19,5.18,63.89,2
4215,62.2,0.94,134.23,2
4216,62.21,8.15,170.28,2
4217,62.22,17.27,163.49,2
4218,62.24,9.93,148.05,2
4219,62.25,-0.02,90.46,2
4220,62.27,3.87,-50.9,2
4221,62.28,6.22,-148.24,2
4222,62.29,-4.75,-66.43,2
4223,62.31,-14.64,50.7,2
4224,62.32,-10.6,42.15,2
4225,62.33,-0.6,-8.24,2
4226,62.35,7.47,-23.85,2
4227,62.36,12.43,4.22,2
4228,62.37,1.53,83.2,2
4229,62.38,-15.53,110.7,2
4230,62.4,-9.24,37.39,2
4231,62.41,0.79,5.82,2
4232,62.43,-14.03,55.71,2
4233,62.44,-25.15,17.82,2
4234,62.45,-16.13,-142.88,2
4235,62.47,-14.55,-204.59,2
4236,62.48,-17.24,-66.05,2
4237,62.49,2.84,40.89,2
4238,62.5,28.67,-37.33,2
4239,62.52,22.57,-127.25,2
4240,62.53,-7.98,-112.72,2
4241,62.54,-18.9,-86.44,2
4242,62.56,1.5,-94.84,1
4243,62.57,20.61,-102.48,1
4244,62.58,19.66,-92.14,1
4245,62.6,11.39,-72.08,1
4246,62.61,15.04,-55.92,1
4247,62.62,30.37,-27.16,1
4248,62.64,29.49,15.21,1
4249,62.65,9.64,-1.5,1
4250,62.66,5.7,-60.54,1
4251,62.68,11.43,-45.72,1
4252,62.69,-5.06,1.35,1
4253,62.7,-18.36,-10.13,1
4254,62.72,-0.21,-23.54,1
4255,62.73,11.38,-18.6,1
4256,62.74,-8.12,-42.71,1
4257,62.76,-25.45,-63.29,1
4258,62.77,-20.11,-42.82,1
4259,62.78,-2.02,-21.15,1
4260,62.8,8.39,-38.14,1
4261,62.81,-4.03,-58.66,1
4262,62.825,-20.35,-30.11,1
4263,62.84,-17.0,9.24,1
4264,62.85,-3.29,2.12,1
4265,62.87,3.41,-16.48,1
4266,62.88,3.03,-17.22,1
4267,62.89,1.46,-23.76,1
4268,62.9,-0.34,-16.18,1
4269,62.92,5.69,24.89,1
4270,62.93,19.47,54.9,1
4271,62.95,12.1,47.05,1
4272,62.96,-19.03,27.24,1
4273,62.97,-24.04,20.48,1
4274,62.99,2.1,12.21,1
4275,63.0,6.76,-12.67,1
4276,63.01,-4.34,-31.21,1
4277,63.03,11.26,-41.09,1
4278,63.04,32.2,-52.56,1
4279,63.05,20.89,-27.81,1
4280,63.06,-5.21,28.64,1
4281,63.08,-10.1,31.33,1
4282,63.09,8.12,-32.39,1
4283,63.11,17.17,-60.85,1
4284,63.12,1.83,-3.12,1
4285,63.13,-5.52,65.51,1
4286,63.14,9.86,81.26,1
4287,63.16,13.04,73.74,1
4288,63.17,-4.12,53.87,1
4289,63.18,-18.12,-11.48,1
4290,63.2,-26.26,-70.37,1
4291,63.21,-23.1,-37.57,1
4292,63.22,-0.62,47.28,1
4293,63.24,14.54,78.91,1
4294,63.25,2.12,31.22,1
4295,63.26,-10.48,-24.06,1
4296,63.28,-5.02,-6.42,1
4297,63.29,-5.63,51.97,1
4298,63.3,-17.43,57.39,1
4299,63.32,-17.15,34.51,1
4300,63.33,-1.88,46.42,1
4301,63.34,12.24,51.43,1
4302,63.36,12.22,27.41,1
4303,63.37,-1.98,18.2,1
4304,63.38,-13.93,13.46,1
4305,63.4,-10.08,-2.13,1
4306,63.41,-2.83,9.3,1
4307,63.42,-8.33,27.3,1
4308,63.44,-17.34,8.26,1
4309,63.45,-13.13,-2.46,1
4310,63.46,1.38,29.09,1
4311,63.48,6.75,45.94,1
4312,63.49,-2.8,15.31,1
4313,63.51,-0.75,12.88,1
4314,63.52,22.37,74.03,1
4315,63.53,29.0,99.7,1
4316,63.54,11.12,71.54,1
4317,63.56,4.07,70.91,1
4318,63.57,8.99,67.19,1
4319,63.59,6.87,27.13,1
4320,63.6,2.99,11.44,1
4321,63.61,3.35,17.96,1
4322,63.63,1.93,4.66,1
4323,63.64,-4.19,-2.5,1
4324,63.65,-8.67,20.16,1
4325,63.67,-6.51,34.5,1
4326,63.68,-3.34,22.31,1
4327,63.69,-3.32,18.76,1
4328,63.71,-3.95,16.42,1
4329,63.72,-7.93,-17.41,1
4330,63.73,-16.9,-34.15,1
4331,63.75,-18.63,12.16,1
4332,63.76,-3.24,52.9,1
4333,63.77,14.31,27.74,1
4334,63.78,11.98,-9.92,1
4335,63.8,-3.43,-7.53,1
4336,63.81,-10.91,6.68,1
4337,63.82,-9.21,-0.1,1
4338,63.84,-5.33,-25.7,1
4339,63.85,-1.59,-49.68,1
4340,63.86,-4.9,-29.66,1
4341,63.88,-11.1,28.83,1
4342,63.89,-2.05,52.7,1
4343,63.9,14.74,35.09,1
4344,63.92,12.19,23.11,1
4345,63.93,-9.77,3.21,1
4346,63.94,-24.02,-30.71,1
4347,63.96,-14.03,-25.23,1
4348,63.97,7.48,19.91,1
4349,63.98,18.11,31.7,1
4350,64.0,16.16,-13.15,1
4351,64.01,14.49,-41.32,1
4352,64.02,10.72,-3.68,1
4353,64.04,-5.42,41.97,1
4354,64.05,-18.62,38.92,1
4355,64.06,-6.82,7.19,1
4356,64.08,12.03,-11.37,1
4357,64.09,6.45,7.04,1
4358,64.1,-11.6,33.4,1
4359,64.12,-11.96,16.46,1
4360,64.13,-0.62,-22.65,1
4361,64.14,-2.38,-21.27,1
4362,64.16,-3.55,22.1,0
4363,64.17,25.32,47.7,0
4364,64.18,41.76,22.97,0
4365,64.2,3.62,-17.71,0
4366,64.21,-24.32,-46.48,0
4367,64.22,-4.48,-65.19,0
4368,64.24,10.06,-52.16,0
4369,64.25,2.55,-13.84,0
4370,64.26,-4.05,-18.41,0
4371,64.28,-4.44,-93.82,0
4372,64.29,-0.37,-183.85,0
4373,64.3,1.32,-227.04,0
4374,64.32,-1.6,-217.51,0
4375,64.33,-2.62,-186.68,0
4376,64.34,-4.23,-163.71,0
4377,64.36,-5.25,-150.14,0
4378,64.37,6.08,-118.02,0
4379,64.38,17.69,-64.54,0
4380,64.4,6.8,-32.51,0
4381,64.41,-5.82,-40.41,0
4382,64.42,7.87,-48.13,0
4383,64.44,21.05,-22.68,0
4384,64.45,3.39,14.13,0
4385,64.46,-14.98,35.68,0
4386,64.48,-2.8,49.36,0
4387,64.49,10.95,65.25,0
4388,64.5,5.95,80.04,0
4389,64.52,7.97,90.49,0
4390,64.53,19.41,97.08,0
4391,64.54,15.65,98.17,0
4392,64.56,2.8,93.63,1
4393,64.57,1.64,94.15,1
4394,64.58,10.77,104.43,1
4395,64.6,15.04,109.24,1
4396,64.61,4.65,100.67,1
4397,64.62,-14.87,92.01,1
4398,64.64,-24.13,94.87,1
4399,64.65,-13.95,100.84,1
4400,64.66,-2.3,94.17,1
4401,64.68,-6.7,80.04,1
4402,64.69,-16.89,73.27,1
4403,64.7,-12.48,71.26,1
4404,64.72,3.38,69.75,1
4405,64.73,11.96,68.12,1
4406,64.74,6.85,59.33,1
4407,64.76,-7.11,50.47,1
4408,64.77,-15.89,54.91,1
4409,64.79,-9.14,60.79,1
4410,64.8,-0.06,50.23,1
4411,64.81,0.99,32.38,1
4412,64.82,3.83,27.97,1
4413,64.84,3.13,33.78,1
4414,64.85,-11.65,30.88,1
4415,64.86,-20.2,16.48,1
4416,64.88,-9.14,2.75,1
4417,64.89,-0.19,0.3,1
4418,64.9,-3.92,10.96,1
4419,64.92,-5.83,22.16,1
4420,64.93,-5.12,20.79,1
4421,64.94,-12.64,8.64,1
4422,64.96,-14.59,-3.52,1
4423,64.97,3.72,-5.39,1
4424,64.98,19.66,-4.34,1
4425,65.0,12.39,-15.41,1
4426,65.01,-4.27,-28.34,1
4427,65.02,-16.17,-26.53,1
4428,65.04,-19.33,-18.08,1
4429,65.05,-9.98,-16.27,1
4430,65.06,2.94,-17.66,1
4431,65.08,8.65,-17.97,1
4432,65.09,9.66,-21.02,1
4433,65.1,9.76,-23.18,1
4434,65.12,9.33,-22.02,1
4435,65.13,9.53,-25.41,1
4436,65.14,10.98,-29.41,1
4437,65.16,9.18,-28.35,1
4438,65.17,-1.45,-29.03,1
4439,65.18,-12.44,-28.91,1
4440,65.2,-4.51,-24.08,1
4441,65.21,17.22,-24.25,1
4442,65.22,17.96,-30.13,1
4443,65.24,-7.81,-34.26,1
4444,65.25,-19.13,-36.94,1
4445,65.26,-1.4,-36.54,1
4446,65.28,11.31,-33.91,1
4447,65.29,4.64,-34.38,1
4448,65.3,-0.55,-36.41,1
4449,65.32,1.86,-37.4,1
4450,65.33,2.38,-35.79,1
4451,65.34,4.5,-34.77,1
4452,65.36,7.65,-44.23,1
4453,65.37,2.31,-55.63,1
4454,65.38,-2.24,-50.2,1
4455,65.4,-0.38,-35.97,1
4456,65.41,-5.41,-29.48,1
4457,65.42500000000001,-8.59,-29.19,1
4458,65.44,3.97,-32.9,1
4459,65.45,14.92,-39.2,1
4460,65.46,11.07,-37.9,1
4461,65.48,3.38,-33.29,1
4462,65.49,0.67,-40.04,1
4463,65.5,1.79,-48.56,1
4464,65.52,3.62,-43.3,1
4465,65.53,3.42,-33.63,1
4466,65.54,-0.65,-31.32,1
4467,65.56,-2.22,-28.44,1
4468,65.57,6.01,-17.77,1
4469,65.58,13.51,-15.02,1
4470,65.6,9.94,-30.59,1
4471,65.61,3.19,-41.08,1
4472,65.62,-3.74,-30.4,1
4473,65.64,-8.92,-18.83,1
4474,65.65,-2.18,-20.33,1
4475,65.66,6.33,-18.97,1
4476,65.68,-1.59,-7.96,1
4477,65.69,-13.26,-3.72,1
4478,65.7,-5.99,-10.71,1
4479,65.72,10.79,-19.49,1
4480,65.73,9.88,-28.6,1
4481,65.74,-4.93,-31.01,1
4482,65.76,-5.27,-16.61,1
4483,65.77,7.28,-1.06,1
4484,65.78,5.9,-3.27,1
4485,65.8,-7.82,-9.52,1
4486,65.81,-11.02,-4.43,1
4487,65.82,-4.87,0.5,1
4488,65.84,-2.51,-3.62,1
4489,65.85,-3.49,-5.56,1
4490,65.86,-3.9,1.25,1
4491,65.88,2.08,10.41,1
4492,65.89,12.44,16.31,1
4493,65.9,6.86,12.24,1
4494,65.92,-15.49,-3.08,1
4495,65.93,-25.01,-10.65,1
4496,65.94,-13.63,0.7,1
4497,65.96,-4.57,11.94,1
4498,65.97,-3.63,9.37,1
4499,65.98,2.13,2.67,1
4500,66.0,9.4,-0.26,1
4501,66.01,6.93,4.92,1
4502,66.02,0.56,19.21,1
4503,66.04,3.72,23.83,1
4504,66.05,9.28,6.84,1
4505,66.06,1.66,-6.61,1
4506,66.08,-10.18,3.67,1
4507,66.09,-9.53,17.6,1
4508,66.11,-5.83,15.02,1
4509,66.12,-15.24,8.49,1
4510,66.13,-25.1,16.77,1
4511,66.14,-14.06,32.7,1
4512,66.16,8.97,35.42,0
4513,66.17,19.67,23.99,0
4514,66.18,11.46,14.14,0
4515,66.2,-1.79,10.64,0
4516,66.21,-4.03,10.54,0
4517,66.22,1.92,6.66,0
4518,66.24,2.72,-21.19,0
4519,66.25,0.55,-67.94,0
4520,66.26,-0.74,-94.32,0
4521,66.28,-3.24,-97.47,0
4522,66.29,2.81,-113.0,0
4523,66.3,16.98,-141.22,0
4524,66.32,25.03,-150.06,0
4525,66.33,32.55,-134.12,0
4526,66.34,40.46,-111.24,0
4527,66.36,28.46,-83.96,0
4528,66.37,2.29,-50.26,0
4529,66.38,-14.53,-17.97,0
4530,66.4,-15.3,11.62,0
4531,66.41,-2.37,47.88,0
4532,66.42,2.73,94.54,0
4533,66.44,-17.14,134.97,0
4534,66.45,-31.31,140.54,0
4535,66.46,-14.64,109.54,0
4536,66.48,-0.84,84.22,0
4537,66.49,-20.15,94.56,0
4538,66.5,-43.98,120.37,0
4539,66.52,-40.79,138.18,0
4540,66.53,-34.13,152.8,0
4541,66.54,-41.51,171.71,0
4542,66.56,-23.88,178.58,1
4543,66.57,19.75,156.73,1
4544,66.58,25.07,131.22,1
4545,66.6,-15.09,133.28,1
4546,66.61,-30.37,147.03,1
4547,66.62,0.86,139.75,1
4548,66.64,26.74,112.68,1
4549,66.65,28.52,95.14,1
4550,66.66,19.04,91.91,1
4551,66.68,-0.62,69.7,1
4552,66.69,-9.7,33.23,1
4553,66.7,-2.43,37.66,1
4554,66.72,-3.72,72.91,1
4555,66.73,1.45,72.23,1
4556,66.75,30.29,32.81,1
4557,66.76,32.95,1.89,1
4558,66.77,-11.91,8.06,1
4559,66.79,-34.02,30.49,1
4560,66.8,-4.06,17.67,1
4561,66.81,20.03,-22.43,1
4562,66.82,14.65,-33.14,1
4563,66.84,8.29,-14.92,1
4564,66.85,16.73,-9.51,1
4565,66.86,29.05,-14.67,1
4566,66.88,23.93,-10.55,1
4567,66.89,7.46,-10.31,1
4568,66.9,-0.89,-18.6,1
4569,66.92,-0.71,-20.69,1
4570,66.93,5.66,-25.24,1
4571,66.94,8.95,-40.0,1
4572,66.96,-1.82,-44.46,1
4573,66.97,-11.62,-35.74,1
4574,66.98,-3.64,-36.98,1
4575,67.0,7.95,-48.83,1
4576,67.01,4.95,-53.63,1
4577,67.02,2.41,-51.41,1
4578,67.04,12.1,-53.29,1
4579,67.05,12.97,-58.87,1
4580,67.06,4.51,-58.49,1
4581,67.08,10.2,-53.59,1
4582,67.09,21.33,-54.86,1
4583,67.1,16.24,-59.98,1
4584,67.12,-2.04,-60.23,1
4585,67.13,-16.81,-59.78,1
4586,67.14,-12.6,-64.72,1
4587,67.16,6.21,-67.83,1
4588,67.17,14.63,-66.21,1
4589,67.18,6.05,-67.38,1
4590,67.2,-3.53,-68.08,1
4591,67.21,-8.38,-63.03,1
4592,67.22,-13.4,-60.68,1
4593,67.24,-19.37,-62.95,1
4594,67.25,-21.32,-61.66,1
4595,67.26,-13.04,-55.67,1
4596,67.28,3.32,-46.17,1
4597,67.29,14.86,-37.67,1
4598,67.3,12.37,-40.35,1
4599,67.32,-0.6,-48.83,1
4600,67.33,-12.77,-47.53,1
4601,67.34,-12.07,-41.97,1
4602,67.36,-2.31,-45.64,1
4603,67.37,2.68,-46.0,1
4604,67.38,6.24,-32.54,1
4605,67.4,9.74,-27.85,1
4606,67.41,3.46,-36.95,1
4607,67.43,-5.51,-30.02,1
4608,67.44,-8.04,-8.74,1
4609,67.45,-7.64,-7.02,1
4610,67.46,-4.6,-21.4,1
4611,67.48,-0.88,-18.53,1
4612,67.49,-3.26,-0.47,1
4613,67.5,-6.63,1.39,1
4614,67.52,-0.94,-13.48,1
4615,67.53,5.47,-17.24,1
4616,67.54,3.25,-6.55,1
4617,67.56,1.52,-1.28,1
4618,67.57,1.0,-3.5,1
4619,67.58,-8.75,-1.45,1
4620,67.6,-17.22,1.18,1
4621,67.61,-9.69,-5.18,1
4622,67.62,0.42,-12.92,1
4623,67.64,1.33,-9.6,1
4624,67.65,2.82,3.83,1
4625,67.66,5.93,16.55,1
4626,67.68,2.23,19.47,1
4627,67.69,-3.59,14.35,1
4628,67.7,-2.97,9.49,1
4629,67.72,-1.61,12.65,1
4630,67.73,-8.39,23.36,1
4631,67.74,-12.72,28.66,1
4632,67.76,-2.28,22.52,1
4633,67.77,10.79,14.11,1
4634,67.78,11.53,14.86,1
4635,67.8,5.41,25.62,1
4636,67.81,-0.46,32.36,1
4637,67.82,-9.06,29.23,1
4638,67.84,-11.57,25.73,1
4639,67.85,4.45,23.6,1
4640,67.86,18.67,19.29,1
4641,67.88,5.98,13.41,1
4642,67.89,-14.12,8.96,1
4643,67.9,-12.01,6.09,1
4644,67.92,-0.82,0.47,1
4645,67.93,-1.93,-4.54,1
4646,67.94,-1.92,5.09,1
4647,67.96,9.47,27.94,1
4648,67.97,13.49,40.75,1
4649,67.98,7.12,35.37,1
4650,68.0,9.15,28.89,1
4651,68.01,13.91,30.37,1
4652,68.02,5.94,31.43,1
4653,68.04,-4.92,27.71,1
4654,68.05,-7.0,24.41,1
4655,68.06,-5.19,21.28,1
4656,68.08,-5.09,16.8,1
4657,68.09,-7.07,16.46,1
4658,68.11,-8.2,19.09,1
4659,68.12,-5.85,19.85,1
4660,68.13,-6.21,23.16,1
4661,68.14,-12.26,29.08,1
4662,68.16,-14.4,30.95,2
4663,68.17,-7.19,30.07,2
4664,68.18,3.25,28.45,2
4665,68.2,8.24,22.96,2
4666,68.21,8.4,18.72,2
4667,68.22,9.45,27.09,2
4668,68.24,5.64,58.36,2
4669,68.25,-2.5,123.98,2
4670,68.26,-3.24,213.24,2
4671,68.28,-1.56,277.43,2
4672,68.29,-3.19,284.04,2
4673,68.3,1.24,247.27,2
4674,68.32,11.03,183.44,2
4675,68.33,15.97,109.08,2
4676,68.34,14.01,49.35,2
4677,68.36,7.27,0.71,2
4678,68.37,-2.52,-49.69,2
4679,68.38,-12.75,-93.93,2
4680,68.4,-21.22,-132.96,2
4681,68.41,-27.57,-167.81,2
4682,68.42,-28.99,-182.18,2
4683,68.44,-23.32,-177.44,2
4684,68.45,-17.19,-168.16,2
4685,68.46,-16.47,-154.69,2
4686,68.48,-13.93,-139.01,2
4687,68.49,-0.44,-129.54,2
4688,68.5,16.64,-121.86,2
4689,68.52,24.97,-107.07,2
4690,68.53,24.51,-94.52,2
4691,68.54,16.46,-93.09,2
4692,68.56,3.62,-87.71,1
4693,68.57,-3.02,-68.05,1
4694,68.58,2.43,-55.63,1
4695,68.6,16.05,-64.39,1
4696,68.61,27.72,-70.87,1
4697,68.62,35.3,-56.59,1
4698,68.64,43.34,-41.43,1
4699,68.65,40.02,-46.16,1
4700,68.66,18.83,-55.73,1
4701,68.68,-2.96,-46.0,1
4702,68.69,-13.14,-25.93,1
4703,68.7,-14.8,-18.33,1
4704,68.72,-8.73,-18.59,1
4705,68.73,3.39,-13.47,1
4706,68.75,9.45,-8.95,1
4707,68.76,2.74,-6.92,1
4708,68.77,-4.99,-1.05,1
4709,68.79,-1.53,1.34,1
4710,68.8,6.54,-3.88,1
4711,68.81,3.35,-2.68,1
4712,68.82,-8.18,9.46,1
4713,68.84,-11.72,15.61,1
4714,68.85,-10.13,9.64,1
4715,68.86,-13.1,9.46,1
4716,68.88,-11.06,21.9,1
4717,68.89,-0.74,32.1,1
4718,68.9,2.04,31.34,1
4719,68.92,-3.92,21.68,1
4720,68.93,-4.76,14.02,1
4721,68.94,-2.0,21.85,1
4722,68.96,-4.94,37.54,1
4723,68.97,-5.1,42.64,1
4724,68.98,6.51,34.39,1
4725,69.0,14.59,24.33,1
4726,69.01,6.86,21.88,1
4727,69.02,-4.82,26.0,1
4728,69.04,-4.89,29.22,1
4729,69.05,7.77,27.43,1
4730,69.06,15.68,25.11,1
4731,69.08,4.52,30.5,1
4732,69.09,-11.25,41.24,1
4733,69.1,-9.9,46.1,1
4734,69.12,-0.37,39.05,1
4735,69.13,-2.83,21.5,1
4736,69.14,-5.55,10.03,1
4737,69.16,1.66,23.65,1
4738,69.17,-7.35,40.38,1
4739,69.18,-30.0,33.46,1
4740,69.2,-24.45,25.88,1
4741,69.21,2.77,29.73,1
4742,69.22,5.95,26.01,1
4743,69.24,-10.53,20.67,1
4744,69.25,-7.53,28.09,1
4745,69.26,10.43,36.98,1
4746,69.28,11.83,31.4,1
4747,69.29,-2.1,15.66,1
4748,69.3,-11.43,11.72,1
4749,69.32,-10.06,26.48,1
4750,69.33,-4.61,42.23,1
4751,69.34,-2.45,42.62,1
4752,69.36,-1.88,32.88,1
4753,69.37,-1.51,24.99,1
4754,69.38,-2.69,18.29,1
4755,69.4,1.18,14.86,1
4756,69.41,7.59,19.19,1
4757,69.43,3.53,23.36,1
4758,69.44,-8.41,21.18,1
4759,69.45,-16.4,18.39,1
4760,69.46,-16.28,17.1,1
4761,69.48,-10.26,9.66,1
4762,69.49,-7.5,-2.63,1
4763,69.5,-8.43,-7.63,1
4764,69.52,-1.29,-7.71,1
4765,69.53,7.45,-11.19,1
4766,69.54,3.56,-7.35,1
4767,69.56,-0.03,7.54,1
4768,69.57,11.68,14.99,1
4769,69.58,24.76,10.1,1
4770,69.6,19.99,5.77,1
4771,69.61,3.7,5.57,1
4772,69.62,-2.71,4.42,1
4773,69.64,1.2,-0.82,1
4774,69.65,0.73,-8.4,1
4775,69.66,-2.06,-9.3,1
4776,69.68,-1.92,-0.81,1
4777,69.69,-3.97,3.21,1
4778,69.7,-5.16,-6.6,1
4779,69.72,-1.07,-18.27,1
4780,69.73,1.75,-18.19,1
4781,69.74,-0.21,-10.54,1
4782,69.76,-3.42,-5.7,1
4783,69.77,-5.24,-8.32,1
4784,69.78,-5.63,-18.62,1
4785,69.8,-1.3,-23.94,1
4786,69.81,9.02,-16.16,1
4787,69.82,14.13,-11.65,1
4788,69.84,9.06,-17.09,1
4789,69.85,9.44,-13.35,1
4790,69.86,16.64,1.56,1
4791,69.88,10.46,3.22,1
4792,69.89,-3.89,-14.08,1
4793,69.9,-4.51,-26.04,1
4794,69.92,2.93,-18.28,1
4795,69.93,5.07,-6.63,1
4796,69.94,3.92,-6.07,1
4797,69.96,-0.49,-8.27,1
4798,69.97,-4.82,-9.77,1
4799,69.98,-0.01,-20.48,1
4800,70.0,5.84,-28.89,1
4801,70.01,0.13,-16.06,1
4802,70.02,-9.85,0.72,1
4803,70.04,-11.94,-5.79,1
4804,70.05,-5.54,-20.88,1
4805,70.06,1.23,-17.0,1
4806,70.08,-1.08,-2.86,1
4807,70.09,-10.34,4.47,1
4808,70.11,-15.81,4.5,1
4809,70.12,-10.86,-5.12,1
4810,70.13,0.83,-20.42,1
4811,70.14,8.75,-22.58,1
4812,70.16,8.08,-8.89,2
4813,70.17,1.06,0.59,2
4814,70.18,-6.46,-3.2,2
4815,70.2,-4.68,12.05,2
4816,70.21,4.62,71.36,2
4817,70.22,8.38,108.61,2
4818,70.24,8.82,72.87,2
4819,70.25,11.54,45.44,2
4820,70.26,8.04,72.37,2
4821,70.28,5.1,92.6,2
4822,70.29,21.83,70.11,2
4823,70.3,35.32,15.02,2
4824,70.32,6.84,-10.83,2
4825,70.33,-29.31,28.21,2
4826,70.34,-19.65,37.64,2
4827,70.36,4.63,-22.44,2
4828,70.37,-3.16,-46.3,2
4829,70.38,-15.27,-12.44,2
4830,70.4,0.62,-6.54,2
4831,70.41,16.3,-27.8,2
4832,70.42,6.68,-35.24,2
4833,70.44,-8.46,-54.01,2
4834,70.45,-11.62,-100.8,2
4835,70.46,-6.88,-139.82,2
4836,70.48,-2.62,-125.97,2
4837,70.49,-3.24,-69.64,2
4838,70.5,-6.93,-41.71,2
4839,70.52,-8.93,-66.36,2
4840,70.53,-2.72,-83.95,2
4841,70.54,5.73,-62.04,2
4842,70.56,1.83,-43.19,1
