,Timestamp,Data1,Data2,Label
0,6.0,3.15,9.76,1
1,6.01,4.95,7.47,1
2,6.03,1.0,7.99,1
3,6.04,-11.45,15.11,1
4,6.05,-16.69,11.55,1
5,6.07,-7.18,2.07,1
6,6.08,0.68,7.19,1
7,6.09,2.46,8.9,1
8,6.11,8.2,-7.03,1
9,6.12,6.57,-16.2,1
10,6.13,-8.65,-9.7,1
11,6.15,-15.01,-0.03,2
12,6.16,-5.4,2.79,2
13,6.17,2.11,-6.93,2
14,6.19,0.36,-9.71,2
15,6.2,-1.31,2.86,2
16,6.21,3.45,-8.15,2
17,6.23,12.68,-41.18,2
18,6.24,20.89,-14.54,2
19,6.25,27.56,95.51,2
20,6.27,36.23,166.45,2
21,6.28,36.69,149.95,2
22,6.29,24.64,199.29,2
23,6.31,24.57,285.9,2
24,6.32,32.8,213.54,2
25,6.33,-4.96,118.59,2
26,6.35,-71.68,147.93,2
27,6.36,-65.27,104.43,2
28,6.37,4.01,-26.92,2
29,6.39,24.8,-28.94,2
30,6.4,-1.17,65.24,2
31,6.41,-9.26,72.49,2
32,6.43,-12.27,-12.06,2
33,6.44,-22.0,-83.77,2
34,6.45,-21.72,-127.51,2
35,6.47,-27.37,-165.46,2
36,6.48,-33.49,-173.85,2
37,6.49,0.64,-149.2,2
38,6.51,48.31,-109.67,2
39,6.52,34.15,-87.35,2
40,6.53,-19.6,-133.34,2
41,6.55,-28.1,-217.06,2
42,6.56,-1.98,-229.15,1
43,6.57,2.81,-152.1,1
44,6.59,-8.02,-75.29,1
45,6.6,-14.95,-45.59,1
46,6.61,-18.57,-54.94,1
47,6.63,-15.52,-99.87,1
48,6.64,-9.47,-165.53,1
49,6.65,-12.81,-182.39,1
50,6.67,-17.96,-105.6,1
51,6.68,-10.45,-33.17,1
52,6.69,3.84,-46.31,1
53,6.71,14.26,-59.15,1
54,6.72,13.57,-14.25,1
55,6.73,-3.11,9.87,1
56,6.75,-20.47,-34.18,1
57,6.76,-15.63,-90.47,1
58,6.77,6.37,-97.1,1
59,6.79,21.78,-51.82,1
60,6.8,17.67,1.06,1
61,6.81,-3.78,24.67,1
62,6.82,-25.9,28.94,1
63,6.84,-19.4,42.91,1
64,6.85,23.75,48.78,1
65,6.86,51.54,26.51,1
66,6.88,16.23,14.29,1
67,6.89,-34.19,0.82,1
68,6.91,-38.19,-61.68,1
69,6.92,-19.21,-103.99,1
70,6.93,-10.38,-49.89,1
71,6.95,-4.71,10.32,1
72,6.96,5.9,-0.73,1
73,6.97,27.35,7.78,1
74,6.99,50.16,60.94,1
75,7.0,43.62,49.91,1
76,7.01,15.99,2.71,1
77,7.03,-0.14,33.81,1
78,7.04,-10.33,79.33,1
79,7.05,-18.23,45.66,1
80,7.07,-6.26,8.91,1
81,7.08,17.17,42.86,1
82,7.09,27.29,97.61,1
83,7.11,20.52,97.6,1
84,7.12,8.45,47.1,1
85,7.13,-7.95,27.55,1
86,7.15,-23.58,53.92,1
87,7.16,-17.04,56.44,1
88,7.17,9.77,28.83,1
89,7.19,23.18,12.26,1
90,7.2,4.29,11.21,1
91,7.21,-21.05,19.95,1
92,7.23,-17.9,48.98,1
93,7.24,4.25,79.88,1
94,7.25,12.0,76.82,1
95,7.27,0.77,80.44,1
96,7.28,-7.68,117.77,1
97,7.29,-1.7,97.32,1
98,7.31,2.34,7.88,1
99,7.32,-14.14,-29.72,1
100,7.33,-28.6,1.52,1
101,7.35,-13.47,29.91,1
102,7.36,9.54,48.83,1
103,7.37,13.97,56.85,1
104,7.39,1.5,41.14,1
105,7.4,-14.31,44.0,1
106,7.41,-10.62,64.66,1
107,7.43,12.39,32.86,1
108,7.44,24.99,-19.71,1
109,7.45,19.37,-8.91,1
110,7.47,7.96,36.91,1
111,7.48,-0.34,74.82,1
112,7.49,0.8,89.98,1
113,7.51,8.22,61.7,1
114,7.52,14.15,29.11,1
115,7.53,16.4,14.41,1
116,7.55,10.12,-7.79,1
117,7.56,-2.99,-4.41,1
118,7.57,-6.56,37.58,1
119,7.59,-1.83,48.71,1
120,7.6,-6.21,14.85,1
121,7.61,-12.56,4.0,1
122,7.63,-1.58,38.63,1
123,7.64,19.39,66.67,1
124,7.65,28.39,47.6,1
125,7.67,19.63,16.98,1
126,7.68,-0.02,14.2,1
127,7.69,-22.31,-14.71,1
128,7.71,-33.51,-77.39,1
129,7.72,-25.31,-60.83,1
130,7.73,-10.56,8.12,1
131,7.75,-4.16,-11.82,1
132,7.76,-2.25,-64.93,1
133,7.77,4.57,-43.81,1
134,7.79,10.98,-9.6,1
135,7.8,7.21,-8.54,1
136,7.81,1.01,-11.07,1
137,7.83,4.91,-20.22,1
138,7.84,10.86,-22.08,1
139,7.85,5.05,1.28,1
140,7.87,-3.8,12.85,1
141,7.88,-3.95,-5.51,1
142,7.89,-6.7,-29.46,1
143,7.91,-14.05,-28.4,1
144,7.92,-9.52,10.14,1
145,7.93,1.48,43.02,1
146,7.95,6.82,25.18,1
147,7.96,6.74,-6.12,1
148,7.97,-6.72,3.49,1
149,7.99,-22.79,16.11,1
150,8.0,-8.83,-9.37,1
151,8.01,17.07,-27.9,1
152,8.03,9.01,-32.75,1
153,8.04,-15.81,-54.61,1
154,8.05,-12.22,-59.48,1
155,8.07,7.87,-29.67,1
156,8.08,10.58,-15.6,1
157,8.09,2.07,-45.52,1
158,8.1,-1.15,-60.47,1
159,8.12,0.23,-19.55,1
160,8.13,2.12,-3.01,1
161,8.15,2.15,-41.31,0
162,8.16,6.92,-42.27,0
163,8.17,19.12,-6.57,0
164,8.19,22.92,-39.35,0
165,8.2,15.56,-136.94,0
166,8.21,12.99,-195.64,0
167,8.23,19.48,-193.6,0
168,8.24,35.82,-187.07,0
169,8.25,54.36,-194.98,0
170,8.27,46.26,-189.36,0
171,8.28,12.96,-139.52,0
172,8.29,-8.66,-60.6,0
173,8.31,-12.79,3.77,0
174,8.32,-15.73,53.93,0
175,8.33,-20.03,98.09,0
176,8.35,-28.07,113.56,0
177,8.36,-35.53,109.99,0
178,8.37,-34.08,116.27,0
179,8.39,-30.55,124.97,0
180,8.4,-23.13,127.21,0
181,8.41,-5.93,124.04,0
182,8.43,2.43,106.91,0
183,8.44,-11.21,82.81,0
184,8.45,-24.39,65.75,0
185,8.47,-17.33,56.83,0
186,8.48,-6.78,59.61,0
187,8.49,-9.35,62.11,0
188,8.51,-13.73,41.59,0
189,8.52,-10.76,22.45,0
190,8.53,-9.59,35.4,0
191,8.55,-10.5,47.6,1
192,8.56,-5.08,35.26,1
193,8.57,-2.75,27.71,1
194,8.59,-8.28,33.58,1
195,8.6,-4.43,34.46,1
196,8.61,5.84,26.5,1
197,8.63,2.57,12.04,1
198,8.64,-9.61,0.59,1
199,8.65,-18.9,5.71,1
200,8.67,-20.56,14.76,1
201,8.68,-8.69,10.97,1
202,8.69,6.83,5.4,1
203,8.71,10.51,6.59,1
204,8.72,7.13,12.38,1
205,8.73,7.59,17.85,1
206,8.75,11.21,9.02,1
207,8.76,11.66,-6.84,1
208,8.77,8.77,-8.27,1
209,8.78,8.4,-3.17,1
210,8.8,12.01,2.6,1
211,8.81,14.16,15.1,1
212,8.82,9.39,13.2,1
213,8.84,-0.05,-6.95,1
214,8.85,-3.95,-14.77,1
215,8.87,1.86,-12.34,1
216,8.88,7.06,-13.65,1
217,8.89,1.21,-10.81,1
218,8.91,-13.59,-5.09,1
219,8.92,-23.59,2.5,1
220,8.93,-17.19,9.3,1
221,8.95,-0.83,-6.65,1
222,8.96,8.28,-29.67,1
223,8.97,7.04,-20.84,1
224,8.99,5.2,-7.19,1
225,9.0,3.99,-19.16,1
226,9.01,1.51,-23.72,1
227,9.03,4.28,-14.87,1
228,9.04,8.53,-21.39,1
229,9.05,3.22,-32.12,1
230,9.07,-4.55,-30.37,1
231,9.08,-1.86,-23.27,1
232,9.09,6.94,-16.0,1
233,9.11,9.02,-17.64,1
234,9.12,6.02,-27.67,1
235,9.13,5.57,-28.22,1
236,9.15,-1.62,-21.83,1
237,9.16,-12.47,-18.93,1
238,9.17,-2.58,-17.09,1
239,9.19,16.72,-20.69,1
240,9.2,15.71,-23.75,1
241,9.21,6.8,-17.03,1
242,9.23,9.19,-19.28,1
243,9.24,11.01,-31.97,1
244,9.25,1.89,-26.34,1
245,9.27,-5.11,-9.69,1
246,9.28,-0.21,-10.85,1
247,9.29,0.74,-25.74,1
248,9.31,-9.6,-34.89,1
249,9.32,-10.38,-24.25,1
250,9.33,1.29,-2.03,1
251,9.35,4.65,-0.99,1
252,9.36,0.47,-16.08,1
253,9.37,0.7,-13.49,1
254,9.39,2.73,-5.42,1
255,9.4,5.48,-10.38,1
256,9.41,10.51,-10.58,1
257,9.43,12.08,-8.43,1
258,9.44,10.08,-16.36,1
259,9.45,6.41,-17.44,1
260,9.47,0.28,-12.08,1
261,9.48,0.74,-14.75,1
262,9.49,9.75,-10.13,1
263,9.51,10.06,3.21,1
264,9.52,-1.25,0.95,1
265,9.53,-8.03,-9.31,1
266,9.55,-10.27,-6.27,1
267,9.56,-15.89,4.97,1
268,9.57,-14.09,9.75,1
269,9.59,1.42,-0.41,1
270,9.6,12.8,-12.14,1
271,9.61,8.25,-1.82,1
272,9.63,-2.24,16.16,1
273,9.64,-7.84,12.44,1
274,9.65,-9.29,-2.21,1
275,9.67,-10.08,-6.09,1
276,9.68,-7.08,2.98,1
277,9.69,-1.82,16.62,1
278,9.71,-2.34,14.37,1
279,9.72,-2.5,-3.45,1
280,9.73,3.73,-9.01,1
281,9.75,3.6,-4.82,1
282,9.76,-2.78,-6.08,1
283,9.77,-1.89,-2.61,1
284,9.79,0.91,6.07,1
285,9.8,-3.45,12.0,1
286,9.81,-10.69,15.16,1
287,9.83,-15.29,7.12,1
288,9.84,-10.4,-6.49,1
289,9.85,4.16,-4.17,1
290,9.87,9.99,4.03,1
291,9.88,0.06,2.18,1
292,9.89,-3.0,6.14,1
293,9.91,7.66,13.82,1
294,9.92,11.04,7.16,1
295,9.93,1.31,1.79,1
296,9.95,-8.51,8.81,1
297,9.96,-6.23,14.3,1
298,9.97,6.3,14.76,1
299,9.99,10.12,8.55,1
300,10.0,6.88,-1.07,1
301,10.01,11.44,4.37,1
302,10.02,8.02,17.86,1
303,10.04,-8.39,19.53,1
304,10.05,-13.01,17.47,1
305,10.06,-7.46,14.42,1
306,10.08,-4.07,3.18,1
307,10.09,7.84,-2.35,1
308,10.1,21.91,0.94,1
309,10.12,14.8,-0.71,1
310,10.13,-5.44,-0.32,1
311,10.15,-12.58,4.05,0
312,10.16,-4.39,-1.87,0
313,10.17,6.03,-8.51,0
314,10.19,13.53,0.92,0
315,10.2,18.09,8.98,0
316,10.21,18.75,-23.6,0
317,10.23,14.86,-89.78,0
318,10.24,11.85,-123.92,0
319,10.25,19.44,-114.96,0
320,10.27,31.83,-127.08,0
321,10.28,34.37,-165.21,0
322,10.29,28.71,-170.71,0
323,10.31,21.31,-144.38,0
324,10.32,9.18,-122.21,0
325,10.33,-9.62,-91.56,0
326,10.35,-22.83,-51.36,0
327,10.36,-16.59,-26.79,0
328,10.37,-2.36,2.78,0
329,10.39,-4.18,47.43,0
330,10.4,-19.91,75.86,0
331,10.41,-24.87,94.56,0
332,10.43,-16.39,121.27,0
333,10.44,-12.02,137.7,0
334,10.45,-12.1,140.15,0
335,10.47,-13.16,144.27,0
336,10.48,-20.78,152.51,0
337,10.49,-31.14,168.53,0
338,10.51,-37.19,185.72,0
339,10.52,-38.17,182.45,0
340,10.53,-34.31,168.17,0
341,10.55,-28.7,159.18,1
342,10.56,-20.3,144.19,1
343,10.57,-10.49,126.9,1
344,10.59,-11.07,112.66,1
345,10.6,-15.76,89.96,1
346,10.61,-6.59,73.63,1
347,10.63,3.49,72.73,1
348,10.64,-1.36,64.77,1
349,10.65,-4.04,50.48,1
350,10.67,5.97,41.69,1
351,10.68,8.7,31.14,1
352,10.69,-7.62,24.15,1
353,10.71,-22.13,24.75,1
354,10.72,-14.89,18.74,1
355,10.73,0.73,8.71,1
356,10.75,3.61,2.76,1
357,10.76,1.02,-2.29,1
358,10.77,4.76,-1.39,1
359,10.78,5.6,-0.52,1
360,10.8,-1.57,-11.47,1
361,10.81,-5.17,-17.58,1
362,10.83,-2.87,-11.19,1
363,10.84,-1.26,-17.56,1
364,10.85,1.3,-35.65,1
365,10.87,3.6,-38.81,1
366,10.88,1.0,-34.08,1
367,10.89,1.73,-39.04,1
368,10.91,6.63,-46.26,1
369,10.92,1.86,-47.62,1
370,10.93,-5.58,-44.43,1
371,10.95,2.22,-45.14,1
372,10.96,12.53,-54.32,1
373,10.97,7.88,-53.66,1
374,10.99,-0.02,-38.7,1
375,11.0,0.47,-31.65,1
376,11.01,1.45,-33.81,1
377,11.03,2.84,-40.76,1
378,11.04,17.3,-58.84,1
379,11.05,36.2,-69.15,1
380,11.07,31.24,-59.92,1
381,11.08,3.12,-57.01,1
382,11.09,-16.24,-61.52,1
383,11.11,-12.5,-54.32,1
384,11.12,-0.95,-46.64,1
385,11.13,4.37,-46.76,1
386,11.15,8.12,-51.43,1
387,11.16,19.26,-63.27,1
388,11.17,29.35,-66.76,1
389,11.19,23.67,-53.23,1
390,11.2,9.46,-45.54,1
391,11.21,1.42,-46.38,1
392,11.23,0.88,-41.15,1
393,11.24,8.54,-34.98,1
394,11.25,22.86,-30.26,1
395,11.27,24.79,-28.43,1
396,11.28,5.93,-39.61,1
397,11.29,-9.96,-44.87,1
398,11.31,-4.27,-27.72,1
399,11.32,11.15,-19.84,1
400,11.33,19.3,-32.08,1
401,11.35,18.35,-35.71,1
402,11.36,16.15,-28.61,1
403,11.37,13.74,-20.81,1
404,11.39,8.16,-11.82,1
405,11.4,5.76,-10.96,1
406,11.41,8.31,-13.17,1
407,11.43,4.17,-6.6,1
408,11.44,-5.41,-8.98,1
409,11.45,-5.16,-21.2,1
410,11.47,0.59,-17.48,1
411,11.48,-5.05,-5.44,1
412,11.49,-13.14,-4.2,1
413,11.51,-7.39,-5.88,1
414,11.52,2.07,-5.3,1
415,11.53,2.76,-2.01,1
416,11.55,-1.75,6.99,1
417,11.56,-3.88,7.07,1
418,11.57,0.5,-5.26,1
419,11.59,3.69,-8.52,1
420,11.6,1.36,-1.7,1
421,11.61,3.42,3.52,1
422,11.63,6.13,8.46,1
423,11.64,-2.1,9.91,1
424,11.65,-10.52,10.24,1
425,11.67,-8.71,14.68,1
426,11.68,-3.61,15.05,1
427,11.69,1.91,14.68,1
428,11.71,5.07,18.75,1
429,11.72,-0.63,12.96,1
430,11.73,-4.09,2.92,1
431,11.75,5.0,8.4,1
432,11.76,15.9,15.71,1
433,11.77,18.93,10.79,1
434,11.79,11.46,11.12,1
435,11.8,-1.82,21.72,1
436,11.81,-8.51,27.94,1
437,11.83,-10.86,23.67,1
438,11.84,-17.36,12.17,1
439,11.85,-20.11,8.09,1
440,11.87,-14.29,14.37,1
441,11.88,-8.2,10.86,1
442,11.89,-4.71,2.13,1
443,11.91,-2.01,7.77,1
444,11.92,-3.2,15.32,1
445,11.93,-11.72,14.9,1
446,11.94,-21.49,14.73,1
447,11.96,-19.46,9.34,1
448,11.97,-5.17,5.02,1
449,11.98,5.37,16.43,1
450,12.0,1.18,24.18,1
451,12.01,-10.42,19.35,1
452,12.02,-15.49,20.13,1
453,12.04,-9.38,18.8,1
454,12.05,2.81,11.21,1
455,12.06,11.56,12.1,1
456,12.08,14.46,9.06,1
457,12.09,15.81,-1.06,1
458,12.1,10.87,6.34,1
459,12.12,-4.53,20.79,1
460,12.13,-17.64,22.53,1
461,12.15,-20.06,24.5,2
462,12.16,-17.34,24.58,2
463,12.17,-9.34,17.65,2
464,12.19,1.13,25.71,2
465,12.2,4.83,49.99,2
466,12.21,5.79,74.93,2
467,12.23,6.39,93.31,2
468,12.24,-3.16,84.16,2
469,12.25,-17.44,54.02,2
470,12.27,-21.44,59.33,2
471,12.28,-22.41,125.38,2
472,12.29,-28.99,220.21,2
473,12.31,-30.92,287.72,2
474,12.32,-29.76,278.12,2
475,12.33,-38.47,209.58,2
476,12.35,-43.96,143.94,2
477,12.36,-25.65,87.09,2
478,12.37,0.49,18.3,2
479,12.39,9.02,-49.73,2
480,12.4,11.46,-112.99,2
481,12.41,24.45,-174.93,2
482,12.43,32.76,-213.47,2
483,12.44,26.07,-222.46,2
484,12.45,22.16,-216.66,2
485,12.47,24.55,-197.16,2
486,12.48,20.76,-173.38,2
487,12.49,19.59,-155.77,2
488,12.51,27.04,-138.22,2
489,12.52,23.74,-127.4,2
490,12.53,6.73,-123.32,2
491,12.55,2.16,-108.96,1
492,12.56,14.45,-92.35,1
493,12.57,16.93,-79.17,1
494,12.59,2.77,-61.71,1
495,12.6,-7.93,-63.45,1
496,12.61,-5.6,-83.72,1
497,12.63,4.05,-79.06,1
498,12.64,14.7,-59.4,1
499,12.65,22.44,-54.59,1
500,12.67,23.88,-45.46,1
501,12.68,18.51,-29.71,1
502,12.69,12.7,-25.74,1
503,12.71,8.03,-18.88,1
504,12.72,-2.62,-6.07,1
505,12.73,-12.05,-3.61,1
506,12.75,-6.24,-5.47,1
507,12.76,7.62,-6.36,1
508,12.77,13.98,-8.08,1
509,12.79,10.53,-5.64,1
510,12.8,2.86,-0.87,1
511,12.81,-1.15,8.67,1
512,12.83,0.94,27.94,1
513,12.84,0.21,38.19,1
514,12.85,-9.03,27.09,1
515,12.87,-17.97,16.25,1
516,12.88,-15.67,20.27,1
517,12.89,-5.51,32.8,1
518,12.91,2.58,44.97,1
519,12.92,7.25,42.86,1
520,12.93,6.14,33.2,1
521,12.95,-3.5,40.78,1
522,12.96,-9.85,48.02,1
523,12.97,-3.89,32.55,1
524,12.99,1.56,25.62,1
525,13.0,0.67,41.05,1
526,13.01,5.47,47.03,1
527,13.03,10.23,40.43,1
528,13.04,2.4,38.21,1
529,13.05,-5.26,37.0,1
530,13.07,-5.56,37.78,1
531,13.08,-6.89,38.86,1
532,13.09,-3.77,34.26,1
533,13.11,3.64,36.16,1
534,13.12,-0.65,39.75,1
535,13.13,-12.69,30.19,1
536,13.15,-17.46,29.09,1
537,13.16,-13.68,42.03,1
538,13.17,-7.49,38.97,1
539,13.19,-6.79,24.56,1
540,13.2,-8.66,21.34,1
541,13.21,-4.46,26.92,1
542,13.23,-2.75,36.51,1
543,13.24,-8.97,40.39,1
544,13.25,-11.23,27.87,1
545,13.27,-9.03,19.74,1
546,13.28,-7.13,28.73,1
547,13.29,0.04,29.84,1
548,13.31,4.11,18.99,1
549,13.32,-4.07,17.62,1
550,13.33,-8.06,23.85,1
551,13.35,-0.6,22.17,1
552,13.36,3.07,11.13,1
553,13.37,0.68,7.52,1
554,13.39,-0.07,24.96,1
555,13.4,-1.11,40.56,1
556,13.41,-0.71,27.49,1
557,13.43,2.18,9.15,1
558,13.44,-1.46,12.23,1
559,13.45,-3.74,17.98,1
560,13.47,6.72,14.27,1
561,13.48,11.56,10.39,1
562,13.49,2.17,4.25,1
563,13.51,-6.9,-1.31,1
564,13.52,-12.15,-2.29,1
565,13.53,-11.38,-8.18,1
566,13.55,0.7,-11.87,1
567,13.56,13.19,-2.49,1
568,13.57,10.34,8.11,1
569,13.59,-2.35,8.56,1
570,13.6,-9.08,-2.65,1
571,13.61,-9.28,-13.32,1
572,13.63,-6.55,-5.33,1
573,13.64,3.58,6.74,1
574,13.65,12.14,3.3,1
575,13.67,3.98,-1.6,1
576,13.68,-9.37,-3.63,1
577,13.69,-9.99,-14.47,1
578,13.71,-1.88,-17.19,1
579,13.72,4.6,-3.37,1
580,13.73,7.07,1.6,1
581,13.75,7.45,-5.5,1
582,13.76,6.46,-12.49,1
583,13.77,3.86,-23.21,1
584,13.79,0.94,-25.44,1
585,13.8,-4.97,-8.78,1
586,13.81,-11.71,1.52,1
587,13.83,-5.42,-9.54,1
588,13.84,10.04,-23.74,1
589,13.85,12.82,-24.72,1
590,13.86,6.05,-13.43,1
591,13.88,7.63,-5.84,1
592,13.89,10.41,-16.03,1
593,13.9,2.54,-29.73,1
594,13.92,-6.08,-29.21,1
595,13.93,-4.09,-20.28,1
596,13.94,0.98,-7.11,1
597,13.96,-1.61,1.85,1
598,13.97,-4.87,-8.91,1
599,13.98,-0.65,-20.69,1
600,14.0,1.82,-18.05,1
601,14.01,-2.54,-20.05,1
602,14.02,-3.13,-21.36,1
603,14.04,2.29,-12.19,1
604,14.05,3.3,-14.24,1
605,14.07,-1.01,-17.46,1
606,14.08,0.32,-3.52,1
607,14.09,7.47,-0.84,1
608,14.11,8.09,-15.46,1
609,14.12,1.98,-19.6,1
610,14.13,1.3,-12.03,1
611,14.15,8.21,-4.85,2
612,14.16,9.14,-4.32,2
613,14.17,-0.47,-13.73,2
614,14.19,-3.6,-20.4,2
615,14.2,8.27,-21.45,2
616,14.21,22.21,-33.93,2
617,14.23,25.9,-29.22,2
618,14.24,13.06,39.21,2
619,14.25,-17.26,131.28,2
620,14.27,-51.15,183.93,2
621,14.28,-62.06,199.11,2
622,14.29,-44.72,154.86,2
623,14.31,-27.28,21.06,2
624,14.32,-19.1,-78.39,2
625,14.33,-2.45,17.47,2
626,14.35,9.38,213.21,2
627,14.36,2.4,170.01,2
628,14.37,15.12,-188.82,2
629,14.39,43.56,-328.41,2
630,14.4,31.67,11.92,2
631,14.41,3.4,236.13,2
632,14.43,5.65,61.25,2
633,14.44,19.25,-104.82,2
634,14.45,28.63,-119.55,2
635,14.47,34.23,-122.09,2
636,14.48,30.26,-97.52,2
637,14.49,19.29,-44.17,2
638,14.51,2.84,-38.28,2
639,14.52,-11.23,-55.24,2
640,14.53,-9.48,-55.35,2
641,14.55,1.93,-91.36,1
642,14.56,13.16,-147.53,1
643,14.57,17.94,-118.95,1
644,14.59,7.23,-33.73,1
645,14.6,-4.42,-32.65,1
646,14.61,1.52,-92.02,1
647,14.63,12.8,-69.87,1
648,14.64,12.31,-8.94,1
649,14.65,-4.32,-21.39,1
650,14.67,-23.48,-61.2,1
651,14.68,-25.24,-77.78,1
652,14.69,-12.87,-80.12,1
653,14.71,-0.67,-46.72,1
654,14.72,-2.69,4.05,1
655,14.73,-17.73,-2.09,1
656,14.75,-20.43,-53.13,1
657,14.76,-12.43,-56.1,1
658,14.77,-7.46,-14.95,1
659,14.79,4.65,6.03,1
660,14.8,3.63,16.48,1
661,14.81,-23.83,25.24,1
662,14.83,-32.22,0.77,1
663,14.84,-12.55,-36.5,1
664,14.85,3.7,-30.45,1
665,14.87,14.32,-6.05,1
666,14.88,11.65,-19.93,1
667,14.89,-4.93,-28.91,1
668,14.91,-4.49,10.66,1
669,14.92,12.54,33.49,1
670,14.93,24.77,12.01,1
671,14.95,35.03,19.41,1
672,14.96,28.65,60.23,1
673,14.97,-4.54,61.83,1
674,14.99,-19.9,14.02,1
675,15.0,-3.16,-30.26,1
676,15.01,2.7,-33.72,1
677,15.03,-7.06,2.52,1
678,15.04,-10.58,60.3,1
679,15.05,-11.96,95.57,1
680,15.07,-16.35,72.13,1
681,15.08,-15.82,46.0,1
682,15.09,-0.85,66.5,1
683,15.11,14.36,73.75,1
684,15.12,1.7,27.71,1
685,15.13,-22.33,-20.93,1
686,15.15,-22.83,-22.63,1
687,15.16,-9.24,11.53,1
688,15.17,-3.84,34.79,1
689,15.19,2.88,33.64,1
690,15.2,20.22,31.0,1
691,15.21,25.25,34.46,1
692,15.23,4.68,40.3,1
693,15.24,-15.68,35.53,1
694,15.25,-10.23,8.74,1
695,15.27,15.04,-8.55,1
696,15.28,34.57,15.49,1
697,15.29,23.16,61.85,1
698,15.31,-13.38,82.0,1
699,15.32,-28.99,45.38,1
700,15.33,-7.48,-12.34,1
701,15.35,9.98,-27.71,1
702,15.36,4.82,0.56,1
703,15.37,2.53,29.81,1
704,15.39,3.27,46.82,1
705,15.4,-13.48,53.14,1
706,15.41,-26.97,18.58,1
707,15.43,-6.85,-51.89,1
708,15.44,17.97,-61.45,1
709,15.45,13.04,17.76,1
710,15.47,6.33,68.17,1
711,15.48,4.03,26.58,1
712,15.49,-24.82,-25.48,1
713,15.51,-44.57,-2.71,1
714,15.52,-13.97,64.46,1
715,15.53,23.62,78.08,1
716,15.55,19.26,22.87,1
717,15.56,-8.62,-23.87,1
718,15.57,-15.16,-8.49,1
719,15.59,5.34,45.6,1
720,15.6,22.54,68.94,1
721,15.61,18.81,39.83,1
722,15.63,8.21,6.6,1
723,15.64,6.68,0.25,1
724,15.65,3.71,19.91,1
725,15.67,-8.48,44.31,1
726,15.68,-9.98,29.17,1
727,15.69,5.47,-15.13,1
728,15.71,13.18,-23.2,1
729,15.72,3.57,4.55,1
730,15.73,-6.38,7.2,1
731,15.75,-12.54,-11.82,1
732,15.76,-20.05,6.21,1
733,15.77,-20.86,47.21,1
734,15.78,-14.71,31.21,1
735,15.8,-8.12,-41.01,1
736,15.81,4.66,-68.67,1
737,15.82,19.66,-14.66,1
738,15.84,15.48,33.4,1
739,15.85,-5.61,8.17,1
740,15.86,-8.65,-38.63,1
741,15.88,9.31,-38.84,1
742,15.89,14.24,-23.67,1
743,15.9,0.24,-23.38,1
744,15.92,-8.89,-7.82,1
745,15.93,-0.78,0.25,1
746,15.94,10.2,-19.42,1
747,15.96,6.29,-17.75,1
748,15.97,-1.47,-0.87,1
749,15.98,5.28,-16.73,1
750,16.0,12.26,-42.82,1
751,16.01,0.41,-34.88,1
752,16.03,-16.49,-3.0,1
753,16.04,-19.18,4.91,1
754,16.05,-9.63,-29.65,1
755,16.07,-0.92,-48.19,1
756,16.08,0.03,-10.71,1
757,16.09,1.35,14.9,1
758,16.11,9.19,-8.15,1
759,16.12,14.5,-8.61,1
760,16.13,9.9,12.75,1
761,16.15,3.42,-7.26,1
762,16.16,-1.93,-12.65,0
763,16.17,-11.64,39.85,0
764,16.19,-7.94,71.44,0
765,16.2,19.28,35.0,0
766,16.21,33.26,-29.78,0
767,16.23,17.54,-46.28,0
768,16.24,5.58,-3.98,0
769,16.25,9.13,5.07,0
770,16.27,5.03,-41.79,0
771,16.28,-8.05,-81.65,0
772,16.29,-5.56,-117.6,0
773,16.31,12.27,-155.82,0
774,16.32,18.32,-144.8,0
775,16.33,9.64,-111.09,0
776,16.35,8.91,-131.66,0
777,16.36,17.9,-175.71,0
778,16.37,12.58,-165.26,0
779,16.39,-10.38,-98.66,0
780,16.4,-24.36,-19.23,0
781,16.41,-17.91,39.23,0
782,16.42,-6.84,66.95,0
783,16.44,-6.13,80.11,0
784,16.45,-11.77,94.82,0
785,16.46,-11.04,111.7,0
786,16.48,-3.05,124.62,0
787,16.49,3.57,117.96,0
788,16.5,2.54,96.51,0
789,16.52,-7.9,93.42,0
790,16.53,-17.35,102.96,0
791,16.54,-13.69,93.75,0
792,16.56,-6.19,82.12,1
793,16.57,-8.69,83.49,1
794,16.58,-15.6,77.09,1
795,16.6,-15.86,66.35,1
796,16.61,-8.55,62.99,1
797,16.62,-0.77,53.33,1
798,16.64,2.09,38.73,1
799,16.65,4.67,32.58,1
800,16.67,6.23,31.67,1
801,16.68,-1.12,31.38,1
802,16.69,-7.99,29.17,1
803,16.71,-4.69,22.2,1
804,16.72,-2.65,21.8,1
805,16.73,-5.04,27.6,1
806,16.75,-3.34,17.39,1
807,16.76,0.37,-0.51,1
808,16.77,1.84,0.67,1
809,16.79,2.01,11.88,1
810,16.8,2.42,14.1,1
811,16.81,7.94,7.24,1
812,16.83,12.56,0.08,1
813,16.84,5.61,1.29,1
814,16.85,-2.14,3.34,1
815,16.87,-3.36,-3.35,1
816,16.88,-8.08,-2.62,1
817,16.89,-7.1,4.69,1
818,16.91,9.3,-3.25,1
819,16.92,20.58,-11.55,1
820,16.93,13.99,-6.69,1
821,16.95,0.88,-10.06,1
822,16.96,-9.14,-17.25,1
823,16.97,-10.49,-11.54,1
824,16.99,-2.13,-8.59,1
825,17.0,7.45,-12.29,1
826,17.01,10.66,-13.06,1
827,17.03,6.75,-20.73,1
828,17.04,-2.14,-32.2,1
829,17.05,-7.29,-32.64,1
830,17.06,0.86,-29.87,1
831,17.08,7.79,-30.99,1
832,17.09,-2.51,-27.14,1
833,17.1,-8.49,-21.74,1
834,17.12,7.74,-23.31,1
835,17.13,22.44,-25.96,1
836,17.14,15.6,-25.66,1
837,17.16,0.66,-23.93,1
838,17.17,-2.45,-22.4,1
839,17.18,6.04,-23.38,1
840,17.2,9.54,-19.35,1
841,17.21,6.63,-13.36,1
842,17.22,9.81,-20.74,1
843,17.24,7.71,-25.73,1
844,17.25,-10.24,-15.42,1
845,17.26,-21.25,-16.25,1
846,17.28,-16.58,-27.59,1
847,17.29,-13.23,-27.83,1
848,17.3,-10.97,-29.86,1
849,17.32,-1.69,-33.47,1
850,17.33,8.36,-24.26,1
851,17.35,12.85,-19.62,1
852,17.36,12.11,-22.12,1
853,17.37,5.81,-20.1,1
854,17.39,-5.49,-30.66,1
855,17.4,-14.06,-46.1,1
856,17.41,-10.85,-35.03,1
857,17.43,-1.27,-15.32,1
858,17.44,1.94,-11.51,1
859,17.45,2.37,-10.82,1
860,17.47,6.44,-11.45,1
861,17.48,5.56,-11.22,1
862,17.49,2.83,1.05,1
863,17.51,7.1,6.88,1
864,17.52,1.71,-3.41,1
865,17.53,-15.96,-10.72,1
866,17.55,-14.81,-12.3,1
867,17.56,7.39,-11.36,1
868,17.57,16.15,-7.17,1
869,17.59,3.08,-11.38,1
870,17.6,-8.85,-17.78,1
871,17.61,-8.55,-12.77,1
872,17.63,-5.24,-9.63,1
873,17.64,-7.12,-9.75,1
874,17.65,-5.4,-0.58,1
875,17.67,6.12,5.43,1
876,17.68,10.59,0.23,1
877,17.69,1.22,-6.11,1
878,17.7,-2.27,-10.99,1
879,17.72,3.16,-9.96,1
880,17.73,1.73,1.28,1
881,17.75,-3.29,6.44,1
882,17.76,-4.2,0.62,1
883,17.77,-4.34,2.76,1
884,17.78,0.48,9.11,1
885,17.8,9.65,6.13,1
886,17.81,9.52,-0.23,1
887,17.82,-1.31,-3.77,1
888,17.84,-11.46,2.73,1
889,17.85,-11.0,13.9,1
890,17.86,-1.47,5.45,1
891,17.88,3.09,-7.57,1
892,17.89,-0.91,7.05,1
893,17.9,-1.32,22.86,1
894,17.92,0.66,12.06,1
895,17.93,-1.17,-1.38,1
896,17.94,3.38,-4.04,1
897,17.96,10.52,-2.28,1
898,17.97,2.93,3.97,1
899,17.99,-7.93,4.01,1
900,18.0,-6.7,-1.47,1
901,18.01,-3.86,6.36,1
902,18.03,-4.23,17.16,1
903,18.04,-3.59,15.93,1
904,18.05,-5.89,16.18,1
905,18.07,-8.96,17.07,1
906,18.08,-6.17,10.0,1
907,18.09,-3.2,6.15,1
908,18.11,-5.16,5.99,1
909,18.12,-4.15,4.63,1
910,18.13,3.28,7.74,1
911,18.15,7.19,9.46,1
912,18.16,1.94,10.19,0
913,18.17,-0.9,18.73,0
914,18.19,8.66,18.93,0
915,18.2,19.87,-1.46,0
916,18.21,20.31,-40.23,0
917,18.23,14.94,-101.58,0
918,18.24,15.78,-152.34,0
919,18.25,26.62,-149.2,0
920,18.27,34.49,-122.35,0
921,18.28,26.78,-114.09,0
922,18.29,13.92,-111.82,0
923,18.31,10.99,-106.34,0
924,18.32,13.81,-100.16,0
925,18.33,12.47,-80.28,0
926,18.34,6.79,-55.3,0
927,18.36,0.47,-37.82,0
928,18.37,-4.72,-9.16,0
929,18.38,-9.65,30.73,0
930,18.4,-16.66,60.52,0
931,18.41,-24.8,79.74,0
932,18.42,-30.97,95.7,0
933,18.44,-33.92,113.41,0
934,18.45,-32.09,134.31,0
935,18.46,-28.27,150.8,0
936,18.48,-29.29,168.39,0
937,18.49,-33.52,190.29,0
938,18.5,-30.4,191.81,0
939,18.52,-15.76,171.82,0
940,18.53,-3.88,159.64,0
941,18.54,-6.36,152.47,0
942,18.56,-10.91,140.22,1
943,18.57,-7.56,135.27,1
944,18.58,-6.41,128.91,1
945,18.6,-10.48,109.66,1
946,18.61,-9.97,95.46,1
947,18.63,-6.27,88.1,1
948,18.64,-6.48,73.02,1
949,18.65,-4.3,59.92,1
950,18.67,3.28,54.4,1
951,18.68,5.76,42.74,1
952,18.69,3.34,25.08,1
953,18.71,6.54,11.74,1
954,18.72,10.11,9.09,1
955,18.73,4.11,14.44,1
956,18.75,-2.93,9.23,1
957,18.76,-1.09,-5.64,1
958,18.77,4.82,-5.12,1
959,18.79,4.57,1.93,1
960,18.8,-3.03,-8.37,1
961,18.81,-0.73,-24.5,1
962,18.83,14.91,-31.27,1
963,18.84,16.13,-26.72,1
964,18.85,2.04,-16.34,1
965,18.87,-2.74,-24.53,1
966,18.88,-4.16,-48.43,1
967,18.89,-9.43,-50.97,1
968,18.91,0.85,-39.07,1
969,18.92,19.22,-41.45,1
970,18.93,15.3,-48.26,1
971,18.95,-0.89,-52.96,1
972,18.96,1.91,-58.57,1
973,18.97,19.16,-51.83,1
974,18.98,24.4,-43.27,1
975,19.0,13.29,-50.21,1
976,19.01,2.33,-52.38,1
977,19.02,-3.67,-42.38,1
978,19.04,-7.16,-40.48,1
979,19.05,1.53,-45.57,1
980,19.06,17.17,-50.58,1
981,19.08,19.54,-58.35,1
982,19.09,14.25,-61.1,1
983,19.1,13.85,-57.62,1
984,19.12,8.0,-55.53,1
985,19.13,-6.44,-49.57,1
986,19.14,-9.96,-44.57,1
987,19.16,3.53,-49.36,1
988,19.17,13.41,-48.17,1
989,19.18,5.55,-41.22,1
990,19.2,-7.95,-47.8,1
991,19.21,-9.33,-53.86,1
992,19.22,0.03,-45.4,1
993,19.24,3.33,-36.67,1
994,19.25,-1.3,-31.65,1
995,19.27,1.91,-31.04,1
996,19.28,11.77,-38.72,1
997,19.29,11.14,-40.83,1
998,19.31,3.67,-34.64,1
999,19.32,1.68,-31.48,1
1000,19.33,-1.6,-27.43,1
1001,19.35,-6.12,-24.93,1
1002,19.36,-2.06,-28.21,1
1003,19.37,-0.08,-21.69,1
1004,19.39,-5.82,-13.57,1
1005,19.4,-2.13,-24.73,1
1006,19.41,12.83,-31.07,1
1007,19.43,18.91,-15.33,1
1008,19.44,8.39,-4.94,1
1009,19.45,-4.08,-9.45,1
1010,19.47,-6.4,-14.93,1
1011,19.48,-2.7,-15.81,1
1012,19.49,1.13,-8.75,1
1013,19.51,5.73,-4.32,1
1014,19.52,7.48,-13.85,1
1015,19.53,4.79,-18.82,1
1016,19.55,3.06,-8.05,1
1017,19.56,-1.95,3.29,1
1018,19.57,-8.32,7.08,1
1019,19.59,0.42,2.68,1
1020,19.6,13.64,-7.33,1
1021,19.61,6.12,-8.14,1
1022,19.62,-8.97,1.52,1
1023,19.64,-7.04,7.68,1
1024,19.65,1.78,12.23,1
1025,19.67,-4.12,15.24,1
1026,19.68,-19.63,10.93,1
1027,19.69,-24.08,12.93,1
1028,19.7,-12.03,20.04,1
1029,19.72,0.41,12.39,1
1030,19.73,1.17,5.28,1
1031,19.75,-2.11,13.3,1
1032,19.76,-1.15,14.0,1
1033,19.77,2.12,7.2,1
1034,19.78,4.82,9.09,1
1035,19.8,3.87,12.79,1
1036,19.81,0.25,19.79,1
1037,19.82,0.58,30.51,1
1038,19.84,0.03,27.15,1
1039,19.85,-8.41,17.04,1
1040,19.86,-12.7,14.64,1
1041,19.88,-2.52,7.35,1
1042,19.89,11.81,1.39,1
1043,19.9,16.78,12.35,1
1044,19.92,12.0,24.4,1
1045,19.93,5.92,25.97,1
1046,19.95,1.38,20.89,1
1047,19.96,-4.08,13.6,1
1048,19.97,-7.18,16.5,1
1049,19.99,-5.36,23.71,1
1050,20.0,-4.27,16.58,1
1051,20.01,-6.02,7.15,1
1052,20.03,-3.77,9.98,1
1053,20.04,0.16,15.33,1
1054,20.05,-1.33,23.21,1
1055,20.07,-2.78,29.97,1
1056,20.08,-1.93,17.81,1
1057,20.09,-3.07,3.92,1
1058,20.11,-0.23,11.08,1
1059,20.12,4.77,17.5,1
1060,20.13,-1.89,15.57,1
1061,20.15,-13.81,23.23,1
1062,20.16,-13.06,29.43,2
1063,20.17,-2.75,25.29,2
1064,20.19,1.84,23.46,2
1065,20.2,-1.89,18.95,2
1066,20.21,-3.89,11.99,2
1067,20.23,2.78,17.62,2
1068,20.24,9.64,25.74,2
1069,20.25,6.62,20.22,2
1070,20.26,-0.78,7.46,2
1071,20.28,-3.93,-2.98,2
1072,20.29,-3.66,7.02,2
1073,20.3,-0.05,67.68,2
1074,20.32,2.29,179.29,2
1075,20.33,-10.57,300.55,2
1076,20.34,-38.01,369.18,2
1077,20.36,-58.46,343.6,2
1078,20.37,-56.39,258.52,2
1079,20.38,-38.1,174.78,2
1080,20.4,-20.37,98.67,2
1081,20.41,-10.27,23.01,2
1082,20.42,-3.33,-47.37,2
1083,20.44,0.33,-123.76,2
1084,20.45,0.13,-197.21,2
1085,20.46,6.63,-231.0,2
1086,20.48,21.72,-225.96,2
1087,20.49,29.25,-209.73,2
1088,20.5,25.19,-192.04,2
1089,20.52,23.84,-179.84,2
1090,20.53,24.54,-170.1,2
1091,20.54,17.03,-151.5,2
1092,20.56,10.34,-135.79,1
1093,20.57,17.65,-129.7,1
1094,20.59,28.55,-122.5,1
1095,20.6,26.59,-117.98,1
1096,20.61,17.72,-110.07,1
1097,20.63,15.86,-87.74,1
1098,20.64,15.19,-71.85,1
1099,20.65,7.58,-69.98,1
1100,20.67,6.19,-63.51,1
1101,20.68,14.01,-58.64,1
1102,20.69,11.51,-59.18,1
1103,20.71,3.76,-45.69,1
1104,20.72,5.61,-24.98,1
1105,20.73,3.08,-19.99,1
1106,20.75,-0.88,-27.73,1
1107,20.76,9.47,-30.98,1
1108,20.77,14.46,-18.78,1
1109,20.79,4.58,-2.62,1
1110,20.8,-2.62,-5.04,1
1111,20.81,-7.14,-11.29,1
1112,20.83,-13.97,2.18,1
1113,20.84,-16.44,14.23,1
1114,20.85,-15.71,11.23,1
1115,20.87,-13.01,10.86,1
1116,20.88,-5.03,12.52,1
1117,20.89,3.53,13.7,1
1118,20.9,9.38,20.94,1
1119,20.92,14.48,20.49,1
1120,20.93,14.8,11.64,1
1121,20.94,7.96,18.95,1
1122,20.96,0.09,39.34,1
1123,20.97,-3.78,49.45,1
1124,20.98,-4.74,46.97,1
1125,21.0,-7.3,39.71,1
1126,21.01,-14.38,35.22,1
1127,21.02,-14.16,38.31,1
1128,21.04,-0.27,38.27,1
1129,21.05,4.23,34.92,1
1130,21.06,-8.33,38.29,1
1131,21.08,-12.79,36.4,1
1132,21.09,-6.23,33.53,1
1133,21.1,-4.63,45.29,1
1134,21.12,-5.79,47.71,1
1135,21.13,-6.54,36.68,1
1136,21.14,-9.68,42.65,1
1137,21.16,-9.9,51.07,1
1138,21.17,-4.54,43.5,1
1139,21.18,0.02,42.52,1
1140,21.2,-0.82,46.99,1
1141,21.21,-7.63,38.65,1
1142,21.23,-13.78,29.15,1
1143,21.24,-10.25,28.37,1
1144,21.25,-1.52,31.18,1
1145,21.27,4.84,36.17,1
1146,21.28,7.88,39.09,1
1147,21.29,1.81,38.45,1
1148,21.31,-8.93,37.21,1
1149,21.32,-8.47,31.8,1
1150,21.33,-2.58,27.61,1
1151,21.35,-4.76,29.74,1
1152,21.36,-8.5,24.26,1
1153,21.37,-4.92,13.15,1
1154,21.39,2.93,14.58,1
1155,21.4,7.07,19.28,1
1156,21.41,6.41,18.31,1
1157,21.43,5.58,22.08,1
1158,21.44,0.88,21.33,1
1159,21.45,-8.36,9.84,1
1160,21.47,-5.58,8.53,1
1161,21.48,11.81,17.62,1
1162,21.49,18.05,21.27,1
1163,21.51,5.07,18.22,1
1164,21.52,-8.02,10.01,1
1165,21.53,-14.6,6.03,1
1166,21.54,-19.77,8.72,1
1167,21.56,-20.34,0.01,1
1168,21.57,-8.45,-11.97,1
1169,21.58,14.81,-2.62,1
1170,21.6,30.67,10.69,1
1171,21.61,22.56,10.67,1
1172,21.62,5.97,11.92,1
1173,21.64,2.78,7.29,1
1174,21.65,4.34,-12.58,1
1175,21.67,-1.93,-19.29,1
1176,21.68,-5.14,-6.32,1
1177,21.69,3.42,2.82,1
1178,21.7,10.18,4.86,1
1179,21.72,0.34,1.24,1
1180,21.73,-13.38,-6.33,1
1181,21.75,-8.1,-5.41,1
1182,21.76,4.53,-4.67,1
1183,21.77,1.39,-13.4,1
1184,21.78,-4.25,-14.54,1
1185,21.8,1.77,-10.99,1
1186,21.81,2.75,-14.03,1
1187,21.82,-5.53,-12.26,1
1188,21.84,-4.23,-11.97,1
1189,21.85,4.95,-20.35,1
1190,21.87,5.27,-17.53,1
1191,21.88,-1.02,-7.76,1
1192,21.89,-3.49,-10.72,1
1193,21.91,-3.12,-16.2,1
1194,21.92,-3.74,-16.29,1
1195,21.93,-1.1,-16.7,1
1196,21.95,7.64,-15.0,1
1197,21.96,13.94,-17.51,1
1198,21.97,11.34,-24.98,1
1199,21.99,2.58,-20.71,1
1200,22.0,-8.55,-11.91,1
1201,22.01,-11.53,-11.66,1
1202,22.03,-0.22,-13.16,1
1203,22.04,8.25,-22.21,1
1204,22.05,3.88,-34.6,1
1205,22.07,-0.42,-24.84,1
1206,22.08,-1.97,-8.64,1
1207,22.09,-7.46,-12.05,1
1208,22.11,-8.24,-19.02,1
1209,22.12,0.73,-26.65,1
1210,22.13,4.05,-38.37,1
1211,22.15,-1.01,-31.51,1
1212,22.16,0.92,-17.59,2
1213,22.17,2.01,-16.56,2
1214,22.18,-4.93,10.18,2
1215,22.2,3.0,79.27,2
1216,22.21,19.81,139.26,2
1217,22.22,10.04,153.55,2
1218,22.24,-16.2,135.22,2
1219,22.25,-24.61,131.87,2
1220,22.26,-17.87,162.08,2
1221,22.28,-15.78,115.68,2
1222,22.29,-15.26,-90.13,2
1223,22.3,6.19,-233.59,2
1224,22.32,43.27,-85.18,2
1225,22.33,43.08,127.42,2
1226,22.34,-6.52,98.02,2
1227,22.36,-41.81,-48.77,2
1228,22.37,-32.07,-81.31,2
1229,22.38,-9.82,-40.5,2
1230,22.4,0.2,-11.93,2
1231,22.41,3.48,39.31,2
1232,22.42,11.99,59.11,2
1233,22.44,26.97,-9.34,2
1234,22.45,40.82,-35.05,2
1235,22.46,34.43,20.94,2
1236,22.48,7.04,-7.58,2
1237,22.49,-10.67,-162.75,2
1238,22.5,-12.73,-267.3,2
1239,22.52,-12.52,-206.94,2
1240,22.53,-9.13,-84.59,2
1241,22.55,-1.64,-45.91,1
1242,22.56,5.08,-75.21,1
1243,22.57,4.22,-45.33,1
1244,22.59,4.57,30.4,1
1245,22.6,15.27,20.89,1
1246,22.61,12.67,-44.69,1
1247,22.63,-7.48,-56.99,1
1248,22.64,-6.42,-49.71,1
1249,22.65,13.78,-80.77,1
1250,22.67,8.9,-96.87,1
1251,22.68,-9.1,-79.89,1
1252,22.69,0.29,-102.78,1
1253,22.71,18.26,-123.55,1
1254,22.72,13.86,-45.18,1
1255,22.73,0.89,18.18,1
1256,22.75,-0.87,-42.96,1
1257,22.76,3.74,-92.25,1
1258,22.77,3.85,-47.56,1
1259,22.79,-0.79,-0.18,1
1260,22.8,-11.73,19.24,1
1261,22.81,-19.44,31.06,1
1262,22.82,-2.94,5.41,1
1263,22.84,16.24,-54.4,1
1264,22.85,9.31,-68.01,1
1265,22.86,2.08,-4.79,1
1266,22.88,4.44,49.96,1
1267,22.89,-10.28,43.41,1
1268,22.9,-28.53,20.12,1
1269,22.92,-21.68,11.06,1
1270,22.93,-7.49,14.27,1
1271,22.94,-1.92,26.51,1
1272,22.96,11.34,20.79,1
1273,22.97,18.54,-5.6,1
1274,22.98,-4.95,6.15,1
1275,23.0,-24.4,43.89,1
1276,23.01,-10.8,28.56,1
1277,23.02,7.33,3.78,1
1278,23.04,7.4,41.21,1
1279,23.05,-2.74,74.55,1
1280,23.06,-11.84,44.24,1
1281,23.08,-18.17,5.28,1
1282,23.09,-20.28,20.82,1
1283,23.1,-8.5,49.85,1
1284,23.12,5.83,2.4,1
1285,23.13,-2.72,-64.23,1
1286,23.14,-18.32,-17.51,1
1287,23.16,-15.34,81.37,1
1288,23.17,-4.81,108.82,1
1289,23.19,3.26,85.59,1
1290,23.2,4.16,50.33,1
1291,23.21,-2.94,8.89,1
1292,23.23,6.06,-18.65,1
1293,23.24,31.09,-26.63,1
1294,23.25,34.89,4.3,1
1295,23.27,14.91,62.84,1
1296,23.28,0.27,50.66,1
1297,23.29,-9.48,-37.67,1
1298,23.31,-19.22,-40.32,1
1299,23.32,-11.86,86.9,1
1300,23.33,-0.42,162.23,1
1301,23.35,-6.48,97.68,1
1302,23.36,-12.88,21.59,1
1303,23.37,-8.94,26.49,1
1304,23.39,-0.94,53.66,1
1305,23.4,8.97,30.34,1
1306,23.41,12.15,-9.19,1
1307,23.43,4.06,5.97,1
1308,23.44,-8.23,60.32,1
1309,23.45,-16.69,86.14,1
1310,23.46,-12.64,62.06,1
1311,23.48,6.33,19.35,1
1312,23.49,26.53,-5.74,1
1313,23.5,26.4,-10.48,1
1314,23.52,8.2,-19.44,1
1315,23.53,3.67,-19.53,1
1316,23.54,22.46,5.49,1
1317,23.56,31.82,21.82,1
1318,23.57,9.9,26.18,1
1319,23.58,-12.86,32.97,1
1320,23.6,-3.06,31.44,1
1321,23.61,13.01,32.41,1
1322,23.62,-1.75,44.35,1
1323,23.64,-29.81,46.16,1
1324,23.65,-35.1,31.45,1
1325,23.67,-9.43,29.84,1
1326,23.68,21.98,38.81,1
1327,23.69,25.32,10.38,1
1328,23.7,2.32,-20.86,1
1329,23.72,-20.22,4.71,1
1330,23.73,-23.1,14.52,1
1331,23.75,2.59,-41.46,1
1332,23.76,32.77,-70.81,1
1333,23.77,25.99,-21.77,1
1334,23.78,-4.62,39.38,1
1335,23.8,-8.79,61.95,1
1336,23.81,7.6,63.35,1
1337,23.83,0.31,47.66,1
1338,23.84,-19.66,-4.64,1
1339,23.85,-17.42,-48.07,1
1340,23.87,-2.85,-10.83,1
1341,23.88,-0.81,44.46,1
1342,23.89,-12.99,-0.76,1
1343,23.91,-18.12,-71.04,1
1344,23.92,-6.65,-30.69,1
1345,23.93,-5.14,35.45,1
1346,23.95,-18.55,8.36,1
1347,23.96,-13.61,-39.71,1
1348,23.97,5.49,-29.87,1
1349,23.99,7.55,3.94,1
1350,24.0,4.28,9.3,1
1351,24.01,20.36,-30.37,1
1352,24.03,38.66,-40.14,1
1353,24.04,26.05,17.96,1
1354,24.05,-10.28,16.4,1
1355,24.07,-24.04,-61.1,1
1356,24.08,5.94,-76.41,1
1357,24.09,39.44,-53.48,1
1358,24.1,33.86,-77.67,1
1359,24.12,10.34,-73.17,1
1360,24.13,-1.39,12.36,1
1361,24.14,-15.47,77.27,1
1362,24.16,-27.63,55.02,0
1363,24.17,-17.52,5.89,0
1364,24.18,-2.25,-21.83,0
1365,24.2,-2.83,-74.29,0
1366,24.21,-14.88,-179.39,0
1367,24.22,-18.37,-237.86,0
1368,24.24,1.83,-183.56,0
1369,24.25,24.0,-124.29,0
1370,24.26,21.86,-146.43,0
1371,24.28,8.62,-188.14,0
1372,24.29,2.15,-183.37,0
1373,24.3,2.37,-132.7,0
1374,24.32,12.12,-62.01,0
1375,24.33,19.29,2.52,0
1376,24.34,4.9,54.73,0
1377,24.36,-16.28,91.96,0
1378,24.37,-23.72,101.55,0
1379,24.38,-22.42,102.94,0
1380,24.4,-22.63,116.39,0
1381,24.41,-23.25,116.7,0
1382,24.42,-15.19,103.26,0
1383,24.44,-3.19,103.87,0
1384,24.45,-4.81,99.37,0
1385,24.46,-15.28,78.99,0
1386,24.48,-13.89,73.92,0
1387,24.49,-4.75,78.43,0
1388,24.51,-2.5,70.63,0
1389,24.52,-2.72,62.61,0
1390,24.53,1.29,59.39,0
1391,24.55,5.76,57.67,1
1392,24.56,5.53,59.98,1
1393,24.57,-0.27,52.05,1
1394,24.59,-2.11,33.93,1
1395,24.6,5.99,26.41,1
1396,24.61,8.27,23.38,1
1397,24.63,-1.7,14.85,1
1398,24.64,-3.01,13.65,1
1399,24.65,7.0,17.82,1
1400,24.67,4.88,19.18,1
1401,24.68,-7.61,23.91,1
1402,24.69,-8.44,21.91,1
1403,24.71,-0.09,11.66,1
1404,24.72,1.81,18.62,1
1405,24.73,-1.85,30.13,1
1406,24.75,0.01,22.15,1
1407,24.76,8.47,17.12,1
1408,24.77,6.84,21.52,1
1409,24.78,-11.72,16.43,1
1410,24.8,-18.97,9.4,1
1411,24.81,2.38,6.2,1
1412,24.82,23.76,2.69,1
1413,24.84,20.29,2.89,1
1414,24.85,6.73,-3.46,1
1415,24.86,3.92,-14.96,1
1416,24.88,6.93,-8.3,1
1417,24.89,2.47,3.18,1
1418,24.9,-3.33,-4.91,1
1419,24.92,3.0,-15.52,1
1420,24.93,11.4,-14.74,1
1421,24.94,6.9,-9.16,1
1422,24.96,-0.28,-1.17,1
1423,24.97,-2.68,-5.18,1
1424,24.98,-8.44,-26.24,1
1425,25.0,-8.14,-37.92,1
1426,25.01,8.05,-29.81,1
1427,25.02,16.38,-13.84,1
1428,25.04,2.21,-2.45,1
1429,25.05,-11.91,-9.27,1
1430,25.06,-7.94,-20.39,1
1431,25.08,2.54,-8.33,1
1432,25.09,2.25,1.28,1
1433,25.1,-3.34,-20.42,1
1434,25.12,1.37,-37.08,1
1435,25.13,7.6,-32.05,1
1436,25.15,5.43,-35.39,1
1437,25.16,7.09,-37.23,1
1438,25.17,7.67,-20.17,1
1439,25.19,-4.35,-7.54,1
1440,25.2,-9.06,-10.34,1
1441,25.21,2.86,-19.56,1
1442,25.23,8.19,-24.63,1
1443,25.24,-1.28,-19.3,1
1444,25.25,-12.77,-21.61,1
1445,25.27,-15.94,-32.96,1
1446,25.28,-8.34,-22.9,1
1447,25.29,-2.92,-0.16,1
1448,25.31,-5.82,2.06,1
1449,25.32,-1.88,-8.02,1
1450,25.33,9.17,-14.12,1
1451,25.35,11.02,-20.64,1
1452,25.36,2.11,-21.0,1
1453,25.37,-7.25,-13.08,1
1454,25.38,-7.53,-12.34,1
1455,25.4,6.08,-17.92,1
1456,25.41,21.68,-22.31,1
1457,25.42,21.79,-22.46,1
1458,25.44,9.29,-10.23,1
1459,25.45,-3.65,-3.61,1
1460,25.46,-7.25,-24.02,1
1461,25.48,2.71,-39.72,1
1462,25.49,12.65,-26.93,1
1463,25.5,8.91,-12.08,1
1464,25.52,-2.11,-10.38,1
1465,25.53,-12.09,-18.41,1
1466,25.54,-16.06,-25.18,1
1467,25.56,-7.82,-14.15,1
1468,25.57,4.09,-2.6,1
1469,25.58,5.84,-9.0,1
1470,25.6,-0.65,-14.77,1
1471,25.61,-8.79,-12.14,1
1472,25.62,-11.45,-8.7,1
1473,25.64,-2.72,-0.48,1
1474,25.65,8.74,8.41,1
1475,25.67,12.68,2.42,1
1476,25.68,13.32,-12.09,1
1477,25.69,14.02,-19.33,1
1478,25.7,9.66,-19.06,1
1479,25.72,-0.54,-10.15,1
1480,25.73,-9.18,-1.4,1
1481,25.75,-8.17,-5.78,1
1482,25.76,2.27,-5.6,1
1483,25.77,10.16,7.26,1
1484,25.79,7.67,11.22,1
1485,25.8,4.27,4.48,1
1486,25.81,5.31,-1.93,1
1487,25.83,0.37,-7.78,1
1488,25.84,-9.44,-6.96,1
1489,25.85,-11.25,-0.94,1
1490,25.87,-4.43,-1.71,1
1491,25.88,2.07,-0.83,1
1492,25.89,-1.16,5.43,1
1493,25.91,-12.05,3.93,1
1494,25.92,-13.61,4.5,1
1495,25.93,-2.63,6.77,1
1496,25.95,5.18,-9.08,1
1497,25.96,6.3,-16.74,1
1498,25.97,5.81,7.92,1
1499,25.99,3.57,29.18,1
1500,26.0,0.71,21.2,1
1501,26.01,-2.47,3.24,1
1502,26.02,-7.64,-1.07,1
1503,26.04,-12.64,9.06,1
1504,26.05,-16.46,12.23,1
1505,26.06,-15.42,-0.51,1
1506,26.08,-2.01,-6.78,1
1507,26.09,12.68,-0.46,1
1508,26.1,8.46,0.97,1
1509,26.12,-4.02,6.41,1
1510,26.13,-3.2,22.25,1
1511,26.14,3.97,27.82,1
1512,26.16,5.41,27.25,0
1513,26.17,7.02,29.29,0
1514,26.18,8.23,11.29,0
1515,26.2,5.1,-34.13,0
1516,26.21,10.56,-88.94,0
1517,26.22,24.92,-127.5,0
1518,26.24,27.46,-121.02,0
1519,26.25,19.31,-95.06,0
1520,26.26,15.26,-106.31,0
1521,26.28,11.11,-134.34,0
1522,26.29,6.38,-130.64,0
1523,26.3,12.57,-111.77,0
1524,26.32,22.98,-101.9,0
1525,26.33,21.85,-90.1,0
1526,26.34,12.49,-68.2,0
1527,26.36,4.43,-33.6,0
1528,26.37,-1.58,6.27,0
1529,26.38,-3.74,34.68,0
1530,26.4,-2.49,65.89,0
1531,26.41,-2.36,109.72,0
1532,26.43,0.45,136.77,0
1533,26.44,4.83,146.65,0
1534,26.45,-7.62,163.75,0
1535,26.47,-32.73,175.41,0
1536,26.48,-40.77,170.46,0
1537,26.49,-28.9,160.74,0
1538,26.51,-23.66,147.95,0
1539,26.52,-34.97,141.22,0
1540,26.53,-42.81,149.54,0
1541,26.55,-38.49,154.48,1
1542,26.56,-37.26,149.18,1
1543,26.57,-39.89,141.94,1
1544,26.59,-33.74,127.22,1
1545,26.6,-22.91,110.94,1
1546,26.61,-19.99,104.07,1
1547,26.63,-15.76,98.49,1
1548,26.64,-3.84,90.22,1
1549,26.65,-7.85,78.15,1
1550,26.67,-20.62,58.73,1
1551,26.68,-7.88,47.28,1
1552,26.69,10.05,45.92,1
1553,26.7,4.79,33.05,1
1554,26.72,-0.75,14.57,1
1555,26.73,1.34,5.96,1
1556,26.75,-5.16,-1.39,1
1557,26.76,-6.49,-5.05,1
1558,26.77,8.92,-2.5,1
1559,26.78,20.94,-13.36,1
1560,26.8,17.71,-31.03,1
1561,26.81,6.27,-30.55,1
1562,26.82,-0.36,-20.72,1
1563,26.84,6.92,-17.66,1
1564,26.85,10.13,-21.06,1
1565,26.86,-3.87,-32.22,1
1566,26.88,-5.75,-39.49,1
1567,26.89,15.32,-34.13,1
1568,26.9,25.65,-37.61,1
1569,26.92,16.15,-48.13,1
1570,26.93,4.91,-43.57,1
1571,26.94,-0.05,-39.34,1
1572,26.96,4.79,-45.43,1
1573,26.97,10.32,-50.5,1
1574,26.98,-1.05,-63.18,1
1575,27.0,-14.32,-71.52,1
1576,27.01,-5.07,-55.09,1
1577,27.02,9.78,-44.8,1
1578,27.04,9.28,-55.53,1
1579,27.05,8.41,-58.4,1
1580,27.06,14.8,-53.87,1
1581,27.08,13.25,-50.41,1
1582,27.09,4.85,-43.94,1
1583,27.11,4.11,-48.49,1
1584,27.12,12.94,-56.11,1
1585,27.13,22.2,-46.48,1
1586,27.15,20.45,-39.25,1
1587,27.16,9.18,-43.44,1
1588,27.17,7.49,-45.07,1
1589,27.19,27.07,-52.29,1
1590,27.2,50.65,-61.6,1
1591,27.21,44.54,-55.32,1
1592,27.23,8.48,-46.75,1
1593,27.24,-18.55,-46.22,1
1594,27.25,-22.19,-42.62,1
1595,27.27,-16.55,-40.17,1
1596,27.28,-6.5,-42.67,1
1597,27.29,2.39,-40.47,1
1598,27.3,4.62,-38.79,1
1599,27.32,6.15,-39.42,1
1600,27.33,1.72,-30.59,1
1601,27.34,-14.9,-21.66,1
1602,27.36,-21.75,-21.88,1
1603,27.37,-8.8,-21.06,1
1604,27.38,-1.45,-22.27,1
1605,27.4,-7.7,-28.36,1
1606,27.41,-7.99,-28.31,1
1607,27.42,2.24,-22.98,1
1608,27.44,8.75,-16.51,1
1609,27.45,8.51,-12.25,1
1610,27.46,11.73,-15.35,1
1611,27.48,14.43,-15.92,1
1612,27.49,6.3,-12.56,1
1613,27.5,-4.09,-18.59,1
1614,27.52,-2.06,-22.13,1
1615,27.53,10.1,-11.48,1
1616,27.54,15.99,-6.27,1
1617,27.56,12.26,-8.35,1
1618,27.57,11.6,-3.47,1
1619,27.58,14.04,-2.19,1
1620,27.6,4.56,-5.41,1
1621,27.61,-17.98,1.7,1
1622,27.62,-25.18,9.8,1
1623,27.64,-4.42,12.66,1
1624,27.65,5.96,14.98,1
1625,27.67,-11.39,5.71,1
1626,27.68,-19.7,-5.17,1
1627,27.69,-8.9,7.53,1
1628,27.7,-4.1,25.98,1
1629,27.72,-5.94,26.54,1
1630,27.73,-5.85,21.93,1
1631,27.75,-7.74,17.58,1
1632,27.76,-8.85,10.05,1
1633,27.77,-7.59,13.72,1
1634,27.79,-5.86,22.49,1
1635,27.8,1.96,15.09,1
1636,27.81,7.06,6.39,1
1637,27.83,-5.88,12.04,1
1638,27.84,-17.76,17.07,1
1639,27.85,-7.96,18.12,1
1640,27.87,2.68,22.03,1
1641,27.88,-3.52,22.8,1
1642,27.89,-12.8,17.52,1
1643,27.91,-12.55,11.03,1
1644,27.92,-5.79,10.59,1
1645,27.93,-0.32,13.79,1
1646,27.94,2.48,8.8,1
1647,27.96,8.32,9.01,1
1648,27.97,10.09,25.92,1
1649,27.98,-3.31,29.21,1
1650,28.0,-14.51,14.84,1
1651,28.01,-4.65,17.34,1
1652,28.02,10.79,25.53,1
1653,28.04,16.48,15.98,1
1654,28.05,18.54,9.77,1
1655,28.06,15.94,15.54,1
1656,28.08,2.51,22.48,1
1657,28.09,-7.7,29.57,1
1658,28.1,-3.92,27.52,1
1659,28.12,2.12,19.68,1
1660,28.13,2.29,21.94,1
1661,28.14,-1.74,23.41,1
1662,28.16,-3.77,20.36,2
1663,28.17,1.89,25.67,2
1664,28.18,7.23,26.5,2
1665,28.2,6.44,17.04,2
1666,28.21,4.86,23.71,2
1667,28.22,2.51,61.76,2
1668,28.24,-2.93,136.23,2
1669,28.25,-13.02,243.7,2
1670,28.26,-30.64,335.46,2
1671,28.28,-45.99,360.69,2
1672,28.29,-47.16,324.51,2
1673,28.3,-41.93,251.79,2
1674,28.32,-34.78,162.57,2
1675,28.33,-17.99,76.37,2
1676,28.34,0.23,-1.7,2
1677,28.36,7.93,-66.9,2
1678,28.37,8.06,-116.33,2
1679,28.39,7.01,-170.79,2
1680,28.4,13.86,-229.16,2
1681,28.41,24.92,-253.3,2
1682,28.43,23.9,-240.23,2
1683,28.44,19.91,-220.52,2
1684,28.45,27.97,-199.03,2
1685,28.47,32.45,-177.32,2
1686,28.48,24.86,-165.37,2
1687,28.49,20.41,-155.37,2
1688,28.51,23.7,-143.63,2
1689,28.52,24.05,-133.33,2
1690,28.53,15.28,-116.78,2
1691,28.55,6.76,-103.44,1
1692,28.56,11.03,-102.05,1
1693,28.57,23.74,-84.45,1
1694,28.58,27.96,-46.66,1
1695,28.6,21.93,-30.6,1
1696,28.61,26.03,-42.76,1
1697,28.62,37.43,-54.54,1
1698,28.64,29.4,-55.04,1
1699,28.65,9.37,-41.34,1
1700,28.67,1.86,-21.96,1
1701,28.68,4.52,-13.23,1
1702,28.69,4.32,-6.24,1
1703,28.7,-5.22,3.33,1
1704,28.72,-17.06,2.03,1
1705,28.73,-16.38,0.43,1
1706,28.75,-7.14,7.25,1
1707,28.76,-3.43,7.94,1
1708,28.77,-7.22,5.94,1
1709,28.78,-16.6,9.02,1
1710,28.8,-24.47,11.09,1
1711,28.81,-19.0,15.2,1
1712,28.82,-9.6,16.41,1
1713,28.84,-10.78,10.7,1
1714,28.85,-12.6,16.84,1
1715,28.86,-10.78,27.3,1
1716,28.88,-15.02,24.26,1
1717,28.89,-17.11,29.64,1
1718,28.9,-5.6,46.63,1
1719,28.92,5.56,48.35,1
1720,28.93,-0.35,40.65,1
1721,28.94,-15.61,40.63,1
1722,28.96,-20.93,42.28,1
1723,28.97,-12.9,40.14,1
1724,28.98,-6.59,34.2,1
1725,29.0,-9.94,27.43,1
1726,29.01,-11.41,34.39,1
1727,29.03,-5.73,52.08,1
1728,29.04,-6.24,53.48,1
1729,29.05,-13.88,42.11,1
1730,29.07,-14.51,40.55,1
1731,29.08,-8.72,43.5,1
1732,29.09,-6.0,42.13,1
1733,29.11,-3.79,40.91,1
1734,29.12,2.98,41.54,1
1735,29.13,5.42,47.66,1
1736,29.15,-5.04,53.71,1
1737,29.16,-15.77,44.62,1
1738,29.17,-13.07,30.81,1
1739,29.19,-4.07,28.61,1
1740,29.2,-0.89,30.18,1
1741,29.21,-1.93,33.52,1
1742,29.22,2.43,38.83,1
1743,29.24,12.35,34.53,1
1744,29.25,14.5,29.74,1
1745,29.26,2.1,32.74,1
1746,29.28,-11.31,29.83,1
1747,29.29,-16.0,26.03,1
1748,29.3,-15.18,24.61,1
1749,29.32,-7.76,9.59,1
1750,29.33,0.44,2.67,1
1751,29.34,-2.92,24.09,1
1752,29.36,-7.11,33.44,1
1753,29.37,1.06,16.53,1
1754,29.38,6.72,11.27,1
1755,29.4,0.3,19.21,1
1756,29.41,-2.56,17.0,1
1757,29.42,4.43,9.2,1
1758,29.44,7.85,8.0,1
1759,29.45,0.06,12.95,1
1760,29.46,-7.49,12.54,1
1761,29.48,-2.79,2.68,1
1762,29.49,4.2,-0.69,1
1763,29.5,1.56,-0.43,1
1764,29.52,-1.18,-11.93,1
1765,29.53,1.35,-11.36,1
1766,29.54,-2.77,11.39,1
1767,29.56,-11.28,17.55,1
1768,29.57,-7.86,2.75,1
1769,29.58,4.16,-5.86,1
1770,29.6,10.58,-8.94,1
1771,29.61,10.85,-7.73,1
1772,29.62,6.91,-4.6,1
1773,29.64,-0.67,-14.94,1
1774,29.65,-4.21,-23.62,1
1775,29.67,-0.67,-15.65,1
1776,29.68,5.84,-14.08,1
1777,29.69,9.72,-20.47,1
1778,29.71,2.72,-15.2,1
1779,29.72,-8.29,-9.68,1
1780,29.73,-4.88,-13.04,1
1781,29.75,7.8,-16.96,1
1782,29.76,11.33,-23.29,1
1783,29.77,7.33,-28.19,1
1784,29.79,7.94,-21.81,1
1785,29.8,8.54,-11.02,1
1786,29.81,-0.42,-3.76,1
1787,29.83,-6.54,-0.84,1
1788,29.84,3.35,-6.79,1
1789,29.85,10.81,-13.92,1
1790,29.86,3.46,-12.47,1
1791,29.88,0.82,-15.35,1
1792,29.89,8.08,-23.33,1
1793,29.9,5.6,-20.56,1
1794,29.92,-7.44,-15.15,1
1795,29.93,-12.47,-16.69,1
1796,29.94,-2.7,-16.28,1
1797,29.96,12.37,-14.92,1
1798,29.97,17.74,-16.04,1
1799,29.98,7.82,-16.2,1
1800,30.0,-0.44,-20.38,1
1801,30.01,5.52,-23.06,1
1802,30.02,10.92,-14.96,1
1803,30.04,6.2,-14.2,1
1804,30.05,-0.7,-27.85,1
1805,30.06,-4.39,-33.06,1
1806,30.08,-1.9,-26.24,1
1807,30.09,6.65,-21.25,1
1808,30.1,11.48,-24.18,1
1809,30.12,5.21,-30.32,1
1810,30.13,-1.04,-21.35,1
1811,30.14,3.66,-0.8,1
1812,30.16,7.24,-6.72,2
1813,30.17,-1.11,-33.64,2
1814,30.18,-7.68,-6.42,2
1815,30.2,-6.84,100.59,2
1816,30.21,-11.24,189.81,2
1817,30.22,-15.48,194.65,2
1818,30.24,-11.72,178.31,2
1819,30.25,-0.93,156.84,2
1820,30.26,18.4,36.11,2
1821,30.28,14.43,-139.67,2
1822,30.29,-29.11,-157.01,2
1823,30.3,-50.01,-35.85,2
1824,30.32,-10.44,17.84,2
1825,30.33,33.2,34.86,2
1826,30.35,43.71,80.73,2
1827,30.36,55.14,65.05,2
1828,30.37,51.57,17.55,2
1829,30.39,-0.56,44.76,2
1830,30.4,-25.42,97.96,2
1831,30.41,20.52,63.43,2
1832,30.43,49.33,-68.72,2
1833,30.44,18.23,-139.8,2
1834,30.45,-19.32,-30.66,2
1835,30.47,-29.69,51.67,2
1836,30.48,-20.15,-43.41,2
1837,30.49,-14.12,-114.85,2
1838,30.5,-20.76,-71.47,2
1839,30.52,-13.9,-29.94,2
1840,30.53,10.71,-21.67,2
1841,30.54,19.39,-48.58,2
1842,30.56,3.58,-128.24,1
1843,30.57,-17.97,-172.6,1
1844,30.58,-31.79,-107.68,1
1845,30.6,-27.92,-28.15,1
1846,30.61,-12.68,-41.77,1
1847,30.62,-4.92,-108.89,1
1848,30.64,-6.38,-117.36,1
1849,30.65,-11.04,-53.3,1
1850,30.67,-8.19,-14.24,1
1851,30.68,9.83,-41.85,1
1852,30.69,20.72,-93.39,1
1853,30.7,6.74,-124.15,1
1854,30.72,-14.73,-100.28,1
1855,30.73,-18.45,-43.41,1
1856,30.75,-4.27,-32.58,1
1857,30.76,2.29,-82.27,1
1858,30.77,-3.42,-105.33,1
1859,30.78,-3.82,-43.34,1
1860,30.8,3.17,32.79,1
1861,30.81,18.1,41.22,1
1862,30.82,26.16,1.54,1
1863,30.84,2.99,-60.62,1
1864,30.85,-21.47,-109.8,1
1865,30.86,-22.11,-75.05,1
1866,30.88,-25.97,-2.59,1
1867,30.89,-21.18,8.13,1
1868,30.9,11.08,-16.69,1
1869,30.92,20.57,-16.43,1
1870,30.93,-5.77,18.47,1
1871,30.94,-15.22,67.14,1
1872,30.96,-4.86,43.9,1
1873,30.97,-0.21,-52.81,1
1874,30.99,9.32,-45.24,1
1875,31.0,23.3,95.3,1
1876,31.01,29.47,166.84,1
1877,31.03,36.08,92.55,1
1878,31.04,30.3,4.37,1
1879,31.05,-2.05,11.08,1
1880,31.07,-24.61,64.78,1
1881,31.08,-13.66,90.66,1
1882,31.09,4.29,89.33,1
1883,31.11,7.99,46.27,1
1884,31.12,8.76,-18.27,1
1885,31.13,16.3,-33.68,1
1886,31.14,15.39,-4.87,1
1887,31.16,-3.21,38.54,1
1888,31.17,-19.66,80.42,1
1889,31.18,-15.33,83.01,1
1890,31.2,-6.17,44.71,1
1891,31.21,-12.4,19.72,1
1892,31.22,-15.95,44.1,1
1893,31.24,-0.8,75.84,1
1894,31.25,14.14,54.19,1
1895,31.26,18.0,3.2,1
1896,31.28,18.52,-4.48,1
1897,31.29,17.93,42.56,1
1898,31.3,15.17,82.07,1
1899,31.32,4.01,77.36,1
1900,31.33,-11.67,67.72,1
1901,31.34,-4.03,62.94,1
1902,31.36,19.09,16.57,1
1903,31.37,12.04,-26.02,1
1904,31.38,-15.31,19.23,1
1905,31.4,-8.99,66.72,1
1906,31.41,19.59,38.77,1
1907,31.42,23.32,33.88,1
1908,31.44,20.59,60.52,1
1909,31.45,25.37,27.36,1
1910,31.46,4.3,-12.04,1
1911,31.48,-21.0,27.31,1
1912,31.49,-6.05,88.66,1
1913,31.5,16.17,93.41,1
1914,31.52,5.02,53.45,1
1915,31.53,-11.82,17.43,1
1916,31.54,-9.26,11.23,1
1917,31.56,-11.38,4.02,1
1918,31.57,-28.48,-28.63,1
1919,31.58,-34.53,-23.49,1
1920,31.6,-20.59,32.04,1
1921,31.61,-3.7,41.31,1
1922,31.63,-4.0,5.13,1
1923,31.64,-26.1,15.52,1
1924,31.65,-36.98,45.75,1
1925,31.67,-12.75,37.89,1
1926,31.68,6.08,22.57,1
1927,31.69,-4.33,16.74,1
1928,31.71,-7.48,11.75,1
1929,31.72,2.67,-9.07,1
1930,31.73,-2.75,-47.09,1
1931,31.75,-22.06,-42.73,1
1932,31.76,-30.59,13.54,1
1933,31.77,-14.8,33.56,1
1934,31.78,8.91,-6.25,1
1935,31.8,15.53,-33.11,1
1936,31.81,12.27,-32.71,1
1937,31.82,12.77,-29.86,1
1938,31.84,-0.73,-19.17,1
1939,31.85,-22.89,-14.78,1
1940,31.86,-17.1,-11.53,1
1941,31.88,-0.46,-11.95,1
1942,31.89,-5.3,-48.02,1
1943,31.9,-13.02,-63.5,1
1944,31.92,-6.63,-24.7,1
1945,31.93,9.2,-10.4,1
1946,31.94,14.78,-21.92,1
1947,31.96,-0.37,-7.3,1
1948,31.97,-3.74,-4.61,1
1949,31.98,15.41,-27.16,1
1950,32.0,22.16,-29.96,1
1951,32.01,10.03,-17.73,1
1952,32.03,-1.73,7.39,1
1953,32.04,-5.73,36.25,1
1954,32.05,-2.56,5.81,1
1955,32.06,-0.96,-50.54,1
1956,32.08,-8.06,-34.32,1
1957,32.09,-13.74,35.39,1
1958,32.11,-4.25,68.06,1
1959,32.12,16.3,30.61,1
1960,32.13,22.16,-34.12,1
1961,32.15,3.48,-73.68,1
1962,32.16,-8.97,-66.65,0
1963,32.17,0.48,-57.31,0
1964,32.19,3.33,-117.09,0
1965,32.2,-12.61,-199.53,0
1966,32.21,-23.85,-210.71,0
1967,32.22,-13.26,-175.78,0
1968,32.24,11.02,-167.77,0
1969,32.25,31.42,-187.08,0
1970,32.27,37.95,-184.01,0
1971,32.28,29.71,-138.24,0
1972,32.29,11.64,-73.79,0
1973,32.31,-2.77,-7.66,0
1974,32.32,-0.52,52.99,0
1975,32.33,8.17,93.01,0
1976,32.35,2.79,112.53,0
1977,32.36,-9.11,118.64,0
1978,32.37,-6.72,115.85,0
1979,32.39,2.22,118.48,0
1980,32.4,2.61,124.52,0
1981,32.41,1.86,122.95,0
1982,32.43,4.19,123.14,0
1983,32.44,-0.69,121.1,0
1984,32.45,-12.75,105.57,0
1985,32.47,-16.62,92.77,0
1986,32.48,-5.71,86.02,0
1987,32.49,3.6,75.11,0
1988,32.51,4.14,71.17,0
1989,32.52,12.76,66.92,0
1990,32.53,25.08,44.57,0
1991,32.54,18.71,26.09,0
1992,32.56,1.93,23.88,1
1993,32.57,-1.61,23.04,1
1994,32.59,4.45,30.38,1
1995,32.6,-0.43,41.24,1
1996,32.61,-14.06,29.22,1
1997,32.63,-15.38,9.91,1
1998,32.64,-5.97,7.64,1
1999,32.65,-2.93,8.5,1
2000,32.67,-3.92,9.3,1
2001,32.68,-1.13,16.45,1
2002,32.69,0.18,13.49,1
2003,32.71,-1.27,0.53,1
2004,32.72,-2.52,-2.3,1
2005,32.73,-2.76,1.06,1
2006,32.75,1.83,3.15,1
2007,32.76,3.15,9.28,1
2008,32.77,-6.52,10.99,1
2009,32.79,-12.66,7.04,1
2010,32.8,-9.4,9.05,1
2011,32.81,-2.91,10.3,1
2012,32.83,9.16,7.67,1
2013,32.84,14.92,6.42,1
2014,32.85,3.03,-2.73,1
2015,32.87,-6.78,-13.31,1
2016,32.88,-3.53,-6.36,1
2017,32.89,-2.06,0.31,1
2018,32.9,-4.69,-10.19,1
2019,32.92,-2.7,-16.03,1
2020,32.93,-0.58,-8.06,1
2021,32.95,-1.34,-1.87,1
2022,32.96,3.18,-7.75,1
2023,32.97,10.77,-26.21,1
2024,32.99,8.39,-36.71,1
2025,33.0,-1.49,-24.22,1
2026,33.01,-3.44,-15.21,1
2027,33.03,4.26,-18.83,1
2028,33.04,9.79,-14.36,1
2029,33.05,8.01,-9.85,1
2030,33.06,1.64,-14.41,1
2031,33.08,-1.79,-14.99,1
2032,33.09,3.11,-15.15,1
2033,33.11,5.92,-24.48,1
2034,33.12,1.63,-34.29,1
2035,33.13,1.28,-36.29,1
2036,33.15,3.57,-27.15,1
2037,33.16,0.53,-14.48,1
2038,33.17,0.7,-19.6,1
2039,33.19,11.62,-29.94,1
2040,33.2,17.16,-20.05,1
2041,33.21,4.93,-18.21,1
2042,33.22,-7.06,-37.56,1
2043,33.24,-5.67,-36.08,1
2044,33.25,-6.68,-12.43,1
2045,33.27,-11.53,-4.18,1
2046,33.28,-3.46,-14.13,1
2047,33.29,6.5,-23.33,1
2048,33.31,1.98,-23.52,1
2049,33.32,-4.97,-17.91,1
2050,33.33,-2.88,-19.23,1
2051,33.35,-0.22,-24.21,1
2052,33.36,-7.09,-17.59,1
2053,33.37,-12.35,-13.75,1
2054,33.38,-2.19,-23.29,1
2055,33.4,9.42,-26.57,1
2056,33.41,7.6,-21.73,1
2057,33.43,3.81,-16.66,1
2058,33.44,6.08,-6.23,1
2059,33.45,6.26,-3.22,1
2060,33.47,0.3,-15.36,1
2061,33.48,-8.03,-20.43,1
2062,33.49,-11.32,-15.23,1
2063,33.51,-5.77,-14.0,1
2064,33.52,1.12,-18.71,1
2065,33.53,2.3,-33.0,1
2066,33.54,0.78,-37.24,1
2067,33.56,-2.13,-8.42,1
2068,33.57,-6.91,11.32,1
2069,33.59,-6.29,-8.81,1
2070,33.6,1.95,-29.81,1
2071,33.61,7.25,-33.38,1
2072,33.63,3.77,-28.41,1
2073,33.64,-4.66,-9.34,1
2074,33.65,-12.39,5.54,1
2075,33.67,-12.9,1.29,1
2076,33.68,-6.8,1.78,1
2077,33.69,-3.56,6.94,1
2078,33.71,-3.23,-0.77,1
2079,33.72,0.59,-3.97,1
2080,33.73,1.11,3.23,1
2081,33.75,-6.05,4.01,1
2082,33.76,-6.85,2.18,1
2083,33.77,6.39,-0.58,1
2084,33.79,17.02,-5.86,1
2085,33.8,11.45,-1.49,1
2086,33.81,2.47,3.91,1
2087,33.83,-2.42,0.26,1
2088,33.84,-10.04,5.29,1
2089,33.85,-11.41,15.26,1
2090,33.87,-0.15,9.21,1
2091,33.88,7.45,-3.29,1
2092,33.89,0.47,-7.64,1
2093,33.9,-9.12,0.45,1
2094,33.92,-3.59,22.28,1
2095,33.93,13.03,30.24,1
2096,33.95,16.34,8.8,1
2097,33.96,1.24,-9.12,1
2098,33.97,-12.84,-8.07,1
2099,33.99,-16.84,5.5,1
2100,34.0,-14.04,29.23,1
2101,34.01,-7.7,29.63,1
2102,34.03,-0.44,0.8,1
2103,34.04,6.9,-3.88,1
2104,34.05,9.79,15.52,1
2105,34.06,-0.03,15.57,1
2106,34.08,-18.01,6.04,1
2107,34.09,-22.31,6.15,1
2108,34.11,-4.13,9.76,1
2109,34.12,14.41,17.37,1
2110,34.13,16.04,18.0,1
2111,34.15,7.93,6.1,1
2112,34.16,1.25,4.26,0
2113,34.17,1.4,11.9,0
2114,34.19,7.22,5.45,0
2115,34.2,7.92,-26.9,0
2116,34.21,0.39,-75.66,0
2117,34.23,-0.09,-106.32,0
2118,34.24,13.38,-108.56,0
2119,34.25,28.04,-113.74,0
2120,34.27,27.36,-130.96,0
2121,34.28,10.33,-140.67,0
2122,34.29,8.69,-139.81,0
2123,34.31,32.77,-129.36,0
2124,34.32,38.58,-100.13,0
2125,34.33,17.59,-61.18,0
2126,34.35,8.49,-26.97,0
2127,34.36,9.96,5.47,0
2128,34.37,4.0,33.04,0
2129,34.38,-1.16,51.15,0
2130,34.4,-3.62,68.4,0
2131,34.41,-9.01,84.96,0
2132,34.43,-10.97,99.62,0
2133,34.44,-8.97,118.99,0
2134,34.45,-11.95,134.2,0
2135,34.47,-18.95,141.54,0
2136,34.48,-19.57,153.19,0
2137,34.49,-10.33,156.23,0
2138,34.51,0.02,144.1,0
2139,34.52,1.37,143.83,0
2140,34.53,-9.96,148.26,0
2141,34.54,-29.51,138.76,0
2142,34.56,-42.35,140.56,1
2143,34.57,-37.56,150.19,1
2144,34.59,-25.14,138.93,1
2145,34.6,-19.52,127.46,1
2146,34.61,-18.54,128.67,1
2147,34.63,-15.9,113.89,1
2148,34.64,-14.72,86.09,1
2149,34.65,-14.65,67.51,1
2150,34.67,-11.8,55.55,1
2151,34.68,-4.9,49.81,1
2152,34.69,4.81,45.9,1
2153,34.71,6.23,30.51,1
2154,34.72,-3.33,16.68,1
2155,34.73,-4.56,16.08,1
2156,34.75,4.87,13.32,1
2157,34.76,2.89,4.56,1
2158,34.77,-5.17,-6.06,1
2159,34.79,5.5,-17.18,1
2160,34.8,15.65,-16.67,1
2161,34.81,-1.04,-11.88,1
2162,34.83,-12.54,-22.07,1
2163,34.84,7.16,-33.34,1
2164,34.85,26.99,-36.14,1
2165,34.87,19.79,-44.25,1
2166,34.88,-1.17,-50.27,1
2167,34.89,-13.04,-45.96,1
2168,34.91,-11.08,-45.85,1
2169,34.92,-3.89,-50.75,1
2170,34.93,3.34,-52.99,1
2171,34.95,5.97,-53.81,1
2172,34.96,-0.96,-48.5,1
2173,34.97,-7.49,-42.15,1
2174,34.99,1.31,-45.05,1
2175,35.0,15.91,-44.45,1
2176,35.01,15.44,-41.42,1
2177,35.03,2.68,-52.69,1
2178,35.04,-3.2,-62.59,1
2179,35.05,1.48,-57.39,1
2180,35.06,5.83,-52.26,1
2181,35.08,6.66,-50.65,1
2182,35.09,5.21,-50.5,1
2183,35.11,2.63,-57.67,1
2184,35.12,4.0,-61.56,1
2185,35.13,7.36,-54.78,1
2186,35.15,6.78,-51.11,1
2187,35.16,4.46,-50.11,1
2188,35.17,4.83,-43.46,1
2189,35.19,8.78,-44.88,1
2190,35.2,11.24,-56.57,1
2191,35.21,5.71,-59.5,1
2192,35.22,-1.14,-52.28,1
2193,35.24,-0.15,-45.08,1
2194,35.25,5.5,-41.38,1
2195,35.27,11.34,-41.94,1
2196,35.28,13.89,-41.58,1
2197,35.29,11.27,-39.65,1
2198,35.31,9.68,-40.33,1
2199,35.32,9.63,-33.96,1
2200,35.33,4.55,-19.5,1
2201,35.35,-3.99,-15.26,1
2202,35.36,-10.68,-19.0,1
2203,35.37,-11.42,-16.54,1
2204,35.38,-5.5,-17.77,1
2205,35.4,0.69,-26.07,1
2206,35.41,7.47,-29.23,1
2207,35.43,18.44,-28.93,1
2208,35.44,19.72,-24.65,1
2209,35.45,2.81,-17.44,1
2210,35.47,-11.16,-17.55,1
2211,35.48,-7.05,-13.48,1
2212,35.49,3.57,-2.08,1
2213,35.51,10.11,-3.88,1
2214,35.52,11.43,-10.68,1
2215,35.53,12.32,-8.94,1
2216,35.55,15.66,-7.13,1
2217,35.56,11.8,0.46,1
2218,35.57,-1.39,11.13,1
2219,35.59,-12.28,3.74,1
2220,35.6,-14.52,-5.1,1
2221,35.61,-8.3,5.54,1
2222,35.63,0.81,12.7,1
2223,35.64,4.11,8.81,1
2224,35.65,1.73,10.16,1
2225,35.67,1.37,9.13,1
2226,35.68,2.26,5.62,1
2227,35.69,1.62,12.97,1
2228,35.71,2.94,17.69,1
2229,35.72,2.83,13.14,1
2230,35.73,-1.96,10.52,1
2231,35.75,0.9,5.22,1
2232,35.76,9.51,2.88,1
2233,35.77,4.9,10.51,1
2234,35.79,-8.14,8.45,1
2235,35.8,-11.57,3.63,1
2236,35.81,-3.97,16.67,1
2237,35.83,5.58,25.87,1
2238,35.84,5.71,18.25,1
2239,35.85,-5.2,11.2,1
2240,35.87,-15.84,7.52,1
2241,35.88,-17.87,9.05,1
2242,35.89,-10.61,17.32,1
2243,35.9,-3.6,15.05,1
2244,35.92,-6.39,7.45,1
2245,35.93,-10.83,12.46,1
2246,35.95,-6.89,18.79,1
2247,35.96,1.18,23.23,1
2248,35.97,3.41,33.78,1
2249,35.99,-3.3,34.33,1
2250,36.0,-11.78,25.32,1
2251,36.01,-11.66,26.53,1
2252,36.03,-4.15,28.7,1
2253,36.04,-2.39,22.06,1
2254,36.05,-6.06,15.94,1
2255,36.06,-3.17,10.12,1
2256,36.08,1.73,11.47,1
2257,36.09,-0.43,22.76,1
2258,36.11,-1.2,19.66,1
2259,36.12,3.07,10.62,1
2260,36.13,2.4,26.25,1
2261,36.15,-1.0,40.04,1
2262,36.16,4.17,25.62,2
2263,36.17,14.83,13.72,2
2264,36.19,15.39,31.59,2
2265,36.2,-0.72,78.12,2
2266,36.21,-20.21,126.08,2
2267,36.23,-25.19,128.13,2
2268,36.24,-12.29,83.09,2
2269,36.25,-1.82,32.9,2
2270,36.27,-12.8,-13.83,2
2271,36.28,-27.32,-59.02,2
2272,36.29,-19.82,-87.06,2
2273,36.31,2.04,-106.18,2
2274,36.32,16.96,-120.75,2
2275,36.33,20.16,-105.28,2
2276,36.35,20.52,-63.39,2
2277,36.36,14.29,-27.17,2
2278,36.37,-4.83,-8.48,2
2279,36.38,-19.04,-3.11,2
2280,36.4,-12.35,0.99,2
2281,36.41,6.0,14.27,2
2282,36.43,17.94,26.93,2
2283,36.44,14.07,42.96,2
2284,36.45,4.92,90.31,2
2285,36.47,2.74,176.58,2
2286,36.48,-5.24,292.08,2
2287,36.49,-26.3,387.96,2
2288,36.51,-36.85,385.58,2
2289,36.52,-29.33,292.96,2
2290,36.53,-22.24,185.68,2
2291,36.54,-11.52,98.42,2
2292,36.56,10.71,39.51,1
2293,36.57,24.49,2.44,1
2294,36.59,18.67,-54.57,1
2295,36.6,8.01,-138.14,1
2296,36.61,4.43,-198.09,1
2297,36.63,7.09,-213.55,1
2298,36.64,9.46,-200.13,1
2299,36.65,6.52,-174.15,1
2300,36.67,5.26,-159.78,1
2301,36.68,13.65,-164.04,1
2302,36.69,22.11,-165.77,1
2303,36.71,19.2,-158.36,1
2304,36.72,10.04,-147.98,1
2305,36.73,3.51,-133.87,1
2306,36.75,-0.41,-124.27,1
2307,36.76,-3.31,-119.21,1
2308,36.77,-0.11,-105.98,1
2309,36.79,9.58,-99.6,1
2310,36.8,9.46,-117.2,1
2311,36.81,-4.67,-129.09,1
2312,36.83,-9.93,-110.52,1
2313,36.84,-0.91,-82.42,1
2314,36.85,5.15,-62.97,1
2315,36.87,8.01,-51.42,1
2316,36.88,13.92,-41.82,1
2317,36.89,12.76,-23.43,1
2318,36.9,-0.83,-8.58,1
2319,36.92,-11.88,-14.47,1
2320,36.93,-6.35,-20.07,1
2321,36.95,9.53,-10.74,1
2322,36.96,20.4,-0.83,1
2323,36.97,15.55,6.93,1
2324,36.99,-3.2,13.29,1
2325,37.0,-17.25,14.2,1
2326,37.01,-11.33,14.88,1
2327,37.03,6.95,17.48,1
2328,37.04,15.79,20.22,1
2329,37.05,4.95,23.4,1
2330,37.06,-10.38,17.7,1
2331,37.08,-12.97,7.6,1
2332,37.09,-6.7,19.09,1
2333,37.11,-0.06,43.56,1
2334,37.12,1.51,51.27,1
2335,37.13,-8.04,48.37,1
2336,37.15,-19.09,39.04,1
2337,37.16,-15.14,22.27,1
2338,37.17,2.46,26.88,1
2339,37.19,19.83,51.56,1
2340,37.2,19.97,57.57,1
2341,37.21,-0.42,43.21,1
2342,37.22,-18.31,35.21,1
2343,37.24,-14.84,43.74,1
2344,37.25,0.45,53.09,1
2345,37.27,11.75,44.15,1
2346,37.28,14.92,30.66,1
2347,37.29,9.32,33.12,1
2348,37.31,-4.22,37.76,1
2349,37.32,-21.62,40.57,1
2350,37.33,-32.98,54.44,1
2351,37.35,-25.62,57.72,1
2352,37.36,-3.69,39.06,1
2353,37.37,13.45,31.84,1
2354,37.38,13.57,41.53,1
2355,37.4,-4.0,42.23,1
2356,37.41,-25.52,35.52,1
2357,37.43,-28.71,29.3,1
2358,37.44,-11.4,22.72,1
2359,37.45,9.04,22.64,1
2360,37.47,21.22,25.99,1
2361,37.48,22.18,24.64,1
2362,37.49,10.51,28.41,1
2363,37.51,-4.08,37.07,1
2364,37.52,-6.77,29.75,1
2365,37.53,-0.83,12.1,1
2366,37.54,0.14,8.57,1
2367,37.56,-2.79,16.19,1
2368,37.57,-0.73,20.74,1
2369,37.59,2.72,20.26,1
2370,37.6,-1.89,24.3,1
2371,37.61,-7.91,36.17,1
2372,37.63,-3.36,32.93,1
2373,37.64,1.71,9.13,1
2374,37.65,-3.06,1.11,1
2375,37.67,-5.55,12.68,1
2376,37.68,-4.37,17.25,1
2377,37.69,-11.46,17.05,1
2378,37.71,-17.51,11.17,1
2379,37.72,-11.09,-1.45,1
2380,37.73,-0.84,1.38,1
2381,37.75,4.59,5.4,1
2382,37.76,3.16,-13.15,1
2383,37.77,1.42,-17.1,1
2384,37.79,10.74,6.22,1
2385,37.8,21.31,11.59,1
2386,37.81,15.39,1.69,1
2387,37.83,5.35,3.83,1
2388,37.84,4.61,-0.4,1
2389,37.85,1.38,-16.17,1
2390,37.87,-2.59,-20.08,1
2391,37.88,5.72,-12.02,1
2392,37.89,11.7,-3.28,1
2393,37.9,0.66,-2.9,1
2394,37.92,-9.13,-14.9,1
2395,37.93,-2.73,-17.34,1
2396,37.95,3.7,-5.28,1
2397,37.96,-1.92,-9.67,1
2398,37.97,-7.62,-24.07,1
2399,37.99,-8.53,-15.29,1
2400,38.0,-9.12,3.77,1
2401,38.01,-2.52,7.3,1
2402,38.03,12.82,-3.5,1
2403,38.04,18.89,-16.47,1
2404,38.05,5.36,-14.98,1
2405,38.06,-11.64,-3.63,1
2406,38.08,-15.94,-6.0,1
2407,38.09,-9.42,-16.88,1
2408,38.11,4.79,-19.46,1
2409,38.12,17.8,-17.18,1
2410,38.13,13.17,-10.13,1
2411,38.15,1.03,-4.15,1
2412,38.16,3.26,-23.5,2
2413,38.17,11.91,-44.9,2
2414,38.19,11.78,-3.95,2
2415,38.2,4.42,73.45,2
2416,38.21,-0.64,94.31,2
2417,38.22,12.25,61.24,2
2418,38.24,38.81,61.33,2
2419,38.25,42.27,147.43,2
2420,38.27,7.08,224.64,2
2421,38.28,-36.2,168.4,2
2422,38.29,-48.34,57.46,2
2423,38.31,-23.89,-25.86,2
2424,38.32,8.47,-66.7,2
2425,38.33,23.2,15.44,2
2426,38.35,7.53,99.73,2
2427,38.36,-17.05,7.01,2
2428,38.37,-5.35,-86.66,2
2429,38.38,21.51,-13.24,2
2430,38.4,5.66,51.57,2
2431,38.41,-32.4,-32.25,2
2432,38.43,-38.17,-141.08,2
2433,38.44,-17.17,-162.01,2
2434,38.45,6.87,-145.11,2
2435,38.47,23.67,-141.44,2
2436,38.48,7.41,-129.48,2
2437,38.49,-28.53,-129.04,2
2438,38.51,-28.43,-162.91,2
2439,38.52,-2.26,-145.18,2
2440,38.53,-2.26,-65.03,2
2441,38.54,-22.14,-59.18,2
2442,38.56,-19.39,-119.16,1
2443,38.57,2.58,-102.2,1
2444,38.59,5.44,-61.56,1
2445,38.6,-0.11,-135.82,1
2446,38.61,19.33,-204.41,1
2447,38.63,38.72,-107.13,1
2448,38.64,26.08,21.41,1
2449,38.65,-1.34,10.41,1
2450,38.67,-13.89,-69.67,1
2451,38.68,-3.12,-77.39,1
2452,38.69,9.32,-8.28,1
2453,38.71,6.95,40.61,1
2454,38.72,5.78,31.05,1
2455,38.73,6.22,19.79,1
2456,38.75,-3.55,16.53,1
2457,38.76,-7.05,-26.94,1
2458,38.77,0.49,-49.41,1
2459,38.79,-2.0,6.62,1
2460,38.8,-14.15,20.89,1
2461,38.81,-11.72,-38.57,1
2462,38.83,15.07,-31.07,1
2463,38.84,36.13,31.44,1
2464,38.85,25.17,26.73,1
2465,38.87,3.97,-12.11,1
2466,38.88,-6.71,-15.95,1
2467,38.89,-11.74,-7.77,1
2468,38.9,-3.84,5.86,1
2469,38.92,21.6,27.97,1
2470,38.93,36.53,27.79,1
2471,38.95,18.45,18.57,1
2472,38.96,-8.36,39.44,1
2473,38.97,-13.28,51.85,1
2474,38.99,-4.27,5.94,1
2475,39.0,0.04,-46.41,1
2476,39.01,-0.95,-42.48,1
2477,39.03,1.29,14.0,1
2478,39.04,2.01,82.69,1
2479,39.05,-10.29,108.94,1
2480,39.06,-13.35,83.73,1
2481,39.08,10.77,57.52,1
2482,39.09,25.94,56.86,1
2483,39.11,16.67,43.15,1
2484,39.12,5.53,11.78,1
2485,39.13,-2.47,22.04,1
2486,39.15,-4.85,48.98,1
2487,39.16,-2.39,34.36,1
2488,39.17,-6.76,26.84,1
2489,39.19,-17.95,60.13,1
2490,39.2,-26.14,65.7,1
2491,39.21,-17.78,16.73,1
2492,39.22,0.89,-10.86,1
2493,39.24,0.13,13.11,1
2494,39.25,-18.91,28.09,1
2495,39.27,-24.59,10.86,1
2496,39.28,-12.64,3.94,1
2497,39.29,-6.91,37.32,1
2498,39.31,-10.91,63.49,1
2499,39.32,-6.49,18.96,1
2500,39.33,3.91,-15.51,1
2501,39.35,2.82,58.1,1
2502,39.36,-12.21,130.85,1
2503,39.37,-27.0,101.89,1
2504,39.38,-18.18,40.61,1
2505,39.4,8.82,-16.3,1
2506,39.41,14.32,-50.66,1
2507,39.43,1.84,-20.93,1
2508,39.44,10.71,3.14,1
2509,39.45,26.36,-9.32,1
2510,39.47,14.66,9.75,1
2511,39.48,-8.2,19.12,1
2512,39.49,-14.91,-8.77,1
2513,39.51,-5.76,12.38,1
2514,39.52,3.17,72.28,1
2515,39.53,-4.32,94.35,1
2516,39.54,-22.93,71.11,1
2517,39.56,-30.04,25.46,1
2518,39.57,-15.26,1.35,1
2519,39.59,4.68,28.73,1
2520,39.6,2.79,57.9,1
2521,39.61,-8.43,29.96,1
2522,39.63,3.44,-19.65,1
2523,39.64,21.33,-25.89,1
2524,39.65,18.87,-0.59,1
2525,39.67,10.38,23.13,1
2526,39.68,2.94,20.12,1
2527,39.69,-7.42,-3.84,1
2528,39.71,0.85,15.1,1
2529,39.72,26.09,47.12,1
2530,39.73,28.42,-2.87,1
2531,39.75,12.81,-58.88,1
2532,39.76,9.13,-13.53,1
2533,39.77,8.36,46.73,1
2534,39.79,9.85,30.53,1
2535,39.8,16.39,-2.86,1
2536,39.81,11.9,11.72,1
2537,39.83,12.18,30.56,1
2538,39.84,20.56,0.98,1
2539,39.85,10.26,-18.07,1
2540,39.87,-5.54,26.5,1
2541,39.88,-10.86,50.28,1
2542,39.89,-15.64,3.49,1
2543,39.9,-10.13,-28.09,1
2544,39.92,9.1,-25.33,1
2545,39.93,9.8,-41.25,1
2546,39.95,-15.46,-38.35,1
2547,39.96,-29.03,-4.82,1
2548,39.97,-17.33,-24.9,1
2549,39.99,-6.08,-82.29,1
2550,40.0,-7.73,-67.37,1
2551,40.01,-8.18,5.52,1
2552,40.03,-1.05,19.41,1
2553,40.04,-3.76,-52.31,1
2554,40.05,-18.69,-96.39,1
2555,40.06,-18.95,-33.58,1
2556,40.08,-4.6,29.83,1
2557,40.09,-3.74,-4.94,1
2558,40.11,-11.78,-41.77,1
2559,40.12,-8.62,-14.73,1
2560,40.13,-2.31,-6.88,1
2561,40.15,1.55,-28.65,1
2562,40.16,13.67,-14.15,0
2563,40.17,15.61,4.06,0
2564,40.19,-11.14,-30.71,0
2565,40.2,-23.66,-101.17,0
2566,40.21,8.36,-162.13,0
2567,40.22,40.61,-175.25,0
2568,40.24,29.98,-157.2,0
2569,40.25,-1.0,-157.8,0
2570,40.27,-5.21,-171.48,0
2571,40.28,14.03,-172.1,0
2572,40.29,17.31,-153.9,0
2573,40.31,4.64,-109.08,0
2574,40.32,2.42,-48.98,0
2575,40.33,10.89,8.55,0
2576,40.35,13.74,58.46,0
2577,40.36,2.03,82.8,0
2578,40.37,-14.0,89.78,0
2579,40.38,-13.21,113.14,0
2580,40.4,-2.08,132.82,0
2581,40.41,-2.93,118.13,0
2582,40.43,-9.54,92.06,0
2583,40.44,-5.87,70.65,0
2584,40.45,1.26,50.53,0
2585,40.47,-1.32,50.91,0
2586,40.48,-8.86,71.59,0
2587,40.49,-5.34,83.03,0
2588,40.51,4.62,84.81,0
2589,40.52,0.23,82.9,0
2590,40.53,-11.12,70.25,0
2591,40.54,-5.1,63.28,0
2592,40.56,8.49,64.5,1
2593,40.57,6.02,52.33,1
2594,40.59,-2.16,39.11,1
2595,40.6,-1.96,40.2,1
2596,40.61,-0.79,43.1,1
2597,40.63,5.31,43.59,1
2598,40.64,14.05,39.6,1
2599,40.65,4.63,26.41,1
2600,40.67,-12.29,17.99,1
2601,40.68,-10.7,19.36,1
2602,40.69,2.2,20.54,1
2603,40.71,9.77,25.75,1
2604,40.72,10.33,29.81,1
2605,40.73,6.99,22.09,1
2606,40.75,5.05,16.96,1
2607,40.76,6.37,16.88,1
2608,40.77,5.9,11.58,1
2609,40.79,6.05,10.71,1
2610,40.8,12.07,10.39,1
2611,40.81,13.03,-0.85,1
2612,40.83,0.63,-1.75,1
2613,40.84,-14.79,11.25,1
2614,40.85,-23.47,9.16,1
2615,40.87,-23.03,-1.63,1
2616,40.88,-14.0,0.79,1
2617,40.89,-4.19,6.76,1
2618,40.9,-2.73,6.25,1
2619,40.92,-7.01,0.27,1
2620,40.93,-6.89,-9.68,1
2621,40.95,-1.7,-11.89,1
2622,40.96,0.93,-6.66,1
2623,40.97,1.6,-10.35,1
2624,40.99,3.66,-16.65,1
2625,41.0,3.2,-14.77,1
2626,41.01,0.92,-15.61,1
2627,41.03,2.1,-16.95,1
2628,41.04,0.15,-12.92,1
2629,41.05,-8.33,-17.55,1
2630,41.06,-6.41,-29.17,1
2631,41.08,5.87,-33.84,1
2632,41.09,6.41,-34.68,1
2633,41.11,-1.6,-33.32,1
2634,41.12,-0.12,-29.15,1
2635,41.13,5.64,-29.6,1
2636,41.15,7.02,-29.63,1
2637,41.16,8.15,-28.26,1
2638,41.17,2.99,-39.38,1
2639,41.19,-11.67,-49.27,1
2640,41.2,-15.71,-40.98,1
2641,41.21,-1.23,-33.19,1
2642,41.22,10.1,-32.99,1
2643,41.24,3.47,-29.54,1
2644,41.25,-7.5,-24.04,1
2645,41.27,-2.68,-15.75,1
2646,41.28,11.56,-11.61,1
2647,41.29,10.91,-22.54,1
2648,41.31,-1.97,-29.3,1
2649,41.32,-2.44,-19.15,1
2650,41.33,4.14,-13.99,1
2651,41.35,-1.75,-18.65,1
2652,41.36,-8.79,-20.16,1
2653,41.37,-3.26,-21.55,1
2654,41.38,4.02,-19.83,1
2655,41.4,4.62,-12.88,1
2656,41.41,1.14,-15.27,1
2657,41.43,-1.77,-20.9,1
2658,41.44,-0.99,-16.0,1
2659,41.45,-3.67,-12.69,1
2660,41.47,-7.67,-16.53,1
2661,41.48,3.93,-19.92,1
2662,41.49,20.49,-24.56,1
2663,41.51,15.25,-24.6,1
2664,41.52,-1.73,-15.89,1
2665,41.53,-7.6,-9.4,1
2666,41.54,-10.8,-1.77,1
2667,41.56,-18.91,6.25,1
2668,41.57,-13.81,-3.16,1
2669,41.59,4.98,-12.73,1
2670,41.6,10.71,-4.46,1
2671,41.61,-1.16,-2.03,1
2672,41.63,-10.07,-6.08,1
2673,41.64,-10.1,-0.24,1
2674,41.65,-8.6,0.03,1
2675,41.67,-4.7,-5.47,1
2676,41.68,2.15,0.48,1
2677,41.69,4.25,6.13,1
2678,41.71,3.1,5.87,1
2679,41.72,7.73,7.97,1
2680,41.73,10.35,4.82,1
2681,41.75,1.88,6.29,1
2682,41.76,-8.46,20.71,1
2683,41.77,-10.34,19.69,1
2684,41.79,-0.96,4.55,1
2685,41.8,13.57,1.61,1
2686,41.81,16.32,-0.92,1
2687,41.83,3.9,-10.21,1
2688,41.84,-6.5,-11.52,1
2689,41.85,-6.31,-7.79,1
2690,41.87,-3.06,1.59,1
2691,41.88,2.35,15.07,1
2692,41.89,9.99,14.97,1
2693,41.9,7.82,11.15,1
2694,41.92,-5.36,16.31,1
2695,41.93,-11.65,10.66,1
2696,41.95,-4.11,-1.41,1
2697,41.96,5.27,4.65,1
2698,41.97,8.04,12.79,1
2699,41.99,8.87,7.78,1
2700,42.0,10.44,6.53,1
2701,42.01,5.0,8.41,1
2702,42.03,-5.96,4.82,1
2703,42.04,-8.83,1.87,1
2704,42.05,-4.88,-1.14,1
2705,42.06,-6.35,2.95,1
2706,42.08,-7.77,17.56,1
2707,42.09,-1.22,18.08,1
2708,42.11,4.44,9.44,1
2709,42.12,3.92,16.91,1
2710,42.13,1.1,26.75,1
2711,42.15,-0.54,27.78,1
2712,42.16,2.93,21.77,0
2713,42.17,9.03,-3.31,0
2714,42.19,9.38,-42.42,0
2715,42.2,7.22,-87.06,0
2716,42.21,17.37,-134.23,0
2717,42.22,39.24,-148.47,0
2718,42.24,55.47,-118.34,0
2719,42.25,58.51,-88.14,0
2720,42.27,52.03,-64.31,0
2721,42.28,40.3,-30.03,0
2722,42.29,28.82,-17.47,0
2723,42.31,20.01,-37.6,0
2724,42.32,10.95,-53.14,0
2725,42.33,3.14,-54.76,0
2726,42.35,-0.19,-47.96,0
2727,42.36,-11.54,-31.16,0
2728,42.37,-32.89,-20.41,0
2729,42.38,-37.78,-8.77,0
2730,42.4,-29.71,24.79,0
2731,42.41,-39.71,55.33,0
2732,42.43,-56.86,66.37,0
2733,42.44,-57.39,79.93,0
2734,42.45,-50.86,97.46,0
2735,42.47,-48.01,112.9,0
2736,42.48,-48.69,131.74,0
2737,42.49,-51.86,143.18,0
2738,42.51,-42.5,145.37,0
2739,42.52,-18.03,148.19,0
2740,42.53,-13.79,143.96,0
2741,42.54,-30.94,141.28,0
2742,42.56,-23.16,151.63,1
2743,42.57,1.49,149.4,1
2744,42.59,1.56,137.36,1
2745,42.6,-6.47,141.4,1
2746,42.61,6.76,135.37,1
2747,42.63,21.45,107.21,1
2748,42.64,11.28,88.72,1
2749,42.65,-5.88,75.59,1
2750,42.66,-1.57,54.58,1
2751,42.68,12.51,44.07,1
2752,42.69,10.65,44.53,1
2753,42.71,-0.99,39.34,1
2754,42.72,-0.65,26.86,1
2755,42.73,12.69,10.81,1
2756,42.75,21.84,2.96,1
2757,42.76,15.67,8.93,1
2758,42.77,-1.14,5.11,1
2759,42.79,-8.57,-12.44,1
2760,42.8,6.38,-18.54,1
2761,42.81,23.42,-16.68,1
2762,42.83,19.26,-20.68,1
2763,42.84,3.18,-24.3,1
2764,42.85,-6.74,-29.32,1
2765,42.87,-3.62,-36.57,1
2766,42.88,11.48,-37.52,1
2767,42.89,18.71,-39.64,1
2768,42.9,6.98,-44.59,1
2769,42.92,-1.01,-42.94,1
2770,42.93,7.54,-44.59,1
2771,42.95,16.12,-51.44,1
2772,42.96,13.53,-51.26,1
2773,42.97,6.69,-53.62,1
2774,42.99,3.27,-61.29,1
2775,43.0,4.82,-59.69,1
2776,43.01,10.16,-55.28,1
2777,43.03,13.81,-54.66,1
2778,43.04,13.15,-52.34,1
2779,43.05,8.79,-58.02,1
2780,43.06,3.36,-67.54,1
2781,43.08,3.03,-61.39,1
2782,43.09,2.21,-55.55,1
2783,43.11,-2.34,-62.55,1
2784,43.12,0.31,-57.74,1
2785,43.13,6.26,-47.02,1
2786,43.15,5.26,-51.23,1
2787,43.16,3.04,-49.62,1
2788,43.17,3.81,-36.35,1
2789,43.19,3.4,-32.93,1
2790,43.2,5.71,-35.58,1
2791,43.21,14.48,-36.43,1
2792,43.22,16.32,-36.68,1
2793,43.24,3.8,-35.75,1
2794,43.25,-7.44,-45.54,1
2795,43.27,-4.25,-60.27,1
2796,43.28,5.46,-53.84,1
2797,43.29,6.97,-34.72,1
2798,43.3,-1.59,-22.9,1
2799,43.32,-7.16,-14.21,1
2800,43.33,-1.11,-13.18,1
2801,43.35,3.79,-25.92,1
2802,43.36,-0.66,-34.35,1
2803,43.37,3.29,-30.64,1
2804,43.38,15.48,-26.26,1
2805,43.4,11.76,-22.63,1
2806,43.41,-1.29,-22.27,1
2807,43.43,-4.26,-28.4,1
2808,43.44,-9.44,-30.04,1
2809,43.45,-23.41,-24.91,1
2810,43.47,-22.41,-20.46,1
2811,43.48,1.47,-12.72,1
2812,43.49,18.55,-3.82,1
2813,43.51,9.39,-1.02,1
2814,43.52,-5.51,-0.35,1
2815,43.53,-8.06,-3.94,1
2816,43.54,-5.34,-9.55,1
2817,43.56,-1.78,-5.04,1
2818,43.57,1.82,-1.81,1
2819,43.59,3.57,-7.17,1
2820,43.6,8.31,-1.65,1
2821,43.61,7.43,7.1,1
2822,43.63,-8.28,-0.28,1
2823,43.64,-17.09,-2.37,1
2824,43.65,-7.23,7.89,1
2825,43.67,0.19,8.02,1
2826,43.68,-2.87,5.49,1
2827,43.69,-4.08,5.52,1
2828,43.71,0.82,0.13,1
2829,43.72,5.31,8.69,1
2830,43.73,4.07,27.45,1
2831,43.75,-3.74,26.34,1
2832,43.76,-13.11,18.97,1
2833,43.77,-13.8,22.84,1
2834,43.79,-5.67,20.34,1
2835,43.8,0.23,11.87,1
2836,43.81,0.01,11.11,1
2837,43.83,-0.46,13.34,1
2838,43.84,4.06,15.77,1
2839,43.85,6.5,16.81,1
2840,43.87,1.22,13.94,1
2841,43.88,1.17,15.6,1
2842,43.89,7.9,18.02,1
2843,43.9,5.84,12.38,1
2844,43.92,-5.03,12.04,1
2845,43.93,-13.44,16.87,1
2846,43.94,-11.38,10.41,1
2847,43.96,-2.74,7.81,1
2848,43.97,-2.67,21.15,1
2849,43.99,-6.85,28.21,1
2850,44.0,0.48,22.43,1
2851,44.01,4.34,13.67,1
2852,44.03,-10.17,6.78,1
2853,44.04,-14.35,13.4,1
2854,44.05,6.5,25.42,1
2855,44.06,16.39,24.46,1
2856,44.08,-1.71,23.3,1
2857,44.09,-18.16,25.01,1
2858,44.11,-14.7,18.82,1
2859,44.12,-5.7,20.4,1
2860,44.13,-4.49,29.37,1
2861,44.15,-2.03,24.64,1
2862,44.16,9.93,16.7,2
2863,44.17,13.4,18.91,2
2864,44.19,-3.01,22.61,2
2865,44.2,-14.47,40.19,2
2866,44.21,-3.49,101.1,2
2867,44.22,8.07,204.15,2
2868,44.24,2.69,315.72,2
2869,44.25,-8.18,390.5,2
2870,44.27,-13.14,392.87,2
2871,44.28,-16.21,336.83,2
2872,44.29,-24.0,265.01,2
2873,44.31,-31.35,174.05,2
2874,44.32,-29.55,48.39,2
2875,44.33,-18.91,-75.28,2
2876,44.35,-4.59,-162.56,2
2877,44.36,1.86,-218.28,2
2878,44.37,-9.64,-255.23,2
2879,44.38,-23.59,-279.35,2
2880,44.4,-9.56,-278.55,2
2881,44.41,20.96,-249.48,2
2882,44.43,24.69,-221.3,2
2883,44.44,8.45,-204.42,2
2884,44.45,13.7,-184.63,2
2885,44.47,32.07,-165.5,2
2886,44.48,31.32,-144.92,2
2887,44.49,14.86,-122.37,2
2888,44.51,4.12,-114.21,2
2889,44.52,10.61,-105.06,2
2890,44.53,22.64,-75.64,2
2891,44.54,14.03,-56.08,2
2892,44.56,-11.7,-63.71,1
2893,44.57,-18.32,-73.81,1
2894,44.58,4.36,-71.6,1
2895,44.6,24.15,-59.92,1
2896,44.61,22.64,-48.18,1
2897,44.63,15.32,-43.31,1
2898,44.64,16.32,-36.2,1
2899,44.65,23.29,-24.19,1
2900,44.67,25.36,-17.78,1
2901,44.68,17.5,-12.04,1
2902,44.69,6.98,-3.23,1
2903,44.71,2.58,-1.85,1
2904,44.72,5.81,-2.35,1
2905,44.73,9.31,4.02,1
2906,44.75,7.47,8.77,1
2907,44.76,3.98,14.28,1
2908,44.77,-2.63,26.15,1
2909,44.79,-13.87,28.42,1
2910,44.8,-17.06,18.98,1
2911,44.81,-6.28,18.11,1
2912,44.83,8.78,28.2,1
2913,44.84,18.33,38.91,1
2914,44.85,15.43,43.59,1
2915,44.87,3.62,39.55,1
2916,44.88,-4.76,38.5,1
2917,44.89,-6.61,47.98,1
2918,44.9,-4.6,54.78,1
2919,44.92,-2.21,53.05,1
2920,44.93,-5.07,50.0,1
2921,44.95,-9.22,47.58,1
2922,44.96,-8.97,47.5,1
2923,44.97,-7.27,48.06,1
2924,44.99,-4.74,37.48,1
2925,45.0,2.16,26.41,1
2926,45.01,8.72,37.64,1
2927,45.03,5.93,55.58,1
2928,45.04,-3.03,57.49,1
2929,45.05,-8.98,50.19,1
2930,45.06,-11.18,41.4,1
2931,45.08,-6.92,38.4,1
2932,45.09,2.16,43.7,1
2933,45.11,1.34,43.02,1
2934,45.12,-7.81,42.1,1
2935,45.13,-8.75,50.0,1
2936,45.15,-2.47,43.17,1
2937,45.16,2.95,25.62,1
2938,45.17,7.4,27.83,1
2939,45.19,6.74,37.04,1
2940,45.2,-2.85,31.99,1
2941,45.21,-12.26,25.49,1
2942,45.22,-11.55,25.67,1
2943,45.24,-5.72,29.55,1
2944,45.25,-7.37,32.88,1
2945,45.26,-15.83,22.99,1
2946,45.28,-15.88,8.87,1
2947,45.29,-5.53,11.0,1
2948,45.31,-0.42,17.0,1
2949,45.32,-3.44,17.39,1
2950,45.33,-6.1,20.6,1
2951,45.35,-8.37,14.92,1
2952,45.36,-10.36,3.1,1
2953,45.37,-8.27,4.27,1
2954,45.38,-3.85,7.64,1
2955,45.4,-1.66,9.55,1
2956,45.41,-3.0,23.11,1
2957,45.43,-4.33,31.4,1
2958,45.44,0.7,23.5,1
2959,45.45,6.99,15.18,1
2960,45.47,-0.52,8.09,1
2961,45.48,-14.12,4.82,1
2962,45.49,-13.15,8.15,1
2963,45.51,-1.43,-0.42,1
2964,45.52,7.36,-15.22,1
2965,45.53,5.41,-11.23,1
2966,45.54,-6.62,-2.91,1
2967,45.56,-9.4,-6.43,1
2968,45.57,-0.57,-7.9,1
2969,45.59,-1.86,-8.93,1
2970,45.6,-6.16,-14.73,1
2971,45.61,0.02,-9.38,1
2972,45.63,2.57,1.75,1
2973,45.64,0.6,1.29,1
2974,45.65,4.73,-4.19,1
2975,45.67,5.49,-7.18,1
2976,45.68,-2.11,-8.78,1
2977,45.69,-7.04,-8.95,1
2978,45.71,-5.28,-13.94,1
2979,45.72,-1.13,-22.44,1
2980,45.73,2.62,-22.67,1
2981,45.75,5.34,-18.54,1
2982,45.76,9.1,-17.66,1
2983,45.77,9.97,-14.41,1
2984,45.79,1.49,-13.07,1
2985,45.8,-5.96,-17.91,1
2986,45.81,-2.91,-23.03,1
2987,45.83,-0.3,-32.93,1
2988,45.84,-3.77,-38.03,1
2989,45.85,-3.87,-22.31,1
2990,45.86,-0.78,-9.1,1
2991,45.88,-0.37,-15.27,1
2992,45.89,1.21,-19.17,1
2993,45.9,7.08,-17.54,1
2994,45.92,10.89,-18.52,1
2995,45.93,8.0,-12.41,1
2996,45.95,5.0,-12.19,1
2997,45.96,7.23,-32.07,1
2998,45.97,3.95,-42.07,1
2999,45.99,-6.93,-23.41,1
3000,46.0,-4.24,-1.44,1
3001,46.01,9.75,2.43,1
3002,46.03,7.88,-4.77,1
3003,46.04,-0.41,-9.48,1
3004,46.05,5.5,-12.01,1
3005,46.06,8.46,-17.18,1
3006,46.08,0.44,-15.36,1
3007,46.09,-2.37,-5.59,1
3008,46.11,-2.99,-12.49,1
3009,46.12,-9.58,-35.41,1
3010,46.13,-9.52,-49.5,1
3011,46.15,6.74,-63.38,1
3012,46.16,25.21,-89.48,2
3013,46.17,21.26,-100.62,2
3014,46.19,-2.11,-61.8,2
3015,46.2,-11.13,31.74,2
3016,46.21,3.55,145.36,2
3017,46.22,22.39,213.0,2
3018,46.24,45.94,152.0,2
3019,46.25,74.74,21.85,2
3020,46.27,76.59,35.75,2
3021,46.28,26.75,205.98,2
3022,46.29,-40.32,327.56,2
3023,46.31,-64.89,290.22,2
3024,46.32,-42.66,158.98,2
3025,46.33,-20.66,77.49,2
3026,46.35,-19.8,100.24,2
3027,46.36,-13.75,161.46,2
3028,46.37,-4.29,178.8,2
3029,46.38,-16.61,104.68,2
3030,46.4,-15.97,-26.29,2
3031,46.41,6.09,-125.48,2
3032,46.43,-8.88,-165.7,2
3033,46.44,-31.63,-170.67,2
3034,46.45,-1.78,-131.29,2
3035,46.47,28.53,-77.91,2
3036,46.48,13.95,-98.88,2
3037,46.49,-0.26,-174.97,2
3038,46.5,7.56,-204.55,2
3039,46.52,3.62,-184.23,2
3040,46.53,-13.83,-179.04,2
3041,46.54,-20.12,-200.63,2
3042,46.56,-18.38,-203.35,1
3043,46.57,-18.37,-157.46,1
3044,46.59,-21.71,-124.85,1
3045,46.6,-24.22,-150.59,1
3046,46.61,-1.98,-131.21,1
3047,46.63,49.01,-50.41,1
3048,46.64,66.55,-73.38,1
3049,46.65,16.83,-169.86,1
3050,46.67,-29.08,-135.0,1
3051,46.68,-22.65,-11.24,1
3052,46.69,-8.01,20.07,1
3053,46.71,-17.68,-31.91,1
3054,46.72,-31.27,-93.62,1
3055,46.73,-33.32,-143.12,1
3056,46.75,-26.26,-131.89,1
3057,46.76,1.01,-76.48,1
3058,46.77,36.26,-37.8,1
3059,46.79,27.3,11.01,1
3060,46.8,-17.69,69.75,1
3061,46.81,-26.2,58.65,1
3062,46.83,10.09,-15.93,1
3063,46.84,25.1,-33.78,1
3064,46.85,-4.96,31.84,1
3065,46.87,-21.52,46.87,1
3066,46.88,10.86,-36.15,1
3067,46.89,43.7,-67.21,1
3068,46.9,40.28,23.2,1
3069,46.92,29.95,75.68,1
3070,46.93,29.1,11.48,1
3071,46.95,16.72,-23.78,1
3072,46.96,-2.8,32.62,1
3073,46.97,-14.78,56.89,1
3074,46.99,-27.9,-20.0,1
3075,47.0,-36.41,-75.81,1
3076,47.01,-24.47,9.88,1
3077,47.03,2.89,120.99,1
3078,47.04,19.35,87.77,1
3079,47.05,-1.76,-27.09,1
3080,47.06,-36.66,-38.54,1
3081,47.08,-34.12,66.68,1
3082,47.09,0.76,135.65,1
3083,47.11,12.93,109.61,1
3084,47.12,-10.47,73.78,1
3085,47.13,-16.46,103.81,1
3086,47.14,12.65,166.03,1
3087,47.16,31.28,155.59,1
3088,47.17,22.09,75.59,1
3089,47.18,10.21,54.26,1
3090,47.2,11.55,93.09,1
3091,47.21,14.64,72.56,1
3092,47.22,2.24,19.94,1
3093,47.24,-9.01,42.65,1
3094,47.25,-1.14,119.71,1
3095,47.27,6.98,131.48,1
3096,47.28,3.72,40.57,1
3097,47.29,-2.22,-9.94,1
3098,47.31,1.39,52.16,1
3099,47.32,23.67,84.35,1
3100,47.33,38.16,45.65,1
3101,47.35,19.18,37.28,1
3102,47.36,1.11,53.76,1
3103,47.37,9.2,48.32,1
3104,47.38,13.39,36.19,1
3105,47.4,2.4,29.24,1
3106,47.41,-8.56,24.92,1
3107,47.43,-17.37,16.98,1
3108,47.44,-17.5,13.15,1
3109,47.45,-5.78,34.35,1
3110,47.47,-6.66,40.16,1
3111,47.48,-27.94,-20.38,1
3112,47.49,-36.52,-79.96,1
3113,47.51,-20.24,-80.35,1
3114,47.52,1.07,-56.53,1
3115,47.53,14.92,1.37,1
3116,47.54,11.32,93.22,1
3117,47.56,-2.04,122.59,1
3118,47.57,-6.67,44.31,1
3119,47.59,-15.52,-38.71,1
3120,47.6,-26.64,-22.96,1
3121,47.61,-14.52,22.04,1
3122,47.63,1.68,-17.54,1
3123,47.64,-0.3,-69.46,1
3124,47.65,2.41,-17.24,1
3125,47.67,23.34,59.69,1
3126,47.68,38.77,58.82,1
3127,47.69,28.54,35.53,1
3128,47.71,12.39,22.29,1
3129,47.72,6.05,-33.42,1
3130,47.73,-9.98,-87.9,1
3131,47.75,-25.06,-54.55,1
3132,47.76,-4.13,27.81,1
3133,47.77,31.13,64.37,1
3134,47.78,28.75,37.52,1
3135,47.8,-3.1,31.58,1
3136,47.81,-10.35,69.14,1
3137,47.82,6.95,41.18,1
3138,47.84,3.09,-43.69,1
3139,47.85,-10.53,-52.34,1
3140,47.86,-6.28,5.7,1
3141,47.88,-14.21,6.3,1
3142,47.89,-34.25,-67.09,1
3143,47.9,-21.37,-103.22,1
3144,47.92,15.97,-61.96,1
3145,47.93,30.3,-30.73,1
3146,47.95,1.6,-48.22,1
3147,47.96,-35.1,-56.75,1
3148,47.97,-19.2,-28.92,1
3149,47.99,29.05,-14.6,1
3150,48.0,28.18,-29.83,1
3151,48.01,-12.37,-5.32,1
3152,48.03,-19.5,42.33,1
3153,48.04,9.0,1.72,1
3154,48.05,18.86,-62.43,1
3155,48.06,-2.93,-28.57,1
3156,48.08,-15.73,2.03,1
3157,48.09,-7.86,-27.5,1
3158,48.11,-2.62,-3.83,1
3159,48.12,5.8,51.18,1
3160,48.13,13.67,40.42,1
3161,48.15,-2.79,1.54,1
3162,48.16,-15.64,-7.4,0
3163,48.17,-1.38,5.73,0
3164,48.19,1.6,22.82,0
3165,48.2,-17.92,21.44,0
3166,48.21,-21.1,-14.02,0
3167,48.22,2.68,-55.66,0
3168,48.24,22.31,-76.49,0
3169,48.25,15.02,-84.07,0
3170,48.27,-3.29,-97.43,0
3171,48.28,-7.85,-146.9,0
3172,48.29,-0.72,-215.22,0
3173,48.31,6.69,-233.66,0
3174,48.32,15.49,-197.16,0
3175,48.33,24.15,-151.19,0
3176,48.35,21.87,-100.3,0
3177,48.36,12.94,-35.64,0
3178,48.37,9.7,26.67,0
3179,48.38,6.07,65.54,0
3180,48.4,0.79,76.24,0
3181,48.41,2.67,83.18,0
3182,48.42,-0.79,101.9,0
3183,48.44,-15.67,109.9,0
3184,48.45,-18.98,104.92,0
3185,48.46,-9.03,104.25,0
3186,48.48,-5.96,95.63,0
3187,48.49,-9.85,80.73,0
3188,48.5,-12.98,80.45,0
3189,48.52,-12.58,81.8,0
3190,48.53,-5.36,80.46,0
3191,48.54,3.43,90.84,0
3192,48.56,5.03,85.84,1
3193,48.57,-4.17,56.94,1
3194,48.59,-22.83,49.76,1
3195,48.6,-33.35,61.98,1
3196,48.61,-21.3,57.5,1
3197,48.63,-7.77,45.45,1
3198,48.64,-10.14,36.24,1
3199,48.65,-9.46,27.66,1
3200,48.67,2.82,29.86,1
3201,48.68,12.62,30.79,1
3202,48.69,18.73,18.37,1
3203,48.71,18.3,11.56,1
3204,48.72,2.32,10.98,1
3205,48.73,-10.24,5.25,1
3206,48.75,-1.95,5.4,1
3207,48.76,8.74,12.03,1
3208,48.77,7.53,12.92,1
3209,48.79,3.55,8.71,1
3210,48.8,2.26,3.97,1
3211,48.81,-1.0,3.22,1
3212,48.83,-4.97,2.46,1
3213,48.84,-2.18,-10.18,1
3214,48.85,2.9,-18.68,1
3215,48.87,1.35,-4.4,1
3216,48.88,-1.84,6.84,1
3217,48.89,-3.46,-3.31,1
3218,48.9,-8.78,-12.88,1
3219,48.92,-12.86,-12.68,1
3220,48.93,-6.44,-10.4,1
3221,48.95,5.51,-1.4,1
3222,48.96,8.92,5.07,1
3223,48.97,2.47,-8.95,1
3224,48.99,-1.7,-27.13,1
3225,49.0,-3.95,-29.08,1
3226,49.01,-11.41,-23.8,1
3227,49.03,-14.5,-24.62,1
3228,49.04,-2.34,-33.81,1
3229,49.05,12.95,-35.16,1
3230,49.06,13.44,-20.27,1
3231,49.08,3.01,-17.14,1
3232,49.09,-0.1,-28.59,1
3233,49.1,8.7,-23.13,1
3234,49.12,17.52,-12.23,1
3235,49.13,19.38,-17.11,1
3236,49.14,16.44,-19.22,1
3237,49.16,9.59,-13.79,1
3238,49.17,1.37,-16.18,1
3239,49.19,-1.45,-25.97,1
3240,49.2,1.11,-37.92,1
3241,49.21,5.11,-43.82,1
3242,49.22,8.18,-33.98,1
3243,49.24,2.51,-23.74,1
3244,49.25,-11.12,-26.19,1
3245,49.27,-15.5,-24.24,1
3246,49.28,-4.09,-17.2,1
3247,49.29,6.29,-19.86,1
3248,49.31,1.84,-22.57,1
3249,49.32,-6.1,-22.9,1
3250,49.33,-3.22,-26.37,1
3251,49.35,0.85,-21.13,1
3252,49.36,-0.58,-14.51,1
3253,49.37,3.79,-21.46,1
3254,49.38,12.02,-24.31,1
3255,49.4,10.69,-17.12,1
3256,49.41,5.13,-16.78,1
3257,49.43,8.67,-19.89,1
3258,49.44,14.91,-20.85,1
3259,49.45,12.3,-21.8,1
3260,49.47,6.24,-14.63,1
3261,49.48,3.62,-6.23,1
3262,49.49,2.09,-9.17,1
3263,49.51,1.3,-12.57,1
3264,49.52,1.53,-13.5,1
3265,49.53,0.19,-13.97,1
3266,49.54,-4.54,-4.98,1
3267,49.56,-12.85,-2.37,1
3268,49.57,-19.5,-15.72,1
3269,49.59,-16.79,-15.39,1
3270,49.6,-7.63,-4.66,1
3271,49.61,1.29,-10.19,1
3272,49.63,7.0,-14.68,1
3273,49.64,7.02,-7.75,1
3274,49.65,5.25,-6.13,1
3275,49.67,5.21,-5.93,1
3276,49.68,-0.03,-6.31,1
3277,49.69,-10.54,-15.31,1
3278,49.7,-12.78,-17.31,1
3279,49.72,-2.33,-6.25,1
3280,49.73,8.65,-0.45,1
3281,49.74,9.31,-1.16,1
3282,49.76,-0.89,-1.59,1
3283,49.77,-10.51,-5.41,1
3284,49.78,-8.61,-3.53,1
3285,49.8,-3.84,4.41,1
3286,49.81,-7.78,3.66,1
3287,49.825,-10.67,3.25,1
3288,49.84,-0.58,10.65,1
3289,49.85,10.7,15.48,1
3290,49.87,2.74,18.24,1
3291,49.88,-14.48,18.96,1
3292,49.89,-12.84,15.45,1
3293,49.9,2.03,15.04,1
3294,49.92,7.56,15.06,1
3295,49.93,7.54,11.71,1
3296,49.95,7.59,12.56,1
3297,49.96,-1.71,5.88,1
3298,49.97,-12.72,-9.26,1
3299,49.99,-6.5,0.62,1
3300,50.0,10.76,25.92,1
3301,50.01,16.38,25.49,1
3302,50.03,3.51,11.88,1
3303,50.04,-10.27,11.73,1
3304,50.05,-7.5,12.95,1
3305,50.06,0.21,3.73,1
3306,50.08,-4.6,-7.07,1
3307,50.09,-8.17,-8.16,1
3308,50.11,1.27,2.0,1
3309,50.12,8.32,8.23,1
3310,50.13,5.64,2.38,1
3311,50.15,1.69,-0.86,1
3312,50.16,-1.61,-0.11,0
3313,50.17,-2.72,-10.95,0
3314,50.19,4.25,-38.64,0
3315,50.2,11.24,-88.5,0
3316,50.21,9.03,-149.85,0
3317,50.22,10.75,-172.57,0
3318,50.24,20.96,-140.58,0
3319,50.25,23.57,-100.63,0
3320,50.27,18.78,-78.35,0
3321,50.28,21.16,-70.21,0
3322,50.29,25.75,-74.41,0
3323,50.31,12.68,-70.01,0
3324,50.32,-11.13,-47.21,0
3325,50.33,-11.2,-24.51,0
3326,50.34,11.1,-2.28,0
3327,50.36,14.98,23.78,0
3328,50.37,-5.13,42.68,0
3329,50.38,-15.11,57.68,0
3330,50.4,-3.11,78.94,0
3331,50.41,7.22,102.68,0
3332,50.42,-2.28,122.55,0
3333,50.44,-16.3,137.27,0
3334,50.45,-16.26,150.2,0
3335,50.46,-11.14,163.95,0
3336,50.48,-15.65,170.08,0
3337,50.49,-21.62,165.15,0
3338,50.51,-17.47,164.13,0
3339,50.52,-11.66,168.52,0
3340,50.53,-12.42,163.68,0
3341,50.54,-18.03,155.39,0
3342,50.56,-27.48,147.27,1
3343,50.57,-32.02,129.27,1
3344,50.59,-23.41,118.04,1
3345,50.6,-10.17,116.71,1
3346,50.61,-6.88,97.19,1
3347,50.63,-15.49,76.01,1
3348,50.64,-24.31,73.98,1
3349,50.65,-24.63,58.06,1
3350,50.67,-19.99,28.61,1
3351,50.68,-14.15,25.07,1
3352,50.69,-1.87,33.87,1
3353,50.71,13.82,23.33,1
3354,50.72,15.04,6.81,1
3355,50.73,3.57,2.28,1
3356,50.75,-2.65,1.84,1
3357,50.76,-4.71,-4.72,1
3358,50.77,-7.01,-13.64,1
3359,50.79,-4.1,-16.23,1
3360,50.8,-0.08,-17.34,1
3361,50.81,-2.69,-23.96,1
3362,50.83,-5.56,-28.54,1
3363,50.84,-2.48,-31.3,1
3364,50.85,-0.5,-39.87,1
3365,50.87,-2.38,-43.09,1
3366,50.88,-1.02,-40.31,1
3367,50.89,6.27,-53.28,1
3368,50.9,13.67,-67.46,1
3369,50.92,13.57,-56.88,1
3370,50.93,11.23,-46.41,1
3371,50.95,17.03,-53.48,1
3372,50.96,20.1,-59.38,1
3373,50.97,7.26,-63.61,1
3374,50.98,-5.21,-68.22,1
3375,51.0,0.97,-64.13,1
3376,51.01,11.9,-60.2,1
3377,51.02,8.0,-62.09,1
3378,51.04,-2.61,-64.79,1
3379,51.05,-0.35,-68.14,1
3380,51.06,14.43,-61.22,1
3381,51.08,26.29,-44.52,1
3382,51.09,26.43,-42.03,1
3383,51.1,14.15,-50.21,1
3384,51.12,1.5,-52.66,1
3385,51.13,6.36,-58.43,1
3386,51.15,22.18,-66.37,1
3387,51.16,24.23,-63.55,1
3388,51.17,9.12,-54.12,1
3389,51.19,0.07,-41.75,1
3390,51.2,7.99,-33.44,1
3391,51.21,15.47,-42.1,1
3392,51.22,8.25,-50.13,1
3393,51.24,-4.89,-40.27,1
3394,51.25,-6.11,-34.29,1
3395,51.27,5.59,-38.44,1
3396,51.28,9.42,-35.82,1
3397,51.29,-2.88,-33.57,1
3398,51.31,-9.56,-34.45,1
3399,51.32,1.59,-28.76,1
3400,51.33,12.64,-26.96,1
3401,51.35,8.2,-27.82,1
3402,51.36,-1.68,-19.26,1
3403,51.37,-0.41,-14.96,1
3404,51.38,7.2,-17.48,1
3405,51.4,8.04,-11.65,1
3406,51.41,8.89,-7.03,1
3407,51.43,11.83,-12.68,1
3408,51.44,3.19,-15.94,1
3409,51.45,-8.98,-12.61,1
3410,51.47,-10.19,-7.36,1
3411,51.48,-7.75,-4.51,1
3412,51.49,-5.6,-7.83,1
3413,51.51,-1.96,-8.18,1
3414,51.52,-2.0,-1.26,1
3415,51.53,-1.63,-2.34,1
3416,51.54,1.29,-7.38,1
3417,51.56,-5.65,-0.41,1
3418,51.57,-18.25,5.22,1
3419,51.59,-16.43,1.25,1
3420,51.6,-3.89,2.64,1
3421,51.61,0.9,4.44,1
3422,51.62,0.35,-1.25,1
3423,51.64,0.88,-0.35,1
3424,51.65,-5.1,8.31,1
3425,51.66,-13.12,13.31,1
3426,51.68,-7.3,13.38,1
3427,51.69,8.6,8.96,1
3428,51.7,15.0,8.56,1
3429,51.72,6.12,16.93,1
3430,51.73,-3.25,15.7,1
3431,51.74,0.07,8.28,1
3432,51.76,7.36,16.99,1
3433,51.77,4.5,25.33,1
3434,51.79,-3.71,18.52,1
3435,51.8,-5.57,16.46,1
3436,51.81,1.17,20.13,1
3437,51.83,9.07,21.2,1
3438,51.84,5.21,26.94,1
3439,51.85,-8.09,29.01,1
3440,51.87,-12.45,20.35,1
3441,51.88,-3.71,14.58,1
3442,51.89,5.26,10.6,1
3443,51.9,4.33,5.26,1
3444,51.92,-1.33,8.58,1
3445,51.93,-2.6,10.21,1
3446,51.95,-4.45,5.67,1
3447,51.96,-9.04,13.7,1
3448,51.97,-7.99,24.17,1
3449,51.99,-5.38,22.6,1
3450,52.0,-7.16,23.47,1
3451,52.01,-4.12,21.56,1
3452,52.03,7.77,14.39,1
3453,52.04,19.87,28.25,1
3454,52.05,21.13,45.33,1
3455,52.06,6.76,28.37,1
3456,52.08,-9.88,2.88,1
3457,52.09,-13.42,2.66,1
3458,52.11,-13.15,17.32,1
3459,52.12,-20.3,25.63,1
3460,52.13,-22.07,18.8,1
3461,52.15,-10.59,11.48,1
3462,52.16,-2.0,17.02,2
3463,52.17,-1.68,16.65,2
3464,52.19,0.23,19.11,2
3465,52.2,1.27,79.73,2
3466,52.21,-3.41,199.89,2
3467,52.22,-11.0,312.92,2
3468,52.24,-21.07,368.97,2
3469,52.25,-29.09,351.94,2
3470,52.26,-29.26,280.06,2
3471,52.28,-25.06,198.75,2
3472,52.29,-21.54,120.95,2
3473,52.3,-18.12,43.64,2
3474,52.32,-9.34,-13.09,2
3475,52.33,4.57,-61.53,2
3476,52.34,13.38,-128.56,2
3477,52.36,14.28,-187.38,2
3478,52.37,12.81,-214.31,2
3479,52.38,13.7,-223.01,2
3480,52.4,19.43,-216.37,2
3481,52.41,24.88,-199.09,2
3482,52.43,21.43,-183.92,2
3483,52.44,12.55,-170.62,2
3484,52.45,10.29,-160.56,2
3485,52.47,14.78,-149.96,2
3486,52.48,13.22,-130.61,2
3487,52.49,4.44,-115.68,2
3488,52.51,4.58,-112.71,2
3489,52.52,15.77,-106.06,2
3490,52.53,21.52,-95.71,2
3491,52.54,17.03,-87.67,2
3492,52.56,9.68,-73.91,1
3493,52.57,4.6,-60.91,1
3494,52.59,4.04,-55.17,1
3495,52.6,7.12,-46.74,1
3496,52.61,10.06,-44.01,1
3497,52.63,11.08,-49.78,1
3498,52.64,11.61,-39.95,1
3499,52.65,11.85,-22.26,1
3500,52.67,5.23,-18.98,1
3501,52.68,-8.67,-15.1,1
3502,52.69,-12.98,-4.7,1
3503,52.71,-3.72,0.11,1
3504,52.72,-3.62,4.53,1
3505,52.73,-15.1,4.21,1
3506,52.75,-11.59,-2.11,1
3507,52.76,8.06,8.64,1
3508,52.77,16.84,24.05,1
3509,52.79,5.2,19.38,1
3510,52.8,-10.0,17.57,1
3511,52.81,-7.97,25.03,1
3512,52.83,4.02,18.91,1
3513,52.84,-2.71,14.39,1
3514,52.85,-16.67,27.47,1
3515,52.87,-3.58,35.92,1
3516,52.88,15.52,33.05,1
3517,52.89,8.48,37.49,1
3518,52.9,-2.49,49.98,1
3519,52.92,2.67,56.12,1
3520,52.93,6.79,48.57,1
3521,52.94,-1.48,38.73,1
3522,52.96,-12.43,41.87,1
3523,52.97,-14.03,47.75,1
3524,52.98,-5.77,42.96,1
3525,53.0,-1.06,40.77,1
3526,53.01,-6.12,47.64,1
3527,53.02,-6.96,51.5,1
3528,53.04,3.94,49.0,1
3529,53.05,11.36,39.36,1
3530,53.06,2.29,29.1,1
3531,53.08,-17.13,37.61,1
3532,53.09,-27.74,55.38,1
3533,53.11,-19.85,53.14,1
3534,53.12,-9.45,37.09,1
3535,53.13,-8.61,29.72,1
3536,53.15,-5.33,30.71,1
3537,53.16,6.85,32.31,1
3538,53.17,14.4,26.27,1
3539,53.19,5.88,11.99,1
3540,53.2,-8.95,11.25,1
3541,53.21,-11.44,23.58,1
3542,53.22,0.08,23.59,1
3543,53.24,8.05,19.77,1
3544,53.25,1.2,24.97,1
3545,53.27,-11.09,25.38,1
3546,53.28,-15.18,19.54,1
3547,53.29,-8.55,13.66,1
3548,53.31,-0.17,11.71,1
3549,53.32,-2.71,22.4,1
3550,53.33,-13.6,27.88,1
3551,53.35,-16.0,13.58,1
3552,53.36,-6.44,11.47,1
3553,53.37,5.23,27.97,1
3554,53.38,13.21,26.89,1
3555,53.4,13.33,17.29,1
3556,53.41,4.8,23.83,1
3557,53.43,-2.54,25.7,1
3558,53.44,-2.28,17.89,1
3559,53.45,0.2,18.95,1
3560,53.47,0.82,17.01,1
3561,53.48,0.67,7.29,1
3562,53.49,1.56,1.98,1
3563,53.51,3.92,-8.4,1
3564,53.52,4.35,-18.06,1
3565,53.53,3.01,-9.99,1
3566,53.54,1.9,0.59,1
3567,53.56,-2.56,5.29,1
3568,53.57,-7.51,8.84,1
3569,53.58,-4.97,-0.36,1
3570,53.6,1.46,-17.09,1
3571,53.61,3.42,-22.41,1
3572,53.62,1.24,-17.02,1
3573,53.64,-2.0,-5.42,1
3574,53.65,-2.44,2.77,1
3575,53.66,2.38,-2.61,1
3576,53.68,6.49,-6.57,1
3577,53.69,6.46,-1.96,1
3578,53.7,7.67,-3.43,1
3579,53.72,5.24,-8.25,1
3580,53.73,-6.26,-12.63,1
3581,53.75,-12.23,-23.44,1
3582,53.76,-4.59,-25.82,1
3583,53.77,6.0,-11.43,1
3584,53.79,12.52,-4.74,1
3585,53.8,7.34,-15.34,1
3586,53.81,-8.79,-28.08,1
3587,53.83,-13.62,-31.92,1
3588,53.84,0.97,-20.21,1
3589,53.85,17.98,-5.2,1
3590,53.87,23.1,-14.08,1
3591,53.88,12.08,-31.07,1
3592,53.89,-3.97,-26.35,1
3593,53.9,-4.73,-20.93,1
3594,53.92,3.63,-24.01,1
3595,53.93,2.45,-15.54,1
3596,53.95,-2.08,-11.25,1
3597,53.96,-4.06,-18.81,1
3598,53.97,-7.0,-19.37,1
3599,53.99,-2.09,-19.4,1
3600,54.0,5.96,-23.52,1
3601,54.01,1.84,-20.79,1
3602,54.03,-3.78,-19.42,1
3603,54.04,-1.25,-22.24,1
3604,54.05,-2.55,-17.66,1
3605,54.06,-8.64,-12.68,1
3606,54.08,-10.95,-14.31,1
3607,54.09,-8.13,-14.17,1
3608,54.11,-0.25,-13.7,1
3609,54.12,8.38,-12.85,1
3610,54.13,13.48,-6.94,1
3611,54.15,12.53,-9.94,1
3612,54.16,-1.54,-21.81,2
3613,54.17,-20.18,-23.52,2
3614,54.18,-16.71,-20.67,2
3615,54.2,7.56,-8.16,2
3616,54.21,20.04,43.43,2
3617,54.22,8.48,140.48,2
3618,54.24,-8.68,266.06,2
3619,54.25,-7.74,339.54,2
3620,54.26,20.22,224.18,2
3621,54.28,46.6,-48.47,2
3622,54.29,27.96,-226.06,2
3623,54.3,-28.59,-154.43,2
3624,54.32,-65.73,60.47,2
3625,54.33,-49.68,182.79,2
3626,54.34,-14.42,87.42,2
3627,54.36,-16.17,-42.94,2
3628,54.37,-44.85,-17.15,2
3629,54.38,-32.56,40.9,2
3630,54.4,18.74,1.85,2
3631,54.41,33.1,-33.19,2
3632,54.43,3.09,12.78,2
3633,54.44,-10.64,21.19,2
3634,54.45,3.67,-59.98,2
3635,54.47,11.09,-66.02,2
3636,54.48,4.8,10.77,2
3637,54.49,8.98,-12.85,2
3638,54.51,32.51,-105.09,2
3639,54.52,44.42,-137.07,2
3640,54.53,16.82,-129.8,2
3641,54.54,-8.65,-129.9,2
3642,54.56,1.5,-132.74,1
3643,54.57,-2.02,-112.85,1
3644,54.59,-28.74,-74.32,1
3645,54.6,-23.43,-54.12,1
3646,54.61,16.79,-87.72,1
3647,54.63,37.43,-165.23,1
3648,54.64,11.28,-170.77,1
3649,54.65,-4.05,-60.93,1
3650,54.67,29.5,14.96,1
3651,54.68,35.96,-19.82,1
3652,54.69,-2.2,-75.34,1
3653,54.71,-3.29,-88.49,1
3654,54.72,19.35,-88.9,1
3655,54.73,8.95,-109.61,1
3656,54.75,-5.72,-115.4,1
3657,54.76,-4.17,-88.69,1
3658,54.77,-2.1,-73.51,1
3659,54.79,8.48,-51.55,1
3660,54.8,23.96,8.14,1
3661,54.81,20.21,31.9,1
3662,54.82,6.32,-8.57,1
3663,54.84,8.72,-11.72,1
3664,54.85,17.03,40.43,1
3665,54.86,9.43,36.89,1
3666,54.88,1.83,-13.52,1
3667,54.89,7.28,-13.74,1
3668,54.9,-2.4,6.42,1
3669,54.92,-29.18,4.83,1
3670,54.93,-24.09,20.93,1
3671,54.94,9.58,48.85,1
3672,54.96,17.63,47.01,1
3673,54.97,6.66,19.81,1
3674,54.98,3.63,7.43,1
3675,55.0,-5.84,36.04,1
3676,55.01,-15.2,72.19,1
3677,55.025000000000006,-7.36,57.22,1
3678,55.04,-6.32,9.71,1
3679,55.05,-28.02,29.35,1
3680,55.06,-43.97,117.57,1
3681,55.08,-30.23,136.52,1
3682,55.09,-5.8,64.41,1
3683,55.11,2.71,25.43,1
3684,55.12,4.48,48.75,1
3685,55.13,18.88,63.59,1
3686,55.15,34.24,35.95,1
3687,55.16,25.63,8.88,1
3688,55.17,0.81,34.25,1
3689,55.19,-10.35,65.1,1
3690,55.2,-2.59,35.01,1
3691,55.21,14.34,-8.91,1
3692,55.22,24.49,7.79,1
3693,55.24,7.27,50.8,1
3694,55.25,-20.24,43.72,1
3695,55.27,-23.9,13.38,1
3696,55.28,-11.41,34.28,1
3697,55.29,-6.94,72.7,1
3698,55.31,-4.31,48.01,1
3699,55.32,5.59,-4.48,1
3700,55.33,7.62,-0.29,1
3701,55.35,-4.94,40.33,1
3702,55.36,-20.84,52.76,1
3703,55.37,-33.01,60.69,1
3704,55.38,-33.56,85.4,1
3705,55.4,-13.56,55.48,1
3706,55.41,20.1,-11.97,1
3707,55.43,34.34,-6.39,1
3708,55.44,12.31,55.91,1
3709,55.45,-9.41,80.89,1
3710,55.46,-4.6,55.74,1
3711,55.48,0.59,34.23,1
3712,55.49,-15.15,34.17,1
3713,55.5,-32.14,25.17,1
3714,55.52,-28.2,23.72,1
3715,55.53,-18.68,40.96,1
3716,55.54,-19.67,28.01,1
3717,55.56,-9.28,3.96,1
3718,55.57,14.52,27.33,1
3719,55.58,15.45,56.66,1
3720,55.6,-9.56,47.18,1
3721,55.61,-24.85,30.16,1
3722,55.62,-10.68,20.1,1
3723,55.64,12.54,15.63,1
3724,55.65,7.64,10.59,1
3725,55.66,-11.14,-23.54,1
3726,55.68,7.11,-40.55,1
3727,55.69,37.84,3.81,1
3728,55.71,15.51,8.59,1
3729,55.72,-32.48,-49.98,1
3730,55.73,-38.0,-51.64,1
3731,55.75,-13.6,-12.38,1
3732,55.76,-5.27,-1.79,1
3733,55.77,-7.87,8.22,1
3734,55.79,4.4,-3.72,1
3735,55.8,24.51,-41.78,1
3736,55.81,24.99,-14.88,1
3737,55.83,4.32,60.22,1
3738,55.84,-14.7,74.22,1
3739,55.85,-19.69,22.63,1
3740,55.87,-10.35,-25.29,1
3741,55.88,-1.4,-38.67,1
3742,55.89,-8.53,-19.03,1
3743,55.9,-12.06,5.53,1
3744,55.92,5.76,-4.39,1
3745,55.93,24.47,-27.62,1
3746,55.95,23.49,-33.09,1
3747,55.96,7.01,-25.77,1
3748,55.97,-1.42,13.25,1
3749,55.99,16.97,51.73,1
3750,56.0,45.52,21.38,1
3751,56.01,41.93,-24.46,1
3752,56.03,3.12,-32.97,1
3753,56.04,-14.03,-48.66,1
3754,56.05,9.24,-58.38,1
3755,56.06,14.6,-28.26,1
3756,56.08,-18.02,2.3,1
3757,56.09,-32.51,18.48,1
3758,56.1,-14.97,14.57,1
3759,56.12,-5.12,-23.75,1
3760,56.13,0.52,-32.6,1
3761,56.14,9.83,9.12,1
3762,56.16,3.97,9.81,0
3763,56.17,1.84,-47.3,0
3764,56.18,10.65,-108.76,0
3765,56.2,2.51,-174.77,0
3766,56.21,-6.22,-229.64,0
3767,56.22,6.45,-233.71,0
3768,56.24,13.9,-208.49,0
3769,56.25,5.04,-190.93,0
3770,56.26,3.2,-183.27,0
3771,56.28,12.15,-160.3,0
3772,56.29,16.62,-90.66,0
3773,56.3,17.96,-2.13,0
3774,56.32,22.29,48.04,0
3775,56.33,17.44,68.68,0
3776,56.35,-0.47,92.1,0
3777,56.36,-9.62,110.64,0
3778,56.37,-4.03,114.2,0
3779,56.38,-5.92,110.12,0
3780,56.4,-17.17,106.1,0
3781,56.41,-16.49,106.06,0
3782,56.43,-3.12,105.84,0
3783,56.44,5.29,98.02,0
3784,56.45,-0.35,86.35,0
3785,56.47,-12.13,77.68,0
3786,56.48,-13.37,69.21,0
3787,56.49,-6.73,59.01,0
3788,56.51,-3.88,47.95,0
3789,56.52,3.17,34.73,0
3790,56.53,11.21,29.19,0
3791,56.54,3.93,34.61,0
3792,56.56,-6.85,36.11,1
3793,56.57,-0.83,37.95,1
3794,56.59,16.3,43.74,1
3795,56.6,23.18,38.43,1
3796,56.61,13.19,32.73,1
3797,56.63,3.6,34.15,1
3798,56.64,2.87,22.36,1
3799,56.65,-0.94,8.35,1
3800,56.67,-8.07,12.34,1
3801,56.68,-7.34,16.17,1
3802,56.69,0.72,12.25,1
3803,56.71,6.13,11.04,1
3804,56.72,1.11,8.86,1
3805,56.73,-9.7,10.26,1
3806,56.74,-11.59,12.27,1
3807,56.76,-5.22,-2.86,1
3808,56.77,-5.0,-14.49,1
3809,56.78,-6.66,-2.88,1
3810,56.8,1.5,4.69,1
3811,56.81,7.5,1.04,1
3812,56.82,-1.7,0.01,1
3813,56.84,-12.3,-8.44,1
3814,56.85,-9.78,-18.04,1
3815,56.86,-2.53,-16.05,1
3816,56.88,1.5,-17.32,1
3817,56.89,7.77,-18.01,1
3818,56.9,12.07,-8.28,1
3819,56.92,3.61,-8.28,1
3820,56.93,-7.72,-17.2,1
3821,56.94,-7.47,-16.9,1
3822,56.96,-5.83,-16.53,1
3823,56.97,-13.77,-19.53,1
3824,56.99,-15.2,-16.83,1
3825,57.0,0.23,-17.3,1
3826,57.01,11.13,-21.67,1
3827,57.03,2.82,-20.85,1
3828,57.04,-8.54,-23.26,1
3829,57.05,-8.73,-26.03,1
3830,57.06,-3.4,-15.52,1
3831,57.08,-1.01,-6.68,1
3832,57.09,-1.03,-12.34,1
3833,57.11,0.88,-16.0,1
3834,57.12,3.58,-11.41,1
3835,57.13,3.85,-7.62,1
3836,57.15,3.01,-9.56,1
3837,57.16,-2.0,-20.09,1
3838,57.17,-9.44,-26.55,1
3839,57.19,-4.86,-17.13,1
3840,57.2,5.09,-11.16,1
3841,57.21,-1.47,-18.74,1
3842,57.22,-14.94,-21.6,1
3843,57.24,-11.85,-20.73,1
3844,57.25,0.67,-23.75,1
3845,57.27,2.39,-24.96,1
3846,57.28,0.87,-34.14,1
3847,57.29,9.74,-44.58,1
3848,57.31,11.38,-32.3,1
3849,57.32,-3.07,-19.73,1
3850,57.33,-6.83,-24.2,1
3851,57.35,5.94,-18.03,1
3852,57.36,10.37,-5.69,1
3853,57.37,4.22,-10.59,1
3854,57.38,3.05,-23.42,1
3855,57.4,4.42,-31.98,1
3856,57.41,-2.45,-27.18,1
3857,57.42,-9.05,-10.93,1
3858,57.44,-1.23,-4.33,1
3859,57.45,10.22,-6.82,1
3860,57.46,8.92,-8.08,1
3861,57.48,0.59,-14.41,1
3862,57.49,-2.05,-15.44,1
3863,57.5,0.68,-4.78,1
3864,57.52,2.75,-5.59,1
3865,57.53,4.7,-9.05,1
3866,57.54,5.99,6.36,1
3867,57.56,0.88,10.55,1
3868,57.57,-8.39,-5.15,1
3869,57.58,-12.73,-5.54,1
3870,57.6,-8.26,3.55,1
3871,57.61,-0.29,6.34,1
3872,57.625,4.82,14.7,1
3873,57.64,3.54,17.01,1
3874,57.65,-4.77,7.57,1
3875,57.67,-10.32,7.31,1
3876,57.68,-4.96,7.05,1
3877,57.69,2.96,-1.22,1
3878,57.71,8.39,-0.4,1
3879,57.72,14.32,-2.91,1
3880,57.73,15.7,-14.61,1
3881,57.75,11.29,-11.18,1
3882,57.76,9.13,-4.42,1
3883,57.77,9.7,-10.43,1
3884,57.79,4.27,-8.79,1
3885,57.8,-7.23,2.2,1
3886,57.81,-11.67,11.49,1
3887,57.83,-3.07,20.02,1
3888,57.84,6.17,13.0,1
3889,57.85,6.86,-2.94,1
3890,57.87,6.4,3.93,1
3891,57.88,6.28,16.19,1
3892,57.89,-1.9,9.78,1
3893,57.9,-9.71,6.89,1
3894,57.92,-6.54,16.18,1
3895,57.93,-5.3,24.3,1
3896,57.95,-10.34,21.98,1
3897,57.96,-5.17,5.04,1
3898,57.97,6.9,-2.77,1
3899,57.99,5.16,12.73,1
3900,58.0,-6.29,17.51,1
3901,58.01,-5.03,3.4,1
3902,58.02,6.29,3.63,1
3903,58.04,7.7,14.96,1
3904,58.05,0.51,14.54,1
3905,58.06,-3.33,13.69,1
3906,58.08,-9.11,18.72,1
3907,58.09,-16.79,14.84,1
3908,58.1,-13.49,4.39,1
3909,58.12,-4.83,-4.4,1
3910,58.13,-2.21,-5.78,1
3911,58.14,3.43,8.48,1
3912,58.16,13.27,19.13,0
3913,58.17,9.91,9.19,0
3914,58.18,-4.78,-0.91,0
3915,58.2,-8.31,-6.07,0
3916,58.21,-1.91,-28.63,0
3917,58.22,-1.52,-70.66,0
3918,58.24,-1.98,-113.66,0
3919,58.25,3.2,-139.32,0
3920,58.26,6.59,-141.12,0
3921,58.28,1.84,-130.18,0
3922,58.29,-6.71,-112.1,0
3923,58.31,-3.61,-88.14,0
3924,58.32,7.15,-77.25,0
3925,58.33,9.23,-74.95,0
3926,58.35,17.88,-54.69,0
3927,58.36,32.42,-27.4,0
3928,58.37,24.49,-5.14,0
3929,58.38,11.51,24.33,0
3930,58.4,16.04,46.87,0
3931,58.41,12.71,54.04,0
3932,58.43,0.18,67.24,0
3933,58.44,7.59,82.46,0
3934,58.45,20.3,93.12,0
3935,58.47,7.33,115.57,0
3936,58.48,-20.63,140.0,0
3937,58.49,-36.67,148.55,0
3938,58.51,-34.8,150.04,0
3939,58.52,-24.06,148.77,0
3940,58.53,-12.85,148.62,0
3941,58.54,-9.0,158.12,0
3942,58.56,-15.72,159.25,1
3943,58.57,-18.14,141.19,1
3944,58.59,-5.58,127.75,1
3945,58.6,-0.52,124.13,1
3946,58.61,-16.77,113.37,1
3947,58.63,-23.56,99.08,1
3948,58.64,-8.22,86.15,1
3949,58.65,-1.18,71.96,1
3950,58.66,-7.86,61.59,1
3951,58.68,-6.07,52.2,1
3952,58.69,2.87,43.88,1
3953,58.7,6.31,46.38,1
3954,58.72,6.57,45.97,1
3955,58.73,8.78,29.14,1
3956,58.74,7.46,13.43,1
3957,58.76,-0.45,4.84,1
3958,58.77,-6.43,-9.22,1
3959,58.78,-8.12,-21.13,1
3960,58.8,-9.99,-21.47,1
3961,58.81,-4.29,-19.34,1
3962,58.82,10.74,-19.71,1
3963,58.84,16.86,-25.98,1
3964,58.85,7.63,-38.72,1
3965,58.86,-1.73,-43.49,1
3966,58.88,-6.71,-41.52,1
3967,58.89,-11.4,-45.93,1
3968,58.9,-8.93,-47.12,1
3969,58.92,3.21,-44.24,1
3970,58.93,11.65,-50.02,1
3971,58.95,5.69,-53.45,1
3972,58.96,-6.41,-53.86,1
3973,58.97,-8.88,-62.4,1
3974,58.99,-1.54,-58.92,1
3975,59.0,4.45,-43.42,1
3976,59.01,6.19,-44.63,1
3977,59.03,6.61,-52.97,1
3978,59.04,4.14,-52.38,1
3979,59.05,-3.08,-50.39,1
3980,59.06,-7.35,-46.02,1
3981,59.08,-0.04,-46.24,1
3982,59.09,9.61,-57.13,1
3983,59.11,8.69,-55.77,1
3984,59.12,4.07,-43.53,1
3985,59.13,5.77,-46.95,1
3986,59.15,8.03,-53.99,1
3987,59.16,3.9,-49.59,1
3988,59.17,1.07,-48.3,1
3989,59.19,7.27,-46.64,1
3990,59.2,13.89,-40.83,1
3991,59.21,14.5,-46.18,1
3992,59.22,15.44,-53.9,1
3993,59.24,14.27,-52.53,1
3994,59.25,5.88,-50.64,1
3995,59.27,0.97,-44.54,1
3996,59.28,2.6,-35.17,1
3997,59.29,-1.13,-34.28,1
3998,59.3,-8.93,-32.99,1
3999,59.32,-10.91,-25.79,1
4000,59.33,-6.63,-22.53,1
4001,59.34,-1.09,-22.32,1
4002,59.36,-1.19,-27.47,1
4003,59.37,-6.28,-37.78,1
4004,59.38,-4.37,-38.05,1
4005,59.4,1.38,-33.3,1
4006,59.41,-2.37,-34.18,1
4007,59.42,-5.69,-27.37,1
4008,59.44,1.73,-14.0,1
4009,59.45,7.48,-10.26,1
4010,59.46,6.1,-9.37,1
4011,59.48,3.13,-8.04,1
4012,59.49,-2.38,-13.33,1
4013,59.5,-6.34,-13.74,1
4014,59.52,-2.51,-8.26,1
4015,59.53,1.96,-10.02,1
4016,59.54,1.97,-8.12,1
4017,59.56,1.45,1.16,1
4018,59.57,-0.44,1.6,1
4019,59.59,-0.55,-0.65,1
4020,59.6,5.73,1.35,1
4021,59.61,6.3,-2.69,1
4022,59.63,-5.38,1.67,1
4023,59.64,-13.03,20.1,1
4024,59.65,-7.84,18.48,1
4025,59.67,-0.29,-0.46,1
4026,59.68,1.97,-4.21,1
4027,59.69,0.41,0.37,1
4028,59.71,-0.39,6.93,1
4029,59.72,3.93,18.33,1
4030,59.73,10.49,17.96,1
4031,59.75,13.32,16.85,1
4032,59.76,9.33,29.38,1
4033,59.77,-3.3,29.72,1
4034,59.79,-15.39,16.34,1
4035,59.8,-13.27,13.52,1
4036,59.81,-0.03,19.29,1
4037,59.83,11.83,28.18,1
4038,59.84,13.37,32.63,1
4039,59.85,3.22,20.13,1
4040,59.87,-8.16,10.8,1
4041,59.88,-7.83,15.31,1
4042,59.89,3.34,11.37,1
4043,59.9,12.54,7.9,1
4044,59.92,10.25,20.5,1
4045,59.93,-0.3,26.83,1
4046,59.94,-8.62,22.7,1
4047,59.96,-10.36,24.72,1
4048,59.97,-9.65,22.88,1
4049,59.98,-5.6,12.32,1
4050,60.0,3.55,7.89,1
4051,60.01,6.48,10.09,1
4052,60.02,-2.57,16.65,1
4053,60.04,-11.21,25.56,1
4054,60.05,-10.69,22.0,1
4055,60.06,-2.77,10.02,1
4056,60.08,5.14,6.82,1
4057,60.09,6.92,8.36,1
4058,60.1,12.45,13.03,1
4059,60.12,22.13,25.75,1
4060,60.13,16.07,34.6,1
4061,60.14,4.97,31.14,1
4062,60.16,9.84,18.71,2
4063,60.17,10.85,4.97,2
4064,60.18,-2.97,7.24,2
4065,60.2,-10.83,24.49,2
4066,60.21,-7.37,46.88,2
4067,60.22,-1.78,103.57,2
4068,60.24,2.2,210.37,2
4069,60.25,0.12,313.5,2
4070,60.27,-4.34,358.57,2
4071,60.28,-5.24,339.6,2
4072,60.29,-12.83,272.12,2
4073,60.31,-27.51,189.18,2
4074,60.32,-31.25,120.82,2
4075,60.33,-26.5,57.88,2
4076,60.35,-27.7,-9.05,2
4077,60.36,-26.35,-67.66,2
4078,60.37,-15.62,-127.07,2
4079,60.38,-9.69,-192.0,2
4080,60.4,-11.08,-236.38,2
4081,60.41,-6.75,-250.21,2
4082,60.43,2.7,-238.77,2
4083,60.44,8.55,-213.36,2
4084,60.45,13.3,-200.01,2
4085,60.47,20.63,-196.35,2
4086,60.48,22.92,-178.93,2
4087,60.49,15.04,-155.82,2
4088,60.51,7.68,-136.43,2
4089,60.52,11.07,-112.58,2
4090,60.53,16.96,-95.14,2
4091,60.54,13.95,-92.73,2
4092,60.56,6.57,-90.85,1
4093,60.57,4.0,-84.75,1
4094,60.58,7.03,-72.78,1
4095,60.6,11.4,-51.34,1
4096,60.61,10.95,-43.8,1
4097,60.62,5.72,-53.17,1
4098,60.64,3.58,-44.31,1
4099,60.65,2.65,-20.97,1
4100,60.66,2.93,-10.23,1
4101,60.68,10.83,-9.13,1
4102,60.69,10.71,-14.57,1
4103,60.7,-5.95,-21.13,1
4104,60.72,-15.19,-13.08,1
4105,60.73,-7.11,1.87,1
4106,60.74,1.76,9.55,1
4107,60.76,3.7,11.26,1
4108,60.77,3.29,7.9,1
4109,60.78,4.76,8.78,1
4110,60.8,6.46,21.83,1
4111,60.81,0.85,25.26,1
4112,60.82,-8.5,13.02,1
4113,60.84,-6.17,12.03,1
4114,60.85,3.98,25.08,1
4115,60.865,4.71,35.46,1
4116,60.88,-2.09,40.44,1
4117,60.89,-4.86,38.66,1
4118,60.9,2.02,32.34,1
4119,60.92,13.09,28.68,1
4120,60.93,10.11,27.56,1
4121,60.95,-4.35,34.99,1
4122,60.96,-3.18,51.09,1
4123,60.97,12.43,55.61,1
4124,60.99,13.54,49.81,1
4125,61.0,-4.84,50.69,1
4126,61.01,-18.46,48.73,1
4127,61.03,-11.76,40.37,1
4128,61.04,0.5,40.14,1
4129,61.05,1.05,45.22,1
4130,61.06,-4.4,48.5,1
4131,61.08,-4.85,45.75,1
4132,61.09,-2.03,29.97,1
4133,61.11,-4.96,19.73,1
4134,61.12,-15.5,32.41,1
4135,61.13,-20.53,43.94,1
4136,61.15,-13.32,39.0,1
4137,61.16,-1.55,34.77,1
4138,61.17,8.02,34.36,1
4139,61.19,10.62,30.18,1
4140,61.2,4.0,28.92,1
4141,61.21,-5.48,34.46,1
4142,61.22,-10.98,40.74,1
4143,61.24,-11.39,37.82,1
4144,61.25,-8.57,20.02,1
4145,61.26,-3.55,5.54,1
4146,61.28,1.3,12.93,1
4147,61.29,-0.19,23.04,1
4148,61.3,-7.51,18.12,1
4149,61.32,-10.16,15.87,1
4150,61.33,-6.46,25.61,1
4151,61.34,-5.76,29.72,1
4152,61.36,-5.58,23.99,1
4153,61.37,1.83,18.59,1
4154,61.38,7.91,16.98,1
4155,61.4,4.79,15.88,1
4156,61.41,-0.9,6.57,1
4157,61.42,-1.79,-4.46,1
4158,61.44,3.11,3.85,1
4159,61.45,9.25,22.87,1
4160,61.46,9.16,28.96,1
4161,61.48,2.56,20.93,1
4162,61.49,-2.38,4.14,1
4163,61.5,-4.51,-9.73,1
4164,61.52,-6.87,-5.38,1
4165,61.53,-4.78,3.1,1
4166,61.54,0.32,1.31,1
4167,61.56,-2.29,1.14,1
4168,61.57,-10.27,1.69,1
4169,61.59,-9.63,-3.66,1
4170,61.6,-1.19,-8.46,1
4171,61.61,1.31,-15.98,1
4172,61.63,-1.83,-17.42,1
4173,61.64,2.1,0.99,1
4174,61.65,13.68,10.97,1
4175,61.67,18.45,-4.95,1
4176,61.68,8.6,-14.99,1
4177,61.69,-1.46,-10.14,1
4178,61.71,2.16,-8.26,1
4179,61.72,8.67,-5.37,1
4180,61.73,4.06,-6.68,1
4181,61.75,-3.7,-23.81,1
4182,61.76,-5.43,-27.96,1
4183,61.77,-5.91,-8.95,1
4184,61.79,-4.53,-3.43,1
4185,61.8,1.14,-15.92,1
4186,61.81,3.19,-22.26,1
4187,61.83,1.98,-20.42,1
4188,61.84,5.87,-16.91,1
4189,61.85,5.67,-15.36,1
4190,61.86,-6.92,-16.08,1
4191,61.88,-13.67,-11.66,1
4192,61.89,-3.75,-7.78,1
4193,61.9,6.18,-12.52,1
4194,61.92,8.52,-11.24,1
4195,61.93,13.39,-7.45,1
4196,61.94,20.12,-20.32,1
4197,61.96,16.43,-30.71,1
4198,61.97,1.35,-23.97,1
4199,61.98,-9.33,-20.52,1
4200,62.0,-1.02,-19.89,1
4201,62.01,13.2,-15.5,1
4202,62.02,11.34,-17.49,1
4203,62.04,-1.17,-16.96,1
4204,62.05,-11.99,-8.28,1
4205,62.06,-18.11,-8.11,1
4206,62.08,-15.51,-15.49,1
4207,62.09,-9.99,-17.93,1
4208,62.1,-7.19,-13.68,1
4209,62.12,-3.21,-4.59,1
4210,62.13,-5.47,-7.27,1
4211,62.14,-12.31,-26.98,1
4212,62.16,-2.23,-33.76,2
4213,62.17,17.54,-25.33,2
4214,62.19,17.3,-22.25,2
4215,62.2,-1.15,-4.43,2
4216,62.21,-13.06,31.37,2
4217,62.22,-9.27,57.46,2
4218,62.24,3.01,71.84,2
4219,62.25,19.85,74.3,2
4220,62.27,30.07,70.47,2
4221,62.28,22.62,73.48,2
4222,62.29,22.6,87.95,2
4223,62.31,39.7,115.86,2
4224,62.32,26.68,112.02,2
4225,62.33,-26.52,78.26,2
4226,62.35,-53.58,104.9,2
4227,62.36,-20.61,152.97,2
4228,62.37,19.25,100.12,2
4229,62.38,18.64,-10.82,2
4230,62.4,-9.43,-51.93,2
4231,62.41,-30.43,-21.91,2
4232,62.43,-21.1,-2.46,2
4233,62.44,-0.91,-42.2,2
4234,62.45,-4.11,-131.48,2
4235,62.47,-18.51,-151.43,2
4236,62.48,-21.57,-47.43,2
4237,62.49,-13.94,-2.73,2
4238,62.5,-3.98,-97.55,2
4239,62.52,-13.88,-147.29,2
4240,62.53,-32.02,-91.56,2
4241,62.54,-17.61,-62.23,2
4242,62.56,6.55,-100.25,1
4243,62.57,12.2,-139.34,1
4244,62.58,23.03,-118.13,1
4245,62.6,33.0,-67.94,1
4246,62.61,20.1,-77.2,1
4247,62.62,0.87,-95.35,1
4248,62.64,-8.18,-54.59,1
4249,62.65,-9.31,-60.77,1
4250,62.66,-5.11,-138.24,1
4251,62.68,0.23,-135.41,1
4252,62.69,4.49,-51.59,1
4253,62.7,10.8,-30.74,1
4254,62.72,19.31,-68.33,1
4255,62.73,26.02,-81.27,1
4256,62.74,26.35,-54.42,1
4257,62.76,18.16,-8.64,1
4258,62.77,8.6,14.19,1
4259,62.78,12.5,-7.02,1
4260,62.8,23.94,-40.42,1
4261,62.81,15.9,-48.87,1
4262,62.825,-10.79,-36.07,1
4263,62.84,-25.87,-16.85,1
4264,62.85,-20.5,8.43,1
4265,62.87,-14.39,19.3,1
4266,62.88,-13.94,16.92,1
4267,62.89,-9.5,29.87,1
4268,62.9,-7.26,17.41,1
4269,62.92,-16.5,-41.49,1
4270,62.93,-22.93,-53.42,1
4271,62.95,-15.88,16.18,1
4272,62.96,-2.95,79.9,1
4273,62.97,13.46,76.96,1
4274,62.99,17.13,35.88,1
4275,63.0,-9.97,35.06,1
4276,63.01,-33.88,74.7,1
4277,63.03,-15.56,53.41,1
4278,63.04,21.54,-8.11,1
4279,63.05,27.31,3.96,1
4280,63.06,-0.74,39.54,1
4281,63.08,-9.33,12.04,1
4282,63.09,13.95,4.46,1
4283,63.11,17.39,78.38,1
4284,63.12,-2.24,123.59,1
4285,63.13,-4.13,62.04,1
4286,63.14,4.41,-1.7,1
4287,63.16,-2.34,14.74,1
4288,63.17,-10.2,29.99,1
4289,63.18,2.1,7.79,1
4290,63.2,16.78,27.72,1
4291,63.21,14.35,84.02,1
4292,63.22,9.79,77.51,1
4293,63.24,4.62,8.47,1
4294,63.25,-14.26,-14.84,1
4295,63.26,-26.02,48.93,1
4296,63.28,-11.36,117.01,1
4297,63.29,9.52,94.07,1
4298,63.3,16.96,11.89,1
4299,63.32,16.46,-7.53,1
4300,63.33,16.16,40.37,1
4301,63.34,12.84,71.95,1
4302,63.36,2.76,67.15,1
4303,63.37,-9.51,34.17,1
4304,63.38,-13.55,-6.09,1
4305,63.4,-7.54,-12.41,1
4306,63.41,0.55,13.93,1
4307,63.42,9.96,37.8,1
4308,63.44,13.84,42.82,1
4309,63.45,0.24,34.98,1
4310,63.46,-14.2,10.42,1
4311,63.48,-5.83,-21.35,1
4312,63.49,10.27,-11.6,1
4313,63.51,6.16,36.39,1
4314,63.52,-8.67,57.79,1
4315,63.53,-10.69,34.78,1
4316,63.54,-2.72,11.88,1
4317,63.56,-1.24,15.25,1
4318,63.57,-10.68,-1.1,1
4319,63.59,-9.41,-57.13,1
4320,63.6,13.34,-62.84,1
4321,63.61,28.28,29.01,1
4322,63.63,19.55,111.27,1
4323,63.64,0.18,104.76,1
4324,63.65,-13.84,56.95,1
4325,63.67,-12.75,21.85,1
4326,63.68,-12.27,31.19,1
4327,63.69,-25.69,56.94,1
4328,63.71,-23.59,22.34,1
4329,63.72,9.61,-37.12,1
4330,63.73,24.87,-40.68,1
4331,63.75,2.47,-10.48,1
4332,63.76,0.46,16.29,1
4333,63.77,26.02,31.33,1
4334,63.78,17.05,14.42,1
4335,63.8,-21.94,-22.38,1
4336,63.81,-24.08,-46.44,1
4337,63.82,6.42,-38.87,1
4338,63.84,0.66,-5.0,1
4339,63.85,-32.92,8.47,1
4340,63.86,-22.79,-3.99,1
4341,63.88,18.6,-0.53,1
4342,63.89,24.37,4.51,1
4343,63.9,-1.91,-14.14,1
4344,63.92,-11.52,-39.6,1
4345,63.93,-0.68,-58.74,1
4346,63.94,1.39,-61.73,1
4347,63.96,-6.7,-31.58,1
4348,63.97,-7.79,13.77,1
4349,63.98,1.9,32.73,1
4350,64.0,13.84,25.84,1
4351,64.01,13.74,0.08,1
4352,64.02,-4.75,-64.49,1
4353,64.04,-24.93,-100.96,1
4354,64.05,-16.87,-26.45,1
4355,64.06,13.24,49.01,1
4356,64.08,20.38,17.07,1
4357,64.09,-3.83,-21.29,1
4358,64.1,-16.29,-3.32,1
4359,64.12,-2.87,6.64,1
4360,64.13,-3.23,-4.09,1
4361,64.14,-18.01,-9.52,1
4362,64.16,1.0,0.67,0
4363,64.17,35.34,6.12,0
4364,64.18,30.78,-60.93,0
4365,64.2,2.08,-188.13,0
4366,64.21,-13.2,-259.72,0
4367,64.22,-9.62,-254.17,0
4368,64.24,2.24,-244.34,0
4369,64.25,6.43,-237.92,0
4370,64.26,-5.78,-201.09,0
4371,64.28,-22.57,-133.92,0
4372,64.29,-20.18,-57.51,0
4373,64.3,5.82,8.91,0
4374,64.32,31.77,64.28,0
4375,64.33,38.9,110.65,0
4376,64.34,27.87,137.96,0
4377,64.36,8.94,149.2,0
4378,64.37,-3.96,148.52,0
4379,64.38,-5.08,131.81,0
4380,64.4,-3.99,121.26,0
4381,64.41,-11.03,132.05,0
4382,64.42,-19.68,129.78,0
4383,64.44,-17.16,102.97,0
4384,64.45,-7.21,88.14,0
4385,64.46,-1.84,89.79,0
4386,64.48,-0.97,86.72,0
4387,64.49,-1.94,80.72,0
4388,64.5,-7.62,71.71,0
4389,64.52,-12.81,57.45,0
4390,64.53,-8.94,56.12,0
4391,64.54,-0.83,61.61,0
4392,64.56,-0.65,42.54,1
4393,64.57,-6.48,13.98,1
4394,64.58,-3.18,11.77,1
4395,64.6,8.81,25.13,1
4396,64.61,10.6,28.53,1
4397,64.62,-1.22,20.23,1
4398,64.64,-6.79,12.6,1
4399,64.65,-0.25,13.2,1
4400,64.66,1.04,10.56,1
4401,64.68,-6.88,1.6,1
4402,64.69,-8.29,-0.24,1
4403,64.7,0.73,-0.91,1
4404,64.72,7.2,-2.47,1
4405,64.73,4.92,9.58,1
4406,64.74,1.45,16.61,1
4407,64.76,3.27,0.29,1
4408,64.77,6.5,-13.04,1
4409,64.79,3.25,-12.79,1
4410,64.8,-5.72,-12.04,1
4411,64.81,-9.72,-7.91,1
4412,64.82,-1.9,-8.15,1
4413,64.84,7.48,-21.19,1
4414,64.85,5.55,-27.24,1
4415,64.86,-0.83,-22.27,1
4416,64.88,-0.27,-19.75,1
4417,64.89,2.72,-19.27,1
4418,64.9,4.3,-23.2,1
4419,64.92,5.95,-26.35,1
4420,64.93,1.91,-16.55,1
4421,64.94,-5.63,-12.24,1
4422,64.96,-3.03,-24.88,1
4423,64.97,4.13,-29.84,1
4424,64.98,0.5,-24.05,1
4425,65.0,-4.9,-23.49,1
4426,65.01,1.53,-17.02,1
4427,65.02,11.08,-5.53,1
4428,65.04,11.31,-14.85,1
4429,65.05,2.52,-33.4,1
4430,65.06,-4.23,-37.61,1
4431,65.08,-2.95,-38.93,1
4432,65.09,-2.11,-36.49,1
4433,65.1,-4.11,-24.1,1
4434,65.12,0.18,-22.32,1
4435,65.13,5.78,-27.85,1
4436,65.14,2.66,-22.45,1
4437,65.16,1.48,-15.55,1
4438,65.17,8.62,-18.54,1
4439,65.18,9.36,-30.48,1
4440,65.2,0.85,-38.03,1
4441,65.21,-6.0,-27.94,1
4442,65.22,-11.07,-14.83,1
4443,65.24,-11.55,-14.62,1
4444,65.25,0.59,-18.13,1
4445,65.26,13.67,-18.09,1
4446,65.28,15.93,-15.14,1
4447,65.29,11.24,-13.22,1
4448,65.3,1.3,-23.87,1
4449,65.32,-8.59,-35.16,1
4450,65.33,-9.72,-22.66,1
4451,65.34,-4.08,-5.25,1
4452,65.36,3.99,-8.45,1
4453,65.37,5.83,-12.67,1
4454,65.38,-7.27,-6.91,1
4455,65.4,-18.23,-8.24,1
4456,65.41,-7.48,-10.96,1
4457,65.42500000000001,5.04,-5.93,1
4458,65.44,-1.23,-6.23,1
4459,65.45,-7.56,-12.46,1
4460,65.46,1.16,-18.44,1
4461,65.48,12.92,-21.01,1
4462,65.49,19.27,-7.17,1
4463,65.5,17.39,7.11,1
4464,65.52,6.82,-7.47,1
4465,65.53,-2.5,-24.65,1
4466,65.54,-10.66,-18.01,1
4467,65.56,-21.64,-11.22,1
4468,65.57,-18.8,-18.19,1
4469,65.58,2.19,-29.45,1
4470,65.6,15.04,-26.37,1
4471,65.61,6.34,3.98,1
4472,65.62,-6.29,26.55,1
4473,65.64,-3.67,15.14,1
4474,65.65,8.31,14.24,1
4475,65.66,10.59,29.74,1
4476,65.68,4.97,12.34,1
4477,65.69,2.61,-14.7,1
4478,65.7,-0.75,-10.12,1
4479,65.72,-8.18,1.18,1
4480,65.73,-12.82,3.52,1
4481,65.74,-10.44,2.4,1
4482,65.76,-3.44,-3.79,1
4483,65.77,0.11,0.72,1
4484,65.78,-5.45,16.66,1
4485,65.8,-11.14,21.45,1
4486,65.81,-6.42,19.82,1
4487,65.82,3.16,18.76,1
4488,65.84,11.33,8.68,1
4489,65.85,17.47,5.02,1
4490,65.86,14.36,15.62,1
4491,65.88,0.7,11.98,1
4492,65.89,-8.11,-0.4,1
4493,65.9,-3.51,7.25,1
4494,65.92,5.89,16.46,1
4495,65.93,11.03,8.32,1
4496,65.94,9.08,-1.0,1
4497,65.96,0.37,-6.76,1
4498,65.97,-9.83,-5.54,1
4499,65.98,-11.29,8.53,1
4500,66.0,-1.66,14.74,1
4501,66.01,6.18,11.05,1
4502,66.02,-0.35,18.4,1
4503,66.04,-10.5,25.75,1
4504,66.05,-9.1,20.24,1
4505,66.06,-2.91,13.23,1
4506,66.08,-1.1,13.6,1
4507,66.09,-1.84,21.48,1
4508,66.11,-1.58,20.67,1
4509,66.12,3.04,6.7,1
4510,66.13,5.33,7.86,1
4511,66.14,2.01,18.73,1
4512,66.16,4.64,5.4,0
4513,66.17,10.67,-10.13,0
4514,66.18,6.38,-0.5,0
4515,66.2,-6.27,7.51,0
4516,66.21,-14.67,3.23,0
4517,66.22,-13.85,-2.93,0
4518,66.24,-8.34,-27.5,0
4519,66.25,-3.74,-72.19,0
4520,66.26,-2.37,-102.51,0
4521,66.28,1.28,-98.18,0
4522,66.29,14.32,-73.55,0
4523,66.3,23.02,-58.54,0
4524,66.32,14.82,-73.24,0
4525,66.33,8.47,-102.22,0
4526,66.34,18.06,-118.06,0
4527,66.36,28.35,-117.33,0
4528,66.37,23.77,-100.1,0
4529,66.38,8.85,-71.62,0
4530,66.4,3.01,-51.45,0
4531,66.41,11.21,-31.71,0
4532,66.42,12.45,5.19,0
4533,66.44,-0.49,41.24,0
4534,66.45,-7.69,62.11,0
4535,66.46,-2.57,76.61,0
4536,66.48,-1.56,90.62,0
4537,66.49,-12.58,110.36,0
4538,66.5,-23.18,134.31,0
4539,66.52,-22.11,145.31,0
4540,66.53,-17.49,145.87,0
4541,66.54,-20.11,151.96,0
4542,66.56,-23.84,158.44,1
4543,66.57,-24.0,161.48,1
4544,66.58,-22.99,166.09,1
4545,66.6,-13.5,159.18,1
4546,66.61,1.78,138.02,1
4547,66.62,0.9,122.12,1
4548,66.64,-18.6,113.53,1
4549,66.65,-30.11,106.77,1
4550,66.66,-16.95,96.9,1
4551,66.68,4.89,71.2,1
4552,66.69,8.77,50.32,1
4553,66.7,-7.82,57.38,1
4554,66.72,-20.99,58.81,1
4555,66.73,-15.94,37.98,1
4556,66.75,-3.07,28.43,1
4557,66.76,4.09,34.03,1
4558,66.77,4.59,32.34,1
4559,66.79,2.54,20.8,1
4560,66.8,-3.02,3.85,1
4561,66.81,-9.28,-8.05,1
4562,66.82,-7.24,-8.05,1
4563,66.84,3.32,-12.51,1
4564,66.85,11.11,-23.25,1
4565,66.86,7.76,-25.38,1
4566,66.88,2.07,-28.26,1
4567,66.89,4.49,-32.97,1
4568,66.9,4.82,-27.9,1
4569,66.92,-1.93,-29.97,1
4570,66.93,1.16,-41.39,1
4571,66.94,13.81,-40.38,1
4572,66.96,13.73,-40.25,1
4573,66.97,1.66,-52.3,1
4574,66.98,-4.94,-56.23,1
4575,67.0,-5.62,-55.45,1
4576,67.01,-3.39,-58.24,1
4577,67.02,3.74,-53.64,1
4578,67.04,6.62,-51.08,1
4579,67.05,0.37,-56.96,1
4580,67.06,-2.32,-56.79,1
4581,67.08,2.46,-55.98,1
4582,67.09,7.77,-58.82,1
4583,67.1,16.41,-51.56,1
4584,67.12,24.9,-43.35,1
4585,67.13,16.91,-44.61,1
4586,67.14,-1.49,-42.97,1
4587,67.16,-7.08,-44.8,1
4588,67.17,-0.14,-56.89,1
4589,67.18,5.47,-59.29,1
4590,67.2,7.77,-55.96,1
4591,67.21,6.29,-61.67,1
4592,67.22,1.85,-58.46,1
4593,67.24,4.79,-40.95,1
4594,67.25,9.64,-31.77,1
4595,67.26,-1.53,-37.46,1
4596,67.28,-10.44,-48.0,1
4597,67.29,6.41,-49.34,1
4598,67.3,19.85,-38.56,1
4599,67.32,11.6,-35.49,1
4600,67.33,9.61,-40.2,1
4601,67.34,15.48,-33.66,1
4602,67.36,10.39,-27.36,1
4603,67.37,3.88,-31.39,1
4604,67.38,3.18,-32.62,1
4605,67.4,-2.41,-32.13,1
4606,67.41,-6.5,-31.07,1
4607,67.43,0.16,-22.38,1
4608,67.44,4.31,-21.04,1
4609,67.45,1.79,-31.5,1
4610,67.46,2.72,-26.71,1
4611,67.48,2.3,-10.17,1
4612,67.49,-1.6,-8.95,1
4613,67.5,1.2,-13.0,1
4614,67.52,5.99,-8.3,1
4615,67.53,3.33,-5.12,1
4616,67.54,0.82,-6.06,1
4617,67.56,5.5,-10.83,1
4618,67.57,9.16,-11.76,1
4619,67.58,3.65,2.49,1
4620,67.6,-2.94,9.91,1
4621,67.61,-1.88,-0.01,1
4622,67.62,1.7,0.29,1
4623,67.64,3.86,4.86,1
4624,67.65,6.83,-6.19,1
4625,67.66,7.75,-9.95,1
4626,67.68,2.82,2.29,1
4627,67.69,-4.46,8.16,1
4628,67.7,-9.14,8.14,1
4629,67.72,-9.48,9.85,1
4630,67.73,-3.28,9.54,1
4631,67.74,6.29,9.2,1
4632,67.76,6.87,5.91,1
4633,67.77,-1.26,3.23,1
4634,67.78,-3.58,12.37,1
4635,67.8,-0.02,17.91,1
4636,67.81,0.38,10.35,1
4637,67.82,-1.99,10.08,1
4638,67.84,-1.96,14.23,1
4639,67.85,1.19,8.71,1
4640,67.86,-2.08,8.58,1
4641,67.88,-11.48,16.46,1
4642,67.89,-7.77,16.69,1
4643,67.9,9.9,16.35,1
4644,67.92,14.46,19.75,1
4645,67.93,-5.97,19.75,1
4646,67.94,-24.19,23.79,1
4647,67.96,-16.59,28.16,1
4648,67.97,-2.17,23.06,1
4649,67.98,-4.84,22.52,1
4650,68.0,-13.64,25.86,1
4651,68.01,-6.93,17.93,1
4652,68.02,11.05,15.24,1
4653,68.04,15.06,26.64,1
4654,68.05,-1.17,30.74,1
4655,68.06,-15.68,29.88,1
4656,68.08,-11.23,31.89,1
4657,68.09,2.3,24.95,1
4658,68.11,1.04,17.36,1
4659,68.12,-13.16,22.35,1
4660,68.13,-13.34,39.12,1
4661,68.14,-0.39,82.08,1
4662,68.16,-2.53,154.12,2
4663,68.17,-18.57,234.55,2
4664,68.18,-19.61,315.04,2
4665,68.2,-2.43,368.61,2
4666,68.21,3.6,343.12,2
4667,68.22,-19.59,238.74,2
4668,68.24,-50.22,114.02,2
4669,68.25,-58.33,27.68,2
4670,68.26,-49.46,-6.13,2
4671,68.28,-40.15,-33.8,2
4672,68.29,-19.47,-92.27,2
4673,68.3,12.72,-151.67,2
4674,68.32,30.45,-184.98,2
4675,68.33,33.46,-207.95,2
4676,68.34,38.85,-221.63,2
4677,68.36,42.86,-212.69,2
4678,68.37,40.04,-195.41,2
4679,68.38,32.61,-180.53,2
4680,68.4,21.1,-165.07,2
4681,68.41,13.22,-152.9,2
4682,68.42,12.19,-136.42,2
4683,68.44,8.6,-112.43,2
4684,68.45,3.79,-97.48,2
4685,68.46,5.44,-93.66,2
4686,68.48,9.03,-91.92,2
4687,68.49,9.43,-85.2,2
4688,68.5,5.52,-67.62,2
4689,68.52,-0.31,-53.6,2
4690,68.53,0.48,-50.69,2
4691,68.54,5.14,-42.47,2
4692,68.56,5.97,-31.99,1
4693,68.57,8.83,-30.87,1
4694,68.58,11.14,-28.48,1
4695,68.6,4.02,-24.52,1
4696,68.61,-3.61,-23.2,1
4697,68.62,-5.37,-12.7,1
4698,68.64,-6.7,-3.55,1
4699,68.65,-5.06,-9.93,1
4700,68.66,2.97,-8.41,1
4701,68.68,9.16,3.01,1
4702,68.69,9.1,4.68,1
4703,68.7,6.04,12.94,1
4704,68.72,-2.85,27.8,1
4705,68.73,-14.27,21.53,1
4706,68.75,-13.07,14.2,1
4707,68.76,-2.1,22.94,1
4708,68.77,0.28,23.46,1
4709,68.79,-3.47,26.56,1
4710,68.8,-1.16,46.39,1
4711,68.81,0.21,49.03,1
4712,68.82,-3.85,32.78,1
4713,68.84,-0.36,34.42,1
4714,68.85,8.74,51.38,1
4715,68.86,6.29,59.79,1
4716,68.88,-0.16,55.15,1
4717,68.89,4.03,47.06,1
4718,68.9,3.53,46.45,1
4719,68.92,-8.03,49.21,1
4720,68.93,-5.1,45.49,1
4721,68.94,10.97,47.12,1
4722,68.96,7.46,52.24,1
4723,68.97,-13.2,39.77,1
4724,68.98,-20.29,27.01,1
4725,69.0,-11.26,37.54,1
4726,69.01,-2.05,50.71,1
4727,69.02,-0.87,49.77,1
4728,69.04,-9.13,45.92,1
4729,69.05,-14.68,39.58,1
4730,69.06,-7.6,28.89,1
4731,69.08,-0.44,21.2,1
4732,69.09,-1.0,17.84,1
4733,69.1,-0.07,24.48,1
4734,69.12,0.89,37.75,1
4735,69.13,-6.14,34.56,1
4736,69.14,-13.71,24.58,1
4737,69.16,-10.61,31.43,1
4738,69.17,-0.58,34.42,1
4739,69.18,4.64,20.95,1
4740,69.2,1.28,15.54,1
4741,69.21,-1.16,21.83,1
4742,69.22,2.53,26.87,1
4743,69.24,6.49,25.13,1
4744,69.25,10.4,12.88,1
4745,69.26,11.15,8.23,1
4746,69.28,0.97,24.14,1
4747,69.29,-7.51,33.09,1
4748,69.3,-0.85,20.73,1
4749,69.32,4.64,6.09,1
4750,69.33,-2.55,4.11,1
4751,69.34,-4.07,12.69,1
4752,69.36,6.14,11.41,1
4753,69.37,8.22,-7.03,1
4754,69.38,-1.52,-10.83,1
4755,69.4,-3.22,6.1,1
4756,69.41,6.83,9.96,1
4757,69.43,4.93,7.26,1
4758,69.44,-12.41,15.09,1
4759,69.45,-16.96,9.87,1
4760,69.46,-7.24,-5.14,1
4761,69.48,-4.8,-4.93,1
4762,69.49,-3.46,-3.66,1
4763,69.5,4.37,-11.82,1
4764,69.52,4.67,-16.44,1
4765,69.53,-2.67,-18.07,1
4766,69.54,-2.77,-15.24,1
4767,69.56,0.91,-6.69,1
4768,69.57,-4.5,-9.4,1
4769,69.58,-14.1,-18.66,1
4770,69.6,-13.07,-13.79,1
4771,69.61,0.76,-6.2,1
4772,69.62,11.76,-10.15,1
4773,69.64,9.31,-14.86,1
4774,69.65,5.88,-12.16,1
4775,69.66,7.68,-6.04,1
4776,69.68,0.25,-11.04,1
4777,69.69,-8.61,-28.84,1
4778,69.7,0.2,-25.61,1
4779,69.72,7.6,-3.92,1
4780,69.73,-3.38,-11.34,1
4781,69.74,-8.94,-32.69,1
4782,69.76,1.07,-25.59,1
4783,69.77,4.02,-12.78,1
4784,69.78,-4.31,-11.34,1
4785,69.8,-4.66,-3.05,1
4786,69.81,6.25,-4.04,1
4787,69.82,10.45,-22.52,1
4788,69.84,-0.35,-23.4,1
4789,69.85,-10.84,-9.74,1
4790,69.86,-6.75,-10.7,1
4791,69.88,0.14,-16.9,1
4792,69.89,-3.96,-12.69,1
4793,69.9,-8.84,-2.3,1
4794,69.92,-5.55,-1.54,1
4795,69.93,-2.08,-18.8,1
4796,69.94,-4.33,-25.94,1
4797,69.96,-5.72,-9.85,1
4798,69.97,3.5,-5.19,1
4799,69.98,17.44,-13.68,1
4800,70.0,19.79,-6.69,1
4801,70.01,13.28,-2.53,1
4802,70.02,9.83,-20.68,1
4803,70.04,3.62,-30.83,1
4804,70.05,-8.28,-17.99,1
4805,70.06,-11.4,-6.07,1
4806,70.08,-3.62,-5.86,1
4807,70.09,-0.41,-12.67,1
4808,70.11,-2.99,-19.78,1
4809,70.12,-0.3,-20.45,1
4810,70.13,2.84,-25.38,1
4811,70.14,-0.12,-34.8,1
4812,70.16,3.95,-41.96,2
4813,70.17,15.2,-57.46,2
4814,70.18,14.83,-47.75,2
4815,70.2,4.98,-7.83,2
4816,70.21,-0.77,-32.89,2
4817,70.22,-3.03,-110.13,2
4818,70.24,-1.47,-78.31,2
4819,70.25,8.59,74.55,2
4820,70.26,10.56,160.44,2
4821,70.28,-8.35,153.85,2
4822,70.29,-5.42,222.56,2
4823,70.3,37.81,334.1,2
4824,70.32,47.14,328.09,2
4825,70.33,-3.27,220.2,2
4826,70.34,-52.19,98.74,2
4827,70.36,-59.08,20.88,2
4828,70.37,-14.19,38.35,2
4829,70.38,34.7,97.91,2
4830,70.4,17.93,89.68,2
4831,70.41,-24.74,49.05,2
4832,70.42,-12.2,38.46,2
4833,70.44,40.41,-19.13,2
4834,70.45,56.3,-145.07,2
4835,70.46,19.29,-200.59,2
4836,70.48,-9.64,-147.11,2
4837,70.49,-6.27,-142.37,2
4838,70.5,2.23,-206.01,2
4839,70.52,18.91,-166.23,2
4840,70.53,48.69,-65.59,2
4841,70.54,53.95,-84.42,2
4842,70.56,18.48,-147.41,1
4843,70.57,-13.74,-114.98,1
4844,70.58,-15.89,-64.1,1
4845,70.6,-8.54,-81.36,1
4846,70.61,9.47,-129.91,1
4847,70.62,21.54,-162.71,1
4848,70.64,-15.74,-156.13,1
4849,70.65,-55.84,-140.27,1
4850,70.66,-43.62,-134.27,1
4851,70.68,-29.38,-80.71,1
