,Timestamp,Data1,Data2,Label
0,6.0,2.52,13.69,1
1,6.01,6.06,14.61,1
2,6.03,-9.8,11.33,1
3,6.04,-25.6,4.88,1
4,6.05,-12.15,-4.45,1
5,6.07,13.67,-7.92,1
6,6.08,15.47,-10.02,1
7,6.09,3.95,-12.35,1
8,6.11,6.9,-1.21,1
9,6.12,15.18,16.55,1
10,6.13,13.27,17.75,1
11,6.15,6.12,0.69,2
12,6.16,-0.16,-23.54,2
13,6.17,-2.07,-33.39,2
14,6.19,3.46,-9.75,2
15,6.2,13.35,20.58,2
16,6.21,16.51,33.89,2
17,6.23,-5.4,58.29,2
18,6.24,-47.38,78.46,2
19,6.25,-72.11,74.95,2
20,6.265,-67.33,70.91,2
21,6.28,-38.59,-29.57,2
22,6.29,19.0,-173.1,2
23,6.31,70.67,-32.53,2
24,6.32,57.38,261.23,2
25,6.33,-14.67,225.03,2
26,6.35,-53.26,66.98,2
27,6.36,-20.64,261.48,2
28,6.37,-2.2,497.08,2
29,6.39,-12.7,382.22,2
30,6.4,2.08,201.33,2
31,6.41,6.22,201.21,2
32,6.43,-12.9,222.89,2
33,6.44,6.02,150.27,2
34,6.45,65.47,56.3,2
35,6.47,95.23,27.33,2
36,6.48,43.37,53.29,2
37,6.49,-32.99,35.78,2
38,6.51,-22.63,-54.45,2
39,6.52,41.33,-153.91,2
40,6.53,35.42,-298.49,2
41,6.55,-1.68,-461.96,2
42,6.56,14.11,-439.79,1
43,6.57,16.16,-311.1,1
44,6.59,-19.93,-334.36,1
45,6.6,-15.95,-372.05,1
46,6.61,19.62,-220.91,1
47,6.63,24.83,-110.36,1
48,6.64,9.51,-226.98,1
49,6.65,18.02,-285.1,1
50,6.67,27.59,-172.28,1
51,6.68,-14.61,-225.8,1
52,6.69,-42.91,-397.08,1
53,6.71,17.84,-289.59,1
54,6.72,55.75,-24.87,1
55,6.73,-10.18,25.6,1
56,6.75,-53.58,-71.43,1
57,6.76,-11.62,-71.68,1
58,6.77,21.02,-16.51,1
59,6.79,9.21,-55.0,1
60,6.8,-11.13,-134.38,1
61,6.81,-27.71,-157.96,1
62,6.82,-26.67,-169.57,1
63,6.84,-8.96,-129.38,1
64,6.85,-7.53,31.0,1
65,6.86,-13.35,116.84,1
66,6.88,3.96,35.03,1
67,6.89,14.67,-13.36,1
68,6.91,-14.07,1.73,1
69,6.92,-52.97,-30.81,1
70,6.93,-54.12,-46.08,1
71,6.95,-7.13,41.61,1
72,6.96,40.65,144.19,1
73,6.97,30.73,126.16,1
74,6.99,-19.84,40.71,1
75,7.0,-37.95,59.22,1
76,7.01,-6.38,151.71,1
77,7.03,24.46,146.56,1
78,7.04,34.99,70.29,1
79,7.05,42.39,71.02,1
80,7.07,27.24,126.75,1
81,7.08,-21.25,115.87,1
82,7.09,-51.64,9.81,1
83,7.11,-36.74,-81.18,1
84,7.12,-10.41,-13.29,1
85,7.13,-0.44,160.22,1
86,7.15,-8.55,250.36,1
87,7.16,-19.87,208.97,1
88,7.17,-19.43,123.34,1
89,7.19,-14.09,73.02,1
90,7.2,-13.46,59.53,1
91,7.21,-19.95,43.44,1
92,7.23,-8.36,52.7,1
93,7.24,42.7,120.37,1
94,7.25,58.65,170.38,1
95,7.27,-9.86,113.58,1
96,7.28,-57.4,-23.04,1
97,7.29,-10.91,-102.75,1
98,7.31,53.8,-26.48,1
99,7.32,53.81,90.46,1
100,7.33,0.09,60.37,1
101,7.35,-31.0,-46.12,1
102,7.36,-10.08,-20.1,1
103,7.37,7.57,97.71,1
104,7.39,-3.44,136.99,1
105,7.4,3.43,113.61,1
106,7.41,51.48,113.84,1
107,7.43,73.66,132.17,1
108,7.44,21.54,117.96,1
109,7.45,-26.74,73.61,1
110,7.47,-15.25,48.84,1
111,7.48,1.75,0.05,1
112,7.49,-14.88,-80.15,1
113,7.51,-48.86,-59.0,1
114,7.52,-57.33,36.82,1
115,7.53,-19.91,76.58,1
116,7.55,14.68,97.58,1
117,7.56,18.77,121.07,1
118,7.57,21.08,98.7,1
119,7.59,12.6,97.03,1
120,7.6,-17.02,132.11,1
121,7.61,-25.39,93.27,1
122,7.63,5.16,-12.14,1
123,7.64,45.77,-82.3,1
124,7.65,52.75,-54.66,1
125,7.67,7.04,35.03,1
126,7.68,-36.69,26.29,1
127,7.69,-28.92,-58.97,1
128,7.71,-6.49,-11.02,1
129,7.72,-2.73,105.22,1
130,7.73,4.13,82.44,1
131,7.75,15.8,-17.34,1
132,7.76,4.81,-44.73,1
133,7.77,-18.1,-4.95,1
134,7.79,-20.97,49.19,1
135,7.8,-12.4,70.26,1
136,7.81,-12.98,15.82,1
137,7.83,-18.23,-74.55,1
138,7.84,-13.36,-128.01,1
139,7.85,4.33,-128.55,1
140,7.87,8.18,-90.56,1
141,7.88,-12.35,-41.62,1
142,7.89,-16.16,-6.85,1
143,7.91,3.33,1.3,1
144,7.92,-7.1,-45.89,1
145,7.93,-36.48,-109.87,1
146,7.95,-20.08,-91.26,1
147,7.96,17.39,-28.5,1
148,7.97,19.36,-12.95,1
149,7.99,5.86,3.26,1
150,8.0,-0.39,35.07,1
151,8.01,-11.97,-33.1,1
152,8.03,-28.23,-171.71,1
153,8.04,-24.16,-171.43,1
154,8.05,8.63,-40.7,1
155,8.07,29.47,-16.79,1
156,8.08,14.62,-108.86,1
157,8.09,-6.91,-115.29,1
158,8.1,0.62,-23.45,1
159,8.12,47.53,32.08,1
160,8.13,79.86,29.02,1
161,8.15,50.84,7.49,0
162,8.16,13.76,-14.95,0
163,8.17,10.69,-3.52,0
164,8.19,14.97,30.26,0
165,8.2,13.25,5.07,0
166,8.21,10.06,-75.45,0
167,8.23,5.9,-108.75,0
168,8.24,4.14,-81.83,0
169,8.25,8.27,-94.22,0
170,8.27,16.39,-169.88,0
171,8.28,18.97,-216.36,0
172,8.29,16.48,-188.41,0
173,8.31,19.98,-139.24,0
174,8.32,24.77,-105.3,0
175,8.33,18.32,-69.32,0
176,8.35,3.27,-19.62,0
177,8.36,-10.86,29.89,0
178,8.37,-17.81,72.02,0
179,8.39,-13.02,113.5,0
180,8.4,-3.05,139.39,0
181,8.41,1.38,126.65,0
182,8.43,3.11,85.97,0
183,8.44,4.45,49.27,0
184,8.45,1.67,46.64,0
185,8.47,-2.78,75.29,0
186,8.48,-8.22,89.9,0
187,8.49,-14.18,73.8,0
188,8.51,-13.5,63.63,0
189,8.52,-8.5,71.7,0
190,8.53,-9.48,67.82,0
191,8.55,-11.92,48.99,1
192,8.56,-7.38,39.69,1
193,8.57,-5.25,34.32,1
194,8.59,-12.12,23.72,1
195,8.6,-16.88,23.27,1
196,8.61,-17.37,30.51,1
197,8.63,-19.47,31.37,1
198,8.64,-18.82,30.9,1
199,8.65,-11.47,29.39,1
200,8.67,-0.41,18.81,1
201,8.68,3.15,12.39,1
202,8.69,-10.22,24.74,1
203,8.71,-26.13,35.11,1
204,8.72,-27.35,21.01,1
205,8.73,-17.95,0.69,1
206,8.75,-5.9,-3.36,1
207,8.76,2.41,-2.98,1
208,8.77,-2.29,-8.04,1
209,8.78,-14.24,-6.45,1
210,8.8,-16.43,-2.39,1
211,8.81,-7.86,-6.66,1
212,8.82,0.51,-3.95,1
213,8.84,3.35,5.31,1
214,8.85,-0.65,-5.43,1
215,8.864999999999998,-10.53,-24.85,1
216,8.88,-19.93,-20.27,1
217,8.89,-19.73,-3.43,1
218,8.91,-7.57,-1.46,1
219,8.92,3.15,-7.61,1
220,8.93,2.75,-8.17,1
221,8.95,4.51,-16.22,1
222,8.96,14.15,-35.54,1
223,8.97,12.75,-39.88,1
224,8.99,-6.51,-19.14,1
225,9.0,-20.16,1.48,1
226,9.01,-7.83,-4.54,1
227,9.03,12.73,-29.14,1
228,9.04,14.54,-39.45,1
229,9.05,2.96,-28.93,1
230,9.07,-3.42,-23.6,1
231,9.08,1.08,-33.11,1
232,9.09,9.2,-32.91,1
233,9.11,11.76,-13.36,1
234,9.12,9.83,-1.24,1
235,9.13,3.49,-10.4,1
236,9.15,-8.0,-21.94,1
237,9.16,-10.74,-20.36,1
238,9.17,2.99,-15.07,1
239,9.19,14.29,-15.38,1
240,9.2,13.07,-16.23,1
241,9.21,11.77,-17.23,1
242,9.23,10.83,-18.47,1
243,9.24,3.02,-16.71,1
244,9.25,-5.11,-22.28,1
245,9.27,-7.92,-37.1,1
246,9.28,-6.85,-38.73,1
247,9.29,-0.59,-20.77,1
248,9.31,9.49,-10.39,1
249,9.32,13.39,-20.07,1
250,9.33,5.06,-25.28,1
251,9.35,-4.55,-13.84,1
252,9.36,-3.27,-2.59,1
253,9.37,0.92,-5.0,1
254,9.39,-1.18,-18.23,1
255,9.4,-1.97,-22.83,1
256,9.41,5.12,-9.1,1
257,9.43,13.01,3.53,1
258,9.44,9.14,4.49,1
259,9.45,-2.76,3.2,1
260,9.47,-5.31,1.78,1
261,9.48,-1.35,-1.84,1
262,9.49,-3.93,-2.12,1
263,9.51,-3.28,7.66,1
264,9.52,6.67,19.49,1
265,9.53,8.71,14.25,1
266,9.55,1.68,-2.3,1
267,9.56,4.26,-3.85,1
268,9.57,14.54,4.32,1
269,9.59,17.26,-0.75,1
270,9.6,9.27,-7.0,1
271,9.61,-2.93,3.27,1
272,9.63,-7.97,14.23,1
273,9.64,0.01,9.53,1
274,9.65,13.24,0.06,1
275,9.67,17.54,1.53,1
276,9.68,4.37,4.96,1
277,9.69,-10.88,-1.78,1
278,9.71,-3.79,-2.85,1
279,9.72,13.58,7.66,1
280,9.73,9.71,9.78,1
281,9.75,-9.72,5.48,1
282,9.76,-17.03,10.05,1
283,9.77,-12.71,20.07,1
284,9.79,-7.29,25.1,1
285,9.8,2.39,16.98,1
286,9.81,11.43,0.44,1
287,9.83,9.85,-4.32,1
288,9.84,-0.26,9.72,1
289,9.85,-7.62,24.14,1
290,9.87,-2.99,20.97,1
291,9.88,7.88,10.08,1
292,9.89,11.06,12.39,1
293,9.91,7.62,22.63,1
294,9.92,12.92,19.29,1
295,9.93,27.11,5.78,1
296,9.95,29.5,2.62,1
297,9.96,15.14,8.8,1
298,9.97,1.38,11.72,1
299,9.99,-5.08,12.22,1
300,10.0,-11.77,13.6,1
301,10.01,-17.68,10.56,1
302,10.02,-21.62,4.31,1
303,10.04,-30.66,8.31,1
304,10.05,-34.67,19.41,1
305,10.06,-16.75,18.95,1
306,10.08,6.17,7.46,1
307,10.09,10.58,2.44,1
308,10.1,6.89,9.6,1
309,10.12,9.39,15.01,1
310,10.13,11.9,11.29,1
311,10.15,5.99,12.48,0
312,10.16,-5.05,19.21,0
313,10.17,-7.22,11.68,0
314,10.19,1.72,-6.02,0
315,10.2,8.77,-7.48,0
316,10.21,14.76,-7.28,0
317,10.23,29.74,-52.91,0
318,10.24,41.3,-121.31,0
319,10.25,31.49,-136.0,0
320,10.27,9.37,-101.15,0
321,10.28,-2.72,-83.74,0
322,10.29,6.63,-96.97,0
323,10.31,25.69,-109.27,0
324,10.32,33.05,-110.7,0
325,10.33,29.19,-110.66,0
326,10.35,21.62,-102.82,0
327,10.36,4.11,-73.59,0
328,10.37,-14.52,-38.24,0
329,10.39,-13.4,-14.23,0
330,10.4,-5.25,15.72,0
331,10.41,-14.54,55.56,0
332,10.43,-23.79,72.36,0
333,10.44,-14.07,64.52,0
334,10.45,-8.18,70.26,0
335,10.47,-20.14,97.94,0
336,10.48,-31.58,123.78,0
337,10.49,-31.02,136.05,0
338,10.51,-25.73,138.85,0
339,10.52,-23.31,138.88,0
340,10.53,-26.55,138.66,0
341,10.55,-33.02,138.35,1
342,10.56,-33.05,141.46,1
343,10.57,-24.14,143.6,1
344,10.59,-15.58,135.68,1
345,10.6,-14.24,124.27,1
346,10.61,-22.68,115.92,1
347,10.63,-30.83,108.41,1
348,10.64,-20.03,104.45,1
349,10.65,-1.32,97.68,1
350,10.67,-4.85,80.16,1
351,10.68,-21.54,64.54,1
352,10.69,-21.87,59.1,1
353,10.71,-6.25,51.92,1
354,10.72,4.97,36.48,1
355,10.73,3.31,23.98,1
356,10.75,-4.84,23.59,1
357,10.76,-11.48,26.74,1
358,10.77,-15.0,17.15,1
359,10.78,-10.09,-4.18,1
360,10.8,2.61,-14.85,1
361,10.81,7.27,-10.32,1
362,10.83,1.09,-12.31,1
363,10.84,-2.66,-21.63,1
364,10.85,-5.92,-21.44,1
365,10.87,-14.59,-15.17,1
366,10.88,-13.66,-12.52,1
367,10.89,5.42,-18.6,1
368,10.91,17.47,-36.68,1
369,10.92,3.34,-49.92,1
370,10.93,-14.43,-46.99,1
371,10.95,-19.5,-51.46,1
372,10.96,-31.26,-72.23,1
373,10.97,-49.67,-85.95,1
374,10.99,-40.7,-83.01,1
375,11.0,-1.69,-71.52,1
376,11.01,27.6,-57.97,1
377,11.03,34.28,-49.17,1
378,11.04,42.89,-47.23,1
379,11.05,48.34,-48.93,1
380,11.07,29.67,-53.44,1
381,11.08,8.99,-53.96,1
382,11.09,14.96,-47.4,1
383,11.11,30.28,-45.88,1
384,11.12,27.23,-48.57,1
385,11.13,12.98,-43.57,1
386,11.15,10.93,-41.76,1
387,11.16,23.89,-51.7,1
388,11.17,32.47,-59.5,1
389,11.19,24.83,-61.39,1
390,11.2,14.75,-61.86,1
391,11.21,13.99,-58.44,1
392,11.23,11.1,-52.25,1
393,11.24,2.25,-46.18,1
394,11.25,4.26,-41.82,1
395,11.27,17.26,-40.04,1
396,11.28,19.8,-35.21,1
397,11.29,13.58,-29.33,1
398,11.31,21.42,-33.79,1
399,11.32,33.93,-42.19,1
400,11.33,23.84,-40.51,1
401,11.35,3.33,-34.36,1
402,11.36,3.88,-31.79,1
403,11.37,18.97,-28.14,1
404,11.39,17.12,-26.55,1
405,11.4,0.27,-32.79,1
406,11.41,-4.47,-37.33,1
407,11.43,0.57,-35.3,1
408,11.44,-5.67,-28.05,1
409,11.45,-14.71,-13.43,1
410,11.47,-1.98,-6.61,1
411,11.48,27.3,-14.74,1
412,11.49,38.26,-15.75,1
413,11.51,15.63,-5.28,1
414,11.52,-7.96,5.04,1
415,11.53,-6.25,11.51,1
416,11.55,2.11,6.13,1
417,11.56,1.71,-0.29,1
418,11.57,3.29,10.24,1
419,11.59,7.49,16.0,1
420,11.6,0.25,3.34,1
421,11.61,-16.49,-4.86,1
422,11.63,-28.04,-7.28,1
423,11.64,-30.37,-13.48,1
424,11.65,-23.44,-11.38,1
425,11.67,-9.01,-0.8,1
426,11.68,-0.28,7.2,1
427,11.69,-5.07,10.0,1
428,11.71,-6.07,4.89,1
429,11.72,5.62,-2.25,1
430,11.73,5.59,1.95,1
431,11.75,-11.87,11.76,1
432,11.76,-16.72,9.55,1
433,11.77,-4.02,-1.72,1
434,11.79,5.05,-3.32,1
435,11.8,5.08,7.6,1
436,11.81,2.08,17.13,1
437,11.83,-1.28,19.38,1
438,11.84,-5.25,22.97,1
439,11.85,-4.18,28.09,1
440,11.87,4.77,25.83,1
441,11.88,0.37,21.42,1
442,11.89,-22.43,21.01,1
443,11.91,-29.14,18.02,1
444,11.92,-9.97,15.2,1
445,11.93,4.26,19.22,1
446,11.94,2.22,18.99,1
447,11.96,4.53,11.2,1
448,11.97,18.95,11.13,1
449,11.98,20.01,17.84,1
450,12.0,-4.8,19.61,1
451,12.01,-24.5,17.93,1
452,12.02,-23.84,16.34,1
453,12.04,-22.96,15.07,1
454,12.05,-22.2,17.87,1
455,12.06,-7.05,23.1,1
456,12.08,9.9,22.8,1
457,12.09,5.78,22.09,1
458,12.105,-9.03,29.77,1
459,12.12,-7.94,41.66,1
460,12.13,-0.15,68.25,1
461,12.15,-11.25,136.49,2
462,12.16,-37.62,238.18,2
463,12.17,-55.55,324.3,2
464,12.19,-52.89,355.38,2
465,12.2,-46.98,330.91,2
466,12.21,-48.73,272.52,2
467,12.23,-28.84,195.11,2
468,12.24,13.62,109.25,2
469,12.25,27.09,32.15,2
470,12.27,11.67,-27.82,2
471,12.28,16.45,-78.42,2
472,12.29,32.05,-128.75,2
473,12.31,24.97,-183.89,2
474,12.32,13.87,-233.35,2
475,12.33,14.71,-249.99,2
476,12.35,8.62,-233.21,2
477,12.36,-1.54,-210.88,2
478,12.37,4.23,-192.65,2
479,12.39,19.38,-173.01,2
480,12.4,26.04,-157.05,2
481,12.41,24.6,-148.62,2
482,12.43,25.29,-140.19,2
483,12.44,22.72,-123.4,2
484,12.45,10.1,-102.47,2
485,12.47,4.88,-92.87,2
486,12.48,15.35,-99.63,2
487,12.49,19.52,-98.97,2
488,12.51,11.32,-69.17,2
489,12.52,9.04,-28.65,2
490,12.53,12.34,-15.86,2
491,12.55,8.71,-36.37,1
492,12.56,5.67,-52.28,1
493,12.57,9.65,-40.52,1
494,12.59,9.34,-25.65,1
495,12.6,2.18,-24.96,1
496,12.61,-2.83,-20.41,1
497,12.63,-4.99,-4.43,1
498,12.64,-5.24,6.5,1
499,12.65,0.76,6.93,1
500,12.67,8.87,11.62,1
501,12.68,7.26,22.52,1
502,12.69,-3.82,21.95,1
503,12.71,-10.99,13.07,1
504,12.72,-5.98,18.92,1
505,12.73,-1.27,33.24,1
506,12.75,-10.58,33.97,1
507,12.76,-20.68,26.15,1
508,12.77,-15.74,22.75,1
509,12.79,-5.87,18.78,1
510,12.8,-1.23,20.84,1
511,12.81,1.81,42.7,1
512,12.83,4.18,62.39,1
513,12.84,4.6,57.89,1
514,12.85,4.57,49.93,1
515,12.87,3.9,53.5,1
516,12.88,1.87,56.43,1
517,12.89,3.83,50.17,1
518,12.91,9.6,37.64,1
519,12.92,8.62,35.58,1
520,12.93,0.28,50.28,1
521,12.95,-7.9,53.79,1
522,12.96,-15.41,36.15,1
523,12.97,-21.32,30.49,1
524,12.99,-17.82,42.39,1
525,13.0,-2.94,47.35,1
526,13.01,8.03,51.76,1
527,13.03,3.37,59.54,1
528,13.04,-5.37,47.66,1
529,13.05,-6.9,26.92,1
530,13.07,-5.31,27.57,1
531,13.08,-5.1,41.06,1
532,13.09,-6.98,44.44,1
533,13.11,-12.3,37.32,1
534,13.12,-17.11,32.83,1
535,13.13,-16.09,38.86,1
536,13.15,-7.95,43.25,1
537,13.16,5.64,35.41,1
538,13.17,11.68,31.34,1
539,13.19,-1.05,34.43,1
540,13.2,-13.63,27.18,1
541,13.21,-3.12,13.95,1
542,13.23,14.7,7.54,1
543,13.24,10.66,9.96,1
544,13.25,-6.45,15.62,1
545,13.27,-8.69,15.19,1
546,13.28,-6.03,14.59,1
547,13.29,-15.85,22.05,1
548,13.31,-13.27,25.99,1
549,13.32,8.25,19.76,1
550,13.33,15.9,16.44,1
551,13.35,6.42,22.89,1
552,13.36,-2.53,24.03,1
553,13.37,-7.17,3.47,1
554,13.39,-5.28,-23.0,1
555,13.4,-0.19,-21.55,1
556,13.41,-0.26,-0.05,1
557,13.43,-3.45,0.42,1
558,13.44,-6.28,-15.28,1
559,13.45,-9.67,-10.13,1
560,13.47,-10.88,6.81,1
561,13.48,-6.41,4.2,1
562,13.49,1.56,-7.78,1
563,13.51,5.06,-9.17,1
564,13.52,1.08,-13.24,1
565,13.53,0.33,-27.88,1
566,13.55,6.43,-32.65,1
567,13.56,10.64,-19.06,1
568,13.57,10.82,-10.2,1
569,13.59,4.2,-21.84,1
570,13.6,-12.51,-24.47,1
571,13.61,-22.24,1.75,1
572,13.63,-9.92,13.2,1
573,13.64,6.1,-10.55,1
574,13.65,7.59,-21.51,1
575,13.67,5.81,-7.16,1
576,13.68,8.03,-8.18,1
577,13.69,7.8,-20.53,1
578,13.71,6.91,-14.49,1
579,13.72,9.28,-9.28,1
580,13.73,9.28,-20.61,1
581,13.75,4.42,-21.74,1
582,13.76,5.48,-7.87,1
583,13.77,13.66,-5.31,1
584,13.79,8.91,-17.23,1
585,13.8,-9.03,-21.09,1
586,13.81,-14.02,-7.99,1
587,13.83,1.32,4.72,1
588,13.84,15.68,-0.71,1
589,13.85,10.21,-12.95,1
590,13.86,-4.24,-15.97,1
591,13.88,-3.49,-18.31,1
592,13.89,8.74,-19.36,1
593,13.9,9.49,-12.82,1
594,13.92,-2.68,-11.89,1
595,13.93,-8.53,-17.93,1
596,13.94,-0.47,-22.12,1
597,13.96,5.6,-27.92,1
598,13.97,-0.91,-33.43,1
599,13.98,-5.99,-34.44,1
600,14.0,-0.94,-34.56,1
601,14.01,2.33,-29.25,1
602,14.02,-3.88,-13.49,1
603,14.04,-14.48,-2.52,1
604,14.05,-18.68,-10.23,1
605,14.07,-7.8,-22.57,1
606,14.08,9.26,-22.35,1
607,14.09,15.52,-12.14,1
608,14.11,11.51,-4.79,1
609,14.12,9.91,-8.96,1
610,14.13,14.15,-12.92,1
611,14.15,15.21,-3.49,2
612,14.16,10.12,5.85,2
613,14.17,8.79,7.24,2
614,14.19,13.8,9.35,2
615,14.2,15.75,1.55,2
616,14.21,10.09,-21.17,2
617,14.23,0.92,-39.65,2
618,14.24,-1.46,-40.41,2
619,14.25,11.57,4.63,2
620,14.27,29.75,69.9,2
621,14.28,35.16,44.61,2
622,14.29,24.28,-29.69,2
623,14.31,3.29,-29.79,2
624,14.32,-16.5,-13.98,2
625,14.33,-32.6,-17.37,2
626,14.35,-53.17,6.96,2
627,14.36,-60.46,26.74,2
628,14.37,-39.89,45.21,2
629,14.39,-24.69,86.53,2
630,14.4,-27.7,105.5,2
631,14.41,-20.13,90.48,2
632,14.43,-1.94,64.55,2
633,14.44,7.72,12.7,2
634,14.45,3.2,-37.39,2
635,14.47,-10.25,-19.97,2
636,14.48,-11.74,18.95,2
637,14.49,4.94,-13.61,2
638,14.51,15.53,-100.21,2
639,14.52,13.17,-127.22,2
640,14.53,16.42,-41.66,2
641,14.55,26.18,21.29,1
642,14.56,18.83,-34.16,1
643,14.57,-7.23,-87.42,1
644,14.59,-14.91,-72.45,1
645,14.6,5.86,-52.35,1
646,14.61,16.04,-35.43,1
647,14.63,5.29,-25.46,1
648,14.64,4.07,-65.01,1
649,14.65,9.45,-109.89,1
650,14.67,5.71,-80.42,1
651,14.68,19.17,-30.39,1
652,14.69,51.53,-41.2,1
653,14.71,64.09,-65.16,1
654,14.72,45.83,-30.58,1
655,14.73,12.12,38.42,1
656,14.75,-13.14,46.18,1
657,14.76,-21.95,-35.0,1
658,14.77,-28.04,-87.7,1
659,14.79,-24.9,-39.32,1
660,14.8,-1.9,20.72,1
661,14.81,12.73,30.12,1
662,14.83,-6.13,28.75,1
663,14.84,-18.09,25.52,1
664,14.85,9.81,8.85,1
665,14.87,28.88,-1.76,1
666,14.88,5.83,10.96,1
667,14.89,-20.26,53.86,1
668,14.91,-26.02,93.73,1
669,14.92,-27.93,80.52,1
670,14.93,-19.39,36.2,1
671,14.95,9.67,21.12,1
672,14.96,28.89,34.83,1
673,14.97,12.18,53.32,1
674,14.99,-19.47,93.27,1
675,15.0,-20.56,123.3,1
676,15.01,4.74,75.94,1
677,15.03,5.88,0.16,1
678,15.04,-9.72,-9.87,1
679,15.05,-3.31,36.65,1
680,15.07,1.08,76.61,1
681,15.08,-14.38,67.31,1
682,15.09,-17.3,14.43,1
683,15.11,-11.77,-9.39,1
684,15.12,-17.19,22.36,1
685,15.13,-9.55,33.83,1
686,15.15,10.73,-8.28,1
687,15.16,3.98,-48.28,1
688,15.17,-22.31,-31.1,1
689,15.19,-24.32,16.77,1
690,15.2,-4.73,18.17,1
691,15.21,2.55,-5.31,1
692,15.23,-3.58,21.43,1
693,15.24,4.98,58.82,1
694,15.25,23.86,42.12,1
695,15.27,10.44,9.26,1
696,15.28,-15.69,-10.36,1
697,15.29,2.08,-53.86,1
698,15.31,20.27,-88.56,1
699,15.32,-15.08,-35.29,1
700,15.33,-42.31,59.88,1
701,15.35,-14.42,81.03,1
702,15.36,11.96,18.92,1
703,15.37,-9.65,-27.2,1
704,15.39,-37.49,-10.35,1
705,15.4,-17.13,-4.44,1
706,15.41,16.52,-36.74,1
707,15.43,-0.18,-29.35,1
708,15.44,-31.74,19.83,1
709,15.45,-13.28,26.52,1
710,15.47,17.89,-9.62,1
711,15.48,0.95,-7.58,1
712,15.49,-25.91,30.66,1
713,15.51,-12.09,17.39,1
714,15.52,4.89,-40.59,1
715,15.53,-6.29,-48.57,1
716,15.55,-11.67,-6.09,1
717,15.56,1.57,14.68,1
718,15.57,14.21,-2.23,1
719,15.59,29.22,-21.53,1
720,15.6,43.47,-3.45,1
721,15.61,39.21,28.86,1
722,15.63,17.51,18.04,1
723,15.64,-6.96,7.51,1
724,15.65,-13.04,45.8,1
725,15.67,2.43,54.33,1
726,15.68,9.42,1.07,1
727,15.69,-8.51,-11.24,1
728,15.71,-27.0,44.77,1
729,15.72,-14.87,66.28,1
730,15.73,18.34,21.35,1
731,15.75,33.76,-17.27,1
732,15.76,24.83,-41.49,1
733,15.77,18.54,-94.7,1
734,15.78,19.16,-125.34,1
735,15.8,11.95,-73.0,1
736,15.81,6.5,-0.65,1
737,15.82,14.05,25.84,1
738,15.84,18.28,34.12,1
739,15.85,3.69,42.25,1
740,15.86,-18.77,22.24,1
741,15.88,-19.54,0.52,1
742,15.89,4.5,13.19,1
743,15.9,18.04,19.13,1
744,15.92,9.64,15.2,1
745,15.93,2.94,35.55,1
746,15.94,4.04,24.78,1
747,15.96,4.85,-40.58,1
748,15.97,8.07,-64.8,1
749,15.98,6.2,-16.41,1
750,16.0,-6.9,13.51,1
751,16.01,-7.15,-27.0,1
752,16.03,4.8,-60.5,1
753,16.04,-6.8,-5.18,1
754,16.05,-19.79,54.7,1
755,16.07,2.78,6.64,1
756,16.08,18.65,-70.32,1
757,16.09,7.47,-69.37,1
758,16.11,10.06,-29.35,1
759,16.12,14.77,-5.64,1
760,16.13,-8.41,-2.89,1
761,16.15,-28.45,-12.31,1
762,16.16,-18.21,-12.77,0
763,16.17,2.72,-8.16,0
764,16.19,10.66,-31.99,0
765,16.2,1.02,-81.76,0
766,16.21,-16.38,-107.23,0
767,16.23,-21.85,-81.7,0
768,16.24,-2.61,-39.18,0
769,16.25,19.55,-2.09,0
770,16.27,13.61,40.62,0
771,16.28,-0.73,57.82,0
772,16.29,11.62,15.09,0
773,16.31,32.58,-52.12,0
774,16.32,30.95,-92.7,0
775,16.33,12.95,-90.63,0
776,16.35,-2.08,-57.3,0
777,16.36,-7.43,-15.01,0
778,16.37,-9.35,26.73,0
779,16.39,-13.39,60.6,0
780,16.4,-20.28,69.59,0
781,16.41,-26.39,65.33,0
782,16.42,-23.27,76.77,0
783,16.44,-10.45,90.35,0
784,16.45,-2.32,80.94,0
785,16.46,-6.31,60.94,0
786,16.48,-10.92,51.69,0
787,16.49,-9.05,56.75,0
788,16.5,-6.76,60.44,0
789,16.52,-3.52,42.3,0
790,16.53,-0.69,12.8,0
791,16.54,-8.89,5.76,0
792,16.56,-18.62,21.1,1
793,16.57,-13.1,22.57,1
794,16.58,-3.99,4.76,1
795,16.6,-7.23,-3.01,1
796,16.61,-15.69,1.44,1
797,16.62,-18.25,0.49,1
798,16.64,-12.56,3.04,1
799,16.65,-5.25,23.02,1
800,16.67,-2.69,39.12,1
801,16.68,0.86,27.36,1
802,16.69,7.59,7.12,1
803,16.71,7.06,10.08,1
804,16.72,2.79,26.62,1
805,16.73,3.83,23.27,1
806,16.75,-1.79,5.39,1
807,16.76,-18.87,1.73,1
808,16.77,-27.85,4.85,1
809,16.79,-16.32,-0.06,1
810,16.8,7.82,-3.64,1
811,16.81,25.23,-6.44,1
812,16.83,21.32,-16.51,1
813,16.84,4.99,-21.61,1
814,16.85,-5.19,-14.22,1
815,16.87,-5.89,-7.13,1
816,16.88,-4.06,-4.08,1
817,16.89,-0.84,3.6,1
818,16.91,3.34,11.6,1
819,16.92,4.11,5.28,1
820,16.93,1.09,-12.89,1
821,16.95,-1.2,-22.8,1
822,16.96,3.23,-19.5,1
823,16.97,10.11,-13.86,1
824,16.99,5.64,-4.57,1
825,17.0,-2.45,2.62,1
826,17.01,-0.36,-10.02,1
827,17.03,-1.39,-23.86,1
828,17.04,-8.94,-12.89,1
829,17.05,-1.16,-2.7,1
830,17.06,21.07,-14.65,1
831,17.08,33.37,-23.2,1
832,17.09,25.76,-13.45,1
833,17.1,8.38,-4.63,1
834,17.12,-3.18,-9.92,1
835,17.13,-4.16,-19.0,1
836,17.14,1.06,-16.2,1
837,17.16,10.99,-2.06,1
838,17.17,18.9,5.78,1
839,17.18,14.86,-0.04,1
840,17.2,3.47,-7.58,1
841,17.21,-3.7,-11.59,1
842,17.22,-3.14,-13.73,1
843,17.24,0.97,-10.21,1
844,17.25,1.8,-2.62,1
845,17.26,1.28,-0.08,1
846,17.28,8.41,-6.33,1
847,17.29,15.14,-17.3,1
848,17.3,6.83,-20.59,1
849,17.32,-4.42,-9.74,1
850,17.33,-3.58,-2.49,1
851,17.35,-1.22,-7.96,1
852,17.36,-4.59,-8.65,1
853,17.37,-5.25,-0.56,1
854,17.39,-4.45,0.81,1
855,17.4,-3.97,-7.73,1
856,17.41,2.18,-11.7,1
857,17.43,6.61,-4.65,1
858,17.44,-0.29,0.3,1
859,17.45,-10.29,-5.53,1
860,17.47,-12.54,-10.43,1
861,17.48,-6.06,-7.28,1
862,17.49,-0.5,-6.69,1
863,17.51,-2.97,-9.99,1
864,17.52,-2.65,-12.06,1
865,17.53,6.98,-17.74,1
866,17.55,10.49,-21.22,1
867,17.56,2.5,-11.14,1
868,17.57,-3.41,0.85,1
869,17.59,-2.41,-0.96,1
870,17.6,0.84,-7.37,1
871,17.61,3.05,-2.63,1
872,17.63,0.79,8.19,1
873,17.64,-0.13,5.68,1
874,17.65,7.18,-11.8,1
875,17.67,9.58,-21.27,1
876,17.68,0.12,-19.86,1
877,17.69,-4.99,-21.71,1
878,17.7,-2.88,-18.32,1
879,17.72,-5.82,-9.57,1
880,17.73,-10.1,-7.17,1
881,17.75,-5.79,1.56,1
882,17.76,6.55,11.32,1
883,17.77,17.28,-3.3,1
884,17.78,11.34,-14.53,1
885,17.8,-5.72,8.38,1
886,17.81,-6.56,26.54,1
887,17.82,8.7,17.57,1
888,17.84,13.73,14.4,1
889,17.85,3.73,22.68,1
890,17.86,-8.37,17.73,1
891,17.88,-15.67,3.07,1
892,17.89,-13.01,3.46,1
893,17.9,0.22,15.89,1
894,17.92,13.1,10.72,1
895,17.93,14.97,-8.16,1
896,17.94,6.04,-4.43,1
897,17.96,-5.59,17.38,1
898,17.97,-10.55,24.9,1
899,17.99,-8.58,18.56,1
900,18.0,-7.04,6.26,1
901,18.01,-7.06,-15.0,1
902,18.03,-7.76,-19.47,1
903,18.04,-12.61,10.26,1
904,18.05,-15.07,29.48,1
905,18.07,-9.11,11.68,1
906,18.08,-7.64,-4.5,1
907,18.09,-15.26,0.99,1
908,18.11,-16.27,3.97,1
909,18.12,-4.82,-1.14,1
910,18.13,7.91,6.04,1
911,18.15,12.43,24.29,1
912,18.16,12.6,28.71,0
913,18.17,17.77,10.94,0
914,18.19,22.97,-18.86,0
915,18.2,17.1,-58.37,0
916,18.21,10.16,-102.57,0
917,18.23,20.07,-128.75,0
918,18.24,43.73,-128.49,0
919,18.25,56.25,-125.77,0
920,18.27,34.19,-134.51,0
921,18.28,-0.34,-136.66,0
922,18.29,-0.88,-122.55,0
923,18.31,24.54,-104.57,0
924,18.32,30.95,-84.06,0
925,18.33,11.61,-60.03,0
926,18.34,-2.66,-40.22,0
927,18.36,0.08,-12.81,0
928,18.37,-1.08,25.56,0
929,18.38,-15.83,49.47,0
930,18.4,-30.35,59.87,0
931,18.41,-33.72,80.34,0
932,18.42,-28.98,109.63,0
933,18.44,-27.96,129.46,0
934,18.45,-32.49,134.1,0
935,18.46,-29.7,138.49,0
936,18.48,-17.13,148.46,0
937,18.49,-9.51,145.52,0
938,18.5,-15.51,131.14,0
939,18.52,-25.8,131.26,0
940,18.53,-29.51,144.72,0
941,18.54,-29.87,147.77,0
942,18.56,-29.45,136.9,1
943,18.57,-22.27,123.24,1
944,18.58,-14.74,111.61,1
945,18.6,-14.57,104.83,1
946,18.61,-12.19,101.82,1
947,18.63,-5.96,94.63,1
948,18.64,-8.66,80.75,1
949,18.65,-20.33,68.12,1
950,18.67,-23.72,65.29,1
951,18.68,-10.28,66.6,1
952,18.69,4.23,51.48,1
953,18.71,3.16,21.9,1
954,18.72,-4.56,9.61,1
955,18.73,-4.42,15.71,1
956,18.75,1.45,8.18,1
957,18.76,3.44,-11.06,1
958,18.77,-1.63,-17.44,1
959,18.79,-6.54,-12.02,1
960,18.8,-2.2,-8.24,1
961,18.81,7.52,-14.06,1
962,18.83,10.73,-27.75,1
963,18.84,3.95,-33.07,1
964,18.85,-3.65,-24.8,1
965,18.87,-0.8,-21.35,1
966,18.88,8.03,-30.2,1
967,18.89,11.57,-40.85,1
968,18.91,12.79,-47.83,1
969,18.92,18.93,-51.27,1
970,18.93,25.84,-52.23,1
971,18.95,23.84,-51.35,1
972,18.96,14.18,-50.11,1
973,18.97,8.41,-52.28,1
974,18.98,7.11,-50.56,1
975,19.0,3.87,-40.71,1
976,19.01,1.45,-41.79,1
977,19.02,2.59,-57.0,1
978,19.04,5.76,-59.31,1
979,19.05,7.79,-47.13,1
980,19.06,7.65,-45.14,1
981,19.08,11.69,-50.84,1
982,19.09,16.78,-49.07,1
983,19.1,13.83,-49.17,1
984,19.12,8.98,-56.3,1
985,19.13,6.2,-56.6,1
986,19.14,0.4,-51.32,1
987,19.16,2.41,-54.08,1
988,19.17,18.44,-61.01,1
989,19.18,23.82,-58.47,1
990,19.2,8.59,-46.89,1
991,19.21,2.41,-39.39,1
992,19.22,13.16,-39.62,1
993,19.24,11.75,-39.72,1
994,19.25,-1.71,-39.92,1
995,19.265,1.19,-45.08,1
996,19.28,14.72,-47.83,1
997,19.29,9.0,-41.08,1
998,19.31,-11.23,-33.15,1
999,19.32,-15.12,-28.62,1
1000,19.33,-1.78,-22.96,1
1001,19.35,4.1,-21.56,1
1002,19.36,-0.27,-29.1,1
1003,19.37,-0.04,-34.34,1
1004,19.39,5.56,-29.26,1
1005,19.4,11.47,-21.14,1
1006,19.41,13.47,-20.03,1
1007,19.43,3.04,-22.36,1
1008,19.44,-12.08,-16.33,1
1009,19.45,-12.47,-7.85,1
1010,19.47,0.72,-12.59,1
1011,19.48,9.43,-22.36,1
1012,19.49,10.92,-19.48,1
1013,19.51,10.79,-7.4,1
1014,19.52,4.98,1.55,1
1015,19.53,-2.22,3.45,1
1016,19.55,-0.44,-0.33,1
1017,19.56,4.0,-4.88,1
1018,19.57,-0.14,-7.04,1
1019,19.59,-9.25,-6.97,1
1020,19.6,-7.56,-4.42,1
1021,19.61,8.0,-2.99,1
1022,19.62,15.5,-3.34,1
1023,19.64,2.5,2.61,1
1024,19.65,-11.08,11.74,1
1025,19.67,-8.85,12.67,1
1026,19.68,-1.42,9.86,1
1027,19.69,-1.06,10.09,1
1028,19.7,-2.11,8.64,1
1029,19.72,4.37,8.69,1
1030,19.73,7.83,14.49,1
1031,19.75,-6.14,17.21,1
1032,19.76,-21.67,16.19,1
1033,19.77,-17.75,17.24,1
1034,19.78,-7.7,17.78,1
1035,19.8,-7.45,16.84,1
1036,19.81,-10.81,14.53,1
1037,19.82,-11.8,13.7,1
1038,19.84,-8.96,20.49,1
1039,19.85,-0.85,25.39,1
1040,19.86,4.01,18.4,1
1041,19.88,-1.4,11.47,1
1042,19.89,-4.15,14.55,1
1043,19.9,8.07,21.25,1
1044,19.92,18.84,26.09,1
1045,19.93,11.8,28.33,1
1046,19.95,-0.04,27.2,1
1047,19.96,-3.14,27.65,1
1048,19.97,-3.95,27.6,1
1049,19.99,-6.92,16.85,1
1050,20.0,-8.66,6.58,1
1051,20.01,-7.3,10.25,1
1052,20.03,-6.28,15.22,1
1053,20.04,-13.65,18.48,1
1054,20.05,-23.44,30.54,1
1055,20.07,-18.78,42.0,1
1056,20.08,-6.15,38.28,1
1057,20.09,1.67,21.33,1
1058,20.11,14.63,5.57,1
1059,20.12,31.31,11.2,1
1060,20.13,26.22,46.76,1
1061,20.15,-5.58,109.09,1
1062,20.16,-34.27,198.69,2
1063,20.17,-40.81,297.54,2
1064,20.19,-42.19,354.3,2
1065,20.2,-45.34,337.71,2
1066,20.21,-32.96,270.13,2
1067,20.23,-5.53,184.34,2
1068,20.24,23.44,99.39,2
1069,20.25,38.42,29.24,2
1070,20.26,24.69,-24.18,2
1071,20.28,5.14,-63.92,2
1072,20.29,9.25,-92.58,2
1073,20.3,16.72,-120.45,2
1074,20.32,7.56,-153.19,2
1075,20.33,2.41,-186.54,2
1076,20.34,9.04,-212.1,2
1077,20.36,9.01,-216.1,2
1078,20.37,2.78,-200.53,2
1079,20.38,2.12,-183.13,2
1080,20.4,5.15,-161.56,2
1081,20.41,6.65,-137.34,2
1082,20.42,1.34,-134.29,2
1083,20.44,-8.62,-139.68,2
1084,20.45,-6.39,-122.01,2
1085,20.46,7.6,-99.79,2
1086,20.48,11.9,-99.95,2
1087,20.49,7.48,-104.75,2
1088,20.5,9.24,-97.53,2
1089,20.52,14.39,-86.14,2
1090,20.53,14.94,-74.42,2
1091,20.54,11.36,-62.62,2
1092,20.56,6.86,-50.66,1
1093,20.57,5.29,-43.92,1
1094,20.59,6.49,-47.78,1
1095,20.6,6.23,-42.59,1
1096,20.61,8.07,-21.71,1
1097,20.63,12.82,-14.74,1
1098,20.64,8.94,-23.7,1
1099,20.65,-1.19,-18.76,1
1100,20.67,-2.64,4.19,1
1101,20.68,2.26,26.95,1
1102,20.69,4.13,33.63,1
1103,20.71,3.28,23.02,1
1104,20.72,1.52,19.31,1
1105,20.73,-2.35,34.59,1
1106,20.75,-12.73,45.31,1
1107,20.76,-24.39,41.06,1
1108,20.77,-21.77,37.09,1
1109,20.79,-5.91,35.8,1
1110,20.8,0.97,35.36,1
1111,20.81,-7.59,39.66,1
1112,20.83,-12.52,38.78,1
1113,20.84,-5.06,35.46,1
1114,20.85,0.49,48.49,1
1115,20.87,-8.56,67.94,1
1116,20.88,-23.73,65.71,1
1117,20.89,-23.55,43.25,1
1118,20.9,-6.87,31.77,1
1119,20.92,4.38,42.59,1
1120,20.93,4.27,46.19,1
1121,20.94,4.23,31.1,1
1122,20.96,4.83,27.51,1
1123,20.97,1.6,44.64,1
1124,20.98,0.11,55.95,1
1125,21.0,5.74,48.22,1
1126,21.01,12.87,35.83,1
1127,21.02,11.38,30.66,1
1128,21.04,-0.55,32.88,1
1129,21.05,-10.14,38.85,1
1130,21.06,-6.24,41.26,1
1131,21.08,2.9,38.86,1
1132,21.09,3.82,39.35,1
1133,21.1,-5.24,46.19,1
1134,21.12,-15.0,58.99,1
1135,21.13,-14.41,68.35,1
1136,21.14,-4.13,58.49,1
1137,21.16,0.69,41.62,1
1138,21.17,-6.45,39.95,1
1139,21.18,-11.49,34.12,1
1140,21.2,-6.57,7.54,1
1141,21.21,-4.36,-4.6,1
1142,21.23,-7.39,14.63,1
1143,21.24,-0.94,28.05,1
1144,21.25,12.1,18.83,1
1145,21.27,15.37,12.17,1
1146,21.28,10.51,18.64,1
1147,21.29,5.16,21.81,1
1148,21.31,-0.29,13.78,1
1149,21.32,-6.28,5.53,1
1150,21.33,-10.15,4.34,1
1151,21.35,-3.97,2.53,1
1152,21.36,11.46,-0.11,1
1153,21.37,17.15,7.52,1
1154,21.39,-0.52,17.21,1
1155,21.4,-23.18,11.92,1
1156,21.41,-20.35,2.87,1
1157,21.43,2.67,3.96,1
1158,21.44,14.17,6.89,1
1159,21.45,6.61,2.03,1
1160,21.47,-1.36,-12.94,1
1161,21.48,-1.71,-25.83,1
1162,21.49,-2.2,-18.12,1
1163,21.51,-4.67,-2.31,1
1164,21.52,-4.77,-0.01,1
1165,21.53,-3.12,-1.59,1
1166,21.54,-1.26,4.6,1
1167,21.56,2.64,9.91,1
1168,21.57,9.95,9.5,1
1169,21.58,14.27,3.37,1
1170,21.6,10.43,-9.58,1
1171,21.61,9.09,-15.96,1
1172,21.62,11.87,-7.15,1
1173,21.64,4.92,-1.71,1
1174,21.65,-4.48,-11.95,1
1175,21.67,-3.83,-19.88,1
1176,21.68,-3.42,-14.06,1
1177,21.69,0.3,-12.58,1
1178,21.7,12.19,-20.69,1
1179,21.72,8.5,-21.89,1
1180,21.73,-10.52,-20.49,1
1181,21.75,-16.98,-22.09,1
1182,21.76,-10.21,-18.6,1
1183,21.77,-3.97,-21.69,1
1184,21.78,-1.22,-34.74,1
1185,21.8,-2.0,-36.48,1
1186,21.81,-0.69,-28.42,1
1187,21.82,7.68,-24.9,1
1188,21.84,15.21,-22.98,1
1189,21.85,13.39,-25.35,1
1190,21.865,6.95,-35.33,1
1191,21.88,3.23,-35.6,1
1192,21.89,-2.07,-18.27,1
1193,21.91,-11.77,-6.68,1
1194,21.92,-13.69,-10.81,1
1195,21.93,-2.42,-10.49,1
1196,21.95,5.94,-8.56,1
1197,21.96,3.59,-21.49,1
1198,21.97,1.75,-27.46,1
1199,21.99,0.96,-13.28,1
1200,22.0,-5.86,-4.56,1
1201,22.01,-7.91,-9.15,1
1202,22.03,2.09,-16.65,1
1203,22.04,4.34,-23.98,1
1204,22.05,-7.73,-19.54,1
1205,22.07,-8.8,-3.65,1
1206,22.08,3.93,-0.67,1
1207,22.09,7.83,-6.54,1
1208,22.11,5.84,2.38,1
1209,22.12,9.28,11.15,1
1210,22.13,7.88,0.54,1
1211,22.15,-1.93,-16.75,1
1212,22.16,-8.18,-34.86,2
1213,22.17,-1.79,-45.35,2
1214,22.18,9.15,-22.9,2
1215,22.2,-3.31,27.64,2
1216,22.21,-16.18,95.53,2
1217,22.22,44.85,186.41,2
1218,22.24,102.28,205.93,2
1219,22.25,9.2,39.0,2
1220,22.26,-112.51,-116.07,2
1221,22.28,-82.16,44.91,2
1222,22.29,-15.98,316.34,2
1223,22.3,-41.46,304.78,2
1224,22.32,-55.23,155.22,2
1225,22.33,-0.21,158.76,2
1226,22.34,45.72,207.22,2
1227,22.36,69.57,131.28,2
1228,22.37,89.91,1.37,2
1229,22.38,69.46,-36.3,2
1230,22.4,14.28,0.58,2
1231,22.41,-15.99,4.68,2
1232,22.42,-23.15,-32.29,2
1233,22.44,-50.3,-144.76,2
1234,22.45,-87.9,-314.0,2
1235,22.46,-103.57,-311.13,2
1236,22.48,-70.36,-113.79,2
1237,22.49,28.05,-56.01,2
1238,22.5,112.02,-243.83,2
1239,22.52,79.96,-361.68,2
1240,22.53,-4.69,-257.76,2
1241,22.55,-19.48,-194.57,1
1242,22.56,12.21,-250.24,1
1243,22.57,4.54,-150.47,1
1244,22.59,-34.31,42.21,1
1245,22.6,-31.57,20.94,1
1246,22.61,22.83,-104.58,1
1247,22.63,46.46,-113.86,1
1248,22.64,11.81,-108.21,1
1249,22.65,-10.92,-203.11,1
1250,22.67,-9.83,-224.87,1
1251,22.68,-20.46,-44.23,1
1252,22.69,-9.53,74.86,1
1253,22.71,43.7,-4.78,1
1254,22.72,72.64,-49.18,1
1255,22.73,45.05,-15.63,1
1256,22.75,21.61,-58.03,1
1257,22.76,38.54,-128.67,1
1258,22.77,59.19,-50.68,1
1259,22.79,42.8,120.23,1
1260,22.8,-5.04,118.65,1
1261,22.81,-37.94,-39.55,1
1262,22.82,-27.26,-94.36,1
1263,22.84,-7.49,-36.11,1
1264,22.85,-19.87,-6.67,1
1265,22.86,-35.4,2.9,1
1266,22.88,-24.3,53.96,1
1267,22.89,-19.5,115.58,1
1268,22.9,-12.81,114.23,1
1269,22.92,23.85,76.85,1
1270,22.93,33.79,68.1,1
1271,22.94,-0.21,71.13,1
1272,22.96,-0.09,73.44,1
1273,22.97,28.89,65.21,1
1274,22.98,17.97,22.12,1
1275,23.0,-12.31,-37.85,1
1276,23.01,-20.38,-69.19,1
1277,23.02,-19.05,-12.98,1
1278,23.04,-18.54,87.53,1
1279,23.05,-14.91,96.92,1
1280,23.06,-9.81,35.52,1
1281,23.08,-4.6,20.25,1
1282,23.09,-3.45,50.1,1
1283,23.1,-14.32,76.07,1
1284,23.12,-23.12,86.61,1
1285,23.13,-9.17,75.84,1
1286,23.14,11.58,52.26,1
1287,23.16,22.18,46.6,1
1288,23.17,23.57,62.74,1
1289,23.19,7.63,59.19,1
1290,23.2,-14.02,33.02,1
1291,23.21,-11.8,46.16,1
1292,23.23,5.37,96.78,1
1293,23.24,7.89,111.37,1
1294,23.25,0.21,97.09,1
1295,23.27,-4.88,113.24,1
1296,23.28,-14.24,114.11,1
1297,23.29,-20.48,36.97,1
1298,23.31,-17.15,-18.37,1
1299,23.32,-31.37,52.23,1
1300,23.33,-58.27,126.99,1
1301,23.35,-41.97,77.64,1
1302,23.36,4.84,18.7,1
1303,23.37,7.89,50.31,1
1304,23.39,-23.22,52.27,1
1305,23.4,-24.75,-16.36,1
1306,23.41,4.25,-14.6,1
1307,23.43,23.45,43.82,1
1308,23.44,14.64,28.21,1
1309,23.45,-0.36,-9.16,1
1310,23.46,12.54,30.23,1
1311,23.48,41.9,96.83,1
1312,23.49,40.34,103.12,1
1313,23.5,7.67,59.61,1
1314,23.52,-17.73,61.1,1
1315,23.53,-27.79,92.0,1
1316,23.54,-19.15,35.17,1
1317,23.56,4.48,-44.66,1
1318,23.57,-3.54,-31.22,1
1319,23.58,-36.7,-6.86,1
1320,23.6,-31.22,-28.67,1
1321,23.61,-8.67,-16.64,1
1322,23.62,-15.23,39.34,1
1323,23.64,-11.16,68.94,1
1324,23.65,19.77,55.57,1
1325,23.67,30.35,28.95,1
1326,23.68,15.9,11.35,1
1327,23.69,7.79,7.52,1
1328,23.7,6.39,-11.46,1
1329,23.72,-3.1,-60.09,1
1330,23.73,-20.14,-69.37,1
1331,23.75,-33.53,-13.12,1
1332,23.76,-24.67,-0.38,1
1333,23.77,10.12,-49.38,1
1334,23.78,38.08,-34.25,1
1335,23.8,39.39,31.09,1
1336,23.81,31.47,21.37,1
1337,23.83,24.73,-38.42,1
1338,23.84,16.79,-42.13,1
1339,23.85,13.87,5.91,1
1340,23.87,14.58,23.34,1
1341,23.88,1.27,-10.68,1
1342,23.89,-25.1,-52.88,1
1343,23.91,-35.8,-81.77,1
1344,23.92,-25.49,-83.75,1
1345,23.93,-17.76,-55.49,1
1346,23.95,-9.02,-29.75,1
1347,23.96,10.15,-26.49,1
1348,23.97,22.03,-59.89,1
1349,23.99,31.07,-92.06,1
1350,24.0,38.35,-34.96,1
1351,24.01,11.14,49.32,1
1352,24.03,-32.12,34.53,1
1353,24.04,-35.69,-26.87,1
1354,24.05,-8.87,-20.3,1
1355,24.07,-4.42,27.84,1
1356,24.08,-20.63,12.4,1
1357,24.09,-13.84,-28.87,1
1358,24.1,6.24,1.08,1
1359,24.12,6.0,18.3,1
1360,24.13,1.92,-44.32,1
1361,24.14,0.74,-82.29,1
1362,24.16,-16.22,-58.58,0
1363,24.17,-23.07,-52.33,0
1364,24.18,3.9,-77.4,0
1365,24.2,28.59,-62.76,0
1366,24.21,16.7,-9.14,0
1367,24.22,-10.95,-6.81,0
1368,24.24,-2.49,-55.54,0
1369,24.25,37.22,-75.11,0
1370,24.26,43.24,-68.02,0
1371,24.28,11.28,-84.71,0
1372,24.29,-3.99,-118.62,0
1373,24.3,6.01,-137.59,0
1374,24.32,14.46,-133.14,0
1375,24.33,18.18,-105.35,0
1376,24.34,25.22,-73.86,0
1377,24.36,26.69,-73.2,0
1378,24.37,14.72,-88.12,0
1379,24.38,-0.15,-82.86,0
1380,24.4,-7.44,-60.5,0
1381,24.41,-7.25,-23.94,0
1382,24.42,-2.3,29.39,0
1383,24.44,3.94,70.2,0
1384,24.45,7.23,78.31,0
1385,24.46,3.94,79.6,0
1386,24.48,-7.72,93.17,0
1387,24.49,-18.89,95.56,0
1388,24.51,-18.5,74.61,0
1389,24.52,-11.89,62.01,0
1390,24.53,-4.22,77.64,0
1391,24.55,5.59,89.4,1
1392,24.56,9.26,66.13,1
1393,24.57,7.95,31.9,1
1394,24.59,13.48,23.89,1
1395,24.6,17.38,34.73,1
1396,24.61,3.97,40.6,1
1397,24.63,-13.22,40.75,1
1398,24.64,-8.74,38.49,1
1399,24.65,9.06,33.1,1
1400,24.67,8.24,31.36,1
1401,24.68,-11.89,32.9,1
1402,24.69,-21.91,30.22,1
1403,24.71,-14.3,26.28,1
1404,24.72,-7.78,23.8,1
1405,24.73,-10.97,19.78,1
1406,24.75,-10.45,17.13,1
1407,24.76,1.29,18.1,1
1408,24.77,7.23,22.16,1
1409,24.78,-2.44,28.54,1
1410,24.8,-8.86,28.53,1
1411,24.81,-4.88,22.37,1
1412,24.82,-6.27,19.88,1
1413,24.84,-7.14,19.1,1
1414,24.85,3.29,20.43,1
1415,24.86,3.92,24.07,1
1416,24.88,-11.08,19.11,1
1417,24.89,-11.56,10.56,1
1418,24.9,6.19,13.7,1
1419,24.92,10.62,19.82,1
1420,24.93,-6.44,13.13,1
1421,24.94,-17.46,1.54,1
1422,24.96,-3.25,-1.29,1
1423,24.97,16.79,1.34,1
1424,24.98,12.9,6.78,1
1425,25.0,-8.95,13.38,1
1426,25.01,-21.15,7.46,1
1427,25.02,-18.94,-9.18,1
1428,25.04,-10.86,-15.59,1
1429,25.05,1.94,-9.11,1
1430,25.06,8.21,-3.81,1
1431,25.08,-4.95,-7.04,1
1432,25.09,-21.41,-16.03,1
1433,25.1,-18.52,-20.48,1
1434,25.12,-3.08,-16.93,1
1435,25.13,2.57,-11.34,1
1436,25.15,-6.15,-6.13,1
1437,25.16,-12.96,-5.58,1
1438,25.17,-7.88,-12.1,1
1439,25.19,1.36,-15.6,1
1440,25.2,3.01,-14.54,1
1441,25.21,-4.15,-16.78,1
1442,25.23,-4.55,-17.5,1
1443,25.24,9.29,-17.34,1
1444,25.25,16.07,-26.98,1
1445,25.27,7.89,-35.25,1
1446,25.28,6.94,-25.02,1
1447,25.29,13.48,-7.4,1
1448,25.31,7.52,-4.15,1
1449,25.32,-4.24,-15.05,1
1450,25.33,-1.26,-21.38,1
1451,25.35,7.91,-16.58,1
1452,25.36,1.6,-9.37,1
1453,25.37,-10.58,-4.35,1
1454,25.38,-6.78,-3.54,1
1455,25.4,6.02,-13.44,1
1456,25.41,10.28,-29.63,1
1457,25.42,5.27,-28.76,1
1458,25.44,-1.9,-9.99,1
1459,25.45,-5.23,-0.25,1
1460,25.46,-2.45,-3.84,1
1461,25.48,2.69,-8.53,1
1462,25.49,6.51,-10.06,1
1463,25.5,8.58,-2.44,1
1464,25.52,8.75,1.61,1
1465,25.53,7.5,-20.74,1
1466,25.54,4.84,-41.22,1
1467,25.56,1.5,-24.18,1
1468,25.57,3.45,3.0,1
1469,25.58,9.74,9.61,1
1470,25.6,5.32,-2.38,1
1471,25.61,-8.17,-21.62,1
1472,25.62,-9.28,-21.26,1
1473,25.64,-0.63,2.58,1
1474,25.65,2.19,10.83,1
1475,25.67,5.11,-2.24,1
1476,25.68,13.59,-6.85,1
1477,25.69,17.85,-7.0,1
1478,25.7,15.82,-10.94,1
1479,25.72,15.14,-6.21,1
1480,25.73,12.33,-3.47,1
1481,25.75,-0.2,-8.55,1
1482,25.76,-9.19,-4.79,1
1483,25.77,0.37,-2.85,1
1484,25.79,10.38,-12.29,1
1485,25.8,-0.31,-15.11,1
1486,25.81,-12.64,-12.55,1
1487,25.83,-7.29,-12.04,1
1488,25.84,-2.87,-1.53,1
1489,25.85,-11.02,11.91,1
1490,25.87,-13.96,11.57,1
1491,25.88,-5.13,8.06,1
1492,25.89,-0.94,8.04,1
1493,25.91,-6.19,1.83,1
1494,25.92,-6.45,-11.29,1
1495,25.93,-0.48,-20.9,1
1496,25.95,-0.06,-14.69,1
1497,25.96,-5.41,0.71,1
1498,25.97,-2.11,7.12,1
1499,25.99,13.18,6.09,1
1500,26.0,20.11,2.56,1
1501,26.01,9.94,-7.35,1
1502,26.02,3.66,-10.66,1
1503,26.04,4.51,3.61,1
1504,26.05,-6.18,16.74,1
1505,26.06,-17.31,24.64,1
1506,26.08,-5.41,41.23,1
1507,26.09,10.51,46.38,1
1508,26.1,4.23,24.51,1
1509,26.12,-4.55,-2.38,1
1510,26.13,3.98,-16.22,1
1511,26.14,14.62,-7.73,1
1512,26.16,18.65,9.97,0
1513,26.17,17.93,-5.46,0
1514,26.18,9.9,-60.22,0
1515,26.2,2.78,-115.47,0
1516,26.21,4.37,-139.89,0
1517,26.22,16.25,-128.24,0
1518,26.24,39.98,-109.11,0
1519,26.25,56.27,-113.61,0
1520,26.26,46.7,-120.86,0
1521,26.28,29.79,-102.97,0
1522,26.29,17.46,-83.15,0
1523,26.3,-3.04,-76.53,0
1524,26.32,-18.67,-58.54,0
1525,26.33,-12.4,-25.71,0
1526,26.34,-10.06,-1.59,0
1527,26.36,-26.46,12.82,0
1528,26.37,-35.43,34.96,0
1529,26.38,-25.88,68.07,0
1530,26.4,-13.64,98.46,0
1531,26.41,-9.69,115.79,0
1532,26.43,-18.91,124.13,0
1533,26.44,-34.37,129.91,0
1534,26.45,-39.55,138.72,0
1535,26.47,-31.25,152.98,0
1536,26.48,-18.78,159.01,0
1537,26.49,-13.03,148.02,0
1538,26.51,-15.56,138.29,0
1539,26.52,-20.48,140.59,0
1540,26.53,-27.97,141.27,0
1541,26.55,-37.18,135.41,1
1542,26.56,-40.57,126.42,1
1543,26.57,-28.98,115.8,1
1544,26.59,-1.87,113.54,1
1545,26.6,14.34,112.56,1
1546,26.61,1.43,92.73,1
1547,26.63,-14.89,69.37,1
1548,26.64,-12.25,61.21,1
1549,26.65,-4.17,52.81,1
1550,26.67,-1.67,41.27,1
1551,26.68,2.81,42.14,1
1552,26.69,8.66,44.88,1
1553,26.7,4.24,33.63,1
1554,26.72,-11.01,23.4,1
1555,26.73,-20.41,25.39,1
1556,26.75,-13.85,21.89,1
1557,26.76,-1.97,4.79,1
1558,26.77,3.67,-10.31,1
1559,26.78,4.51,-14.02,1
1560,26.8,7.32,-12.28,1
1561,26.81,14.65,-13.05,1
1562,26.82,19.82,-17.7,1
1563,26.84,12.21,-24.05,1
1564,26.85,-0.13,-31.97,1
1565,26.86,-6.33,-37.77,1
1566,26.88,-13.19,-40.4,1
1567,26.89,-11.68,-47.09,1
1568,26.9,4.83,-53.11,1
1569,26.92,12.39,-49.91,1
1570,26.93,7.2,-48.24,1
1571,26.94,6.9,-53.39,1
1572,26.96,10.82,-53.06,1
1573,26.97,9.73,-48.65,1
1574,26.98,5.02,-51.17,1
1575,27.0,5.17,-59.05,1
1576,27.01,9.12,-65.34,1
1577,27.02,7.62,-61.96,1
1578,27.04,3.41,-51.72,1
1579,27.05,5.53,-49.9,1
1580,27.065,9.64,-52.19,1
1581,27.08,7.86,-45.68,1
1582,27.09,10.62,-41.73,1
1583,27.11,23.66,-51.93,1
1584,27.12,24.0,-63.71,1
1585,27.13,5.35,-68.24,1
1586,27.15,0.89,-69.96,1
1587,27.16,18.59,-64.24,1
1588,27.17,23.1,-49.79,1
1589,27.19,7.17,-41.13,1
1590,27.2,-0.96,-42.43,1
1591,27.21,2.56,-46.26,1
1592,27.23,2.53,-44.89,1
1593,27.24,1.16,-33.81,1
1594,27.25,2.6,-28.5,1
1595,27.27,3.35,-39.48,1
1596,27.28,5.21,-45.08,1
1597,27.29,9.11,-35.41,1
1598,27.3,10.0,-31.6,1
1599,27.32,10.09,-38.12,1
1600,27.33,15.31,-39.34,1
1601,27.34,20.48,-34.79,1
1602,27.36,15.36,-29.11,1
1603,27.37,-1.48,-22.9,1
1604,27.38,-16.08,-19.46,1
1605,27.4,-9.42,-17.07,1
1606,27.41,11.68,-15.76,1
1607,27.42,18.13,-18.23,1
1608,27.44,4.52,-19.53,1
1609,27.45,-5.72,-15.71,1
1610,27.46,-1.22,-7.76,1
1611,27.48,4.26,0.13,1
1612,27.49,1.32,2.94,1
1613,27.5,-1.25,1.53,1
1614,27.52,2.04,-0.38,1
1615,27.53,0.82,-4.07,1
1616,27.54,-6.81,-7.07,1
1617,27.56,-4.78,-2.16,1
1618,27.57,4.95,4.25,1
1619,27.58,4.52,5.36,1
1620,27.6,-0.21,5.46,1
1621,27.61,4.2,3.85,1
1622,27.62,5.94,0.24,1
1623,27.64,-8.6,2.29,1
1624,27.65,-22.06,7.0,1
1625,27.67,-9.94,5.67,1
1626,27.68,11.29,8.34,1
1627,27.69,8.79,20.52,1
1628,27.7,-5.3,21.14,1
1629,27.72,-6.77,5.77,1
1630,27.73,-11.8,-0.86,1
1631,27.75,-29.63,9.22,1
1632,27.76,-30.55,20.91,1
1633,27.77,-4.44,21.32,1
1634,27.79,15.3,11.39,1
1635,27.8,9.85,7.26,1
1636,27.81,-0.51,16.9,1
1637,27.83,-1.24,24.01,1
1638,27.84,-3.25,17.61,1
1639,27.85,-8.67,9.38,1
1640,27.87,-6.22,11.88,1
1641,27.88,0.54,22.96,1
1642,27.89,3.28,28.84,1
1643,27.91,6.18,23.73,1
1644,27.92,9.42,20.36,1
1645,27.93,4.1,24.87,1
1646,27.94,-4.93,27.25,1
1647,27.96,-2.15,21.27,1
1648,27.97,4.96,7.22,1
1649,27.98,-0.23,-3.35,1
1650,28.0,-6.81,6.15,1
1651,28.01,-2.03,23.92,1
1652,28.02,1.68,26.35,1
1653,28.04,-4.61,19.35,1
1654,28.05,-12.01,19.75,1
1655,28.06,-11.38,25.44,1
1656,28.08,-2.15,28.13,1
1657,28.09,3.79,25.7,1
1658,28.1,0.05,19.88,1
1659,28.12,-2.64,16.18,1
1660,28.13,-0.96,15.94,1
1661,28.14,-1.03,13.18,1
1662,28.16,-3.02,14.95,2
1663,28.17,-1.63,48.63,2
1664,28.18,4.9,131.08,2
1665,28.2,5.91,237.14,2
1666,28.21,-4.18,311.7,2
1667,28.22,-15.27,325.89,2
1668,28.24,-19.37,293.64,2
1669,28.25,-13.84,232.96,2
1670,28.26,-5.57,165.92,2
1671,28.28,-13.99,113.14,2
1672,28.29,-34.48,57.42,2
1673,28.3,-38.36,-10.17,2
1674,28.32,-26.91,-65.01,2
1675,28.33,-24.75,-106.96,2
1676,28.34,-29.09,-154.19,2
1677,28.36,-17.31,-200.61,2
1678,28.37,8.92,-226.07,2
1679,28.39,23.39,-221.38,2
1680,28.4,15.91,-199.1,2
1681,28.41,9.01,-183.82,2
1682,28.43,21.05,-182.0,2
1683,28.44,33.63,-173.7,2
1684,28.45,25.6,-153.81,2
1685,28.47,12.0,-140.65,2
1686,28.48,10.6,-134.11,2
1687,28.49,11.23,-120.53,2
1688,28.51,7.19,-101.7,2
1689,28.52,10.17,-93.41,2
1690,28.53,21.79,-96.75,2
1691,28.55,25.65,-89.14,1
1692,28.56,13.27,-63.19,1
1693,28.57,1.04,-37.65,1
1694,28.58,9.46,-26.26,1
1695,28.6,26.6,-29.74,1
1696,28.61,24.83,-41.59,1
1697,28.62,10.23,-42.82,1
1698,28.64,6.15,-24.63,1
1699,28.65,9.12,-9.69,1
1700,28.67,7.76,-11.42,1
1701,28.68,3.44,-11.95,1
1702,28.69,-2.33,-8.16,1
1703,28.7,-7.72,-12.07,1
1704,28.72,-8.25,-13.49,1
1705,28.73,-6.37,-1.79,1
1706,28.75,-7.41,12.38,1
1707,28.76,-10.57,23.08,1
1708,28.77,-8.86,27.61,1
1709,28.78,1.44,17.29,1
1710,28.8,9.98,9.39,1
1711,28.81,4.62,20.52,1
1712,28.82,-6.49,28.43,1
1713,28.84,-6.56,24.55,1
1714,28.85,-0.25,26.16,1
1715,28.86,-4.81,29.91,1
1716,28.88,-18.01,27.54,1
1717,28.89,-20.99,26.9,1
1718,28.9,-5.21,38.14,1
1719,28.92,11.62,56.97,1
1720,28.93,7.41,59.85,1
1721,28.94,-5.84,43.75,1
1722,28.96,-9.36,39.41,1
1723,28.97,-12.59,49.54,1
1724,28.98,-13.83,52.49,1
1725,29.0,-0.14,51.95,1
1726,29.01,8.45,56.59,1
1727,29.03,-0.77,55.64,1
1728,29.04,-3.42,44.34,1
1729,29.05,3.57,41.34,1
1730,29.07,2.72,53.61,1
1731,29.08,-1.23,52.88,1
1732,29.09,0.03,29.95,1
1733,29.11,3.25,20.24,1
1734,29.12,1.84,43.32,1
1735,29.13,-7.09,68.62,1
1736,29.15,-10.55,65.46,1
1737,29.16,0.36,48.16,1
1738,29.17,6.66,37.67,1
1739,29.19,-0.69,35.76,1
1740,29.2,-3.06,38.91,1
1741,29.21,0.06,34.79,1
1742,29.22,-8.14,24.34,1
1743,29.24,-19.67,28.32,1
1744,29.25,-16.99,43.57,1
1745,29.26,-6.53,44.55,1
1746,29.28,-4.4,29.31,1
1747,29.29,-5.8,22.75,1
1748,29.3,2.66,26.4,1
1749,29.32,10.11,19.85,1
1750,29.33,2.94,8.06,1
1751,29.34,-5.71,4.15,1
1752,29.36,-7.23,3.7,1
1753,29.37,-10.45,5.47,1
1754,29.38,-9.42,12.93,1
1755,29.4,0.31,17.8,1
1756,29.41,2.24,9.98,1
1757,29.42,-6.65,-1.49,1
1758,29.44,-8.74,-0.22,1
1759,29.45,-2.17,11.5,1
1760,29.46,-0.14,16.22,1
1761,29.48,-5.23,5.79,1
1762,29.49,-11.34,-7.07,1
1763,29.5,-11.68,-12.97,1
1764,29.52,-5.31,-16.6,1
1765,29.53,-3.37,-15.55,1
1766,29.54,-8.27,-5.45,1
1767,29.56,-8.56,6.03,1
1768,29.57,-1.61,8.13,1
1769,29.58,5.81,0.64,1
1770,29.6,7.66,-4.61,1
1771,29.61,1.77,-1.79,1
1772,29.62,-4.59,-3.59,1
1773,29.64,-0.18,-17.26,1
1774,29.65,12.28,-23.8,1
1775,29.67,17.52,-11.31,1
1776,29.68,13.44,-1.31,1
1777,29.69,13.28,-6.3,1
1778,29.71,18.98,-8.1,1
1779,29.72,18.06,-1.01,1
1780,29.73,7.76,-1.14,1
1781,29.75,5.14,-7.45,1
1782,29.76,16.78,-7.4,1
1783,29.77,20.47,-5.34,1
1784,29.79,8.8,-6.83,1
1785,29.8,2.96,-12.11,1
1786,29.81,2.77,-22.95,1
1787,29.83,-6.61,-33.17,1
1788,29.84,-11.16,-32.74,1
1789,29.85,-3.11,-19.71,1
1790,29.86,-3.15,-5.6,1
1791,29.88,-10.74,-6.47,1
1792,29.89,-7.55,-22.72,1
1793,29.9,3.81,-37.61,1
1794,29.92,9.62,-32.48,1
1795,29.93,6.05,-13.58,1
1796,29.94,2.05,-10.67,1
1797,29.96,5.54,-24.67,1
1798,29.97,12.23,-30.65,1
1799,29.98,13.26,-29.04,1
1800,30.0,5.94,-26.92,1
1801,30.01,-4.47,-20.2,1
1802,30.02,-5.14,-18.94,1
1803,30.04,5.34,-26.58,1
1804,30.05,4.08,-26.23,1
1805,30.06,-12.68,-14.9,1
1806,30.08,-16.16,-8.52,1
1807,30.09,-0.43,-17.88,1
1808,30.1,10.97,-34.58,1
1809,30.12,7.28,-37.12,1
1810,30.13,-1.21,-28.63,1
1811,30.14,0.87,-40.02,1
1812,30.16,9.1,-68.54,2
1813,30.17,0.57,-69.23,2
1814,30.18,-18.46,-28.56,2
1815,30.2,-12.24,-30.99,2
1816,30.21,12.12,-137.04,2
1817,30.22,12.65,-149.63,2
1818,30.24,-10.23,80.04,2
1819,30.25,-20.21,309.54,2
1820,30.26,10.78,351.84,2
1821,30.28,62.49,266.47,2
1822,30.29,66.69,155.32,2
1823,30.3,11.4,150.24,2
1824,30.32,-47.47,198.62,2
1825,30.33,-75.51,161.07,2
1826,30.35,-63.82,104.18,2
1827,30.36,-33.93,103.78,2
1828,30.37,-28.52,120.44,2
1829,30.39,-14.67,49.62,2
1830,30.4,54.26,-102.7,2
1831,30.41,83.94,-152.05,2
1832,30.43,13.91,-79.28,2
1833,30.44,-20.75,0.21,2
1834,30.45,39.73,32.55,2
1835,30.47,63.12,-66.54,2
1836,30.48,-5.97,-225.81,2
1837,30.49,-59.24,-268.62,2
1838,30.5,-29.81,-250.37,2
1839,30.52,10.46,-239.46,2
1840,30.53,1.57,-170.9,2
1841,30.54,-7.24,-100.12,2
1842,30.56,18.14,-133.2,1
1843,30.57,38.12,-195.2,1
1844,30.58,23.85,-198.7,1
1845,30.6,-2.64,-206.0,1
1846,30.61,-9.44,-218.5,1
1847,30.62,-17.74,-180.54,1
1848,30.64,-48.72,-131.59,1
1849,30.65,-57.0,-90.32,1
1850,30.67,-13.16,-46.9,1
1851,30.68,46.34,-22.17,1
1852,30.69,63.93,-27.07,1
1853,30.7,27.96,-72.64,1
1854,30.72,-5.86,-102.16,1
1855,30.73,-5.35,-39.57,1
1856,30.75,-9.1,35.33,1
1857,30.76,-21.37,37.85,1
1858,30.77,-0.2,37.43,1
1859,30.78,20.26,78.34,1
1860,30.8,-5.22,85.64,1
1861,30.81,-24.38,45.54,1
1862,30.82,-4.63,50.77,1
1863,30.84,9.58,95.57,1
1864,30.85,4.44,108.29,1
1865,30.86,5.85,95.56,1
1866,30.88,2.52,72.05,1
1867,30.89,-28.71,54.99,1
1868,30.9,-58.0,57.38,1
1869,30.92,-43.57,69.81,1
1870,30.93,6.66,79.03,1
1871,30.94,37.33,39.82,1
1872,30.96,15.18,-19.94,1
1873,30.97,-17.91,-23.77,1
1874,30.99,-19.99,13.49,1
1875,31.0,3.48,72.25,1
1876,31.01,29.77,135.54,1
1877,31.03,26.81,140.97,1
1878,31.04,-7.27,80.24,1
1879,31.05,-32.67,30.89,1
1880,31.07,-29.54,25.5,1
1881,31.08,-14.89,-5.43,1
1882,31.09,-6.89,-63.16,1
1883,31.11,-9.34,-54.62,1
1884,31.12,-12.25,-0.88,1
1885,31.13,-2.22,1.97,1
1886,31.14,13.7,8.29,1
1887,31.16,16.64,88.83,1
1888,31.17,5.65,131.41,1
1889,31.18,3.57,79.77,1
1890,31.2,13.87,45.88,1
1891,31.21,7.77,69.02,1
1892,31.22,-1.6,73.76,1
1893,31.24,22.91,43.91,1
1894,31.25,43.95,34.94,1
1895,31.26,11.76,23.89,1
1896,31.28,-32.08,-36.82,1
1897,31.29,-35.78,-57.39,1
1898,31.3,-13.98,31.55,1
1899,31.32,8.23,107.59,1
1900,31.33,23.25,96.36,1
1901,31.34,21.61,87.86,1
1902,31.36,-2.93,82.04,1
1903,31.37,-28.83,28.15,1
1904,31.38,-23.32,-6.32,1
1905,31.4,-2.32,-18.31,1
1906,31.41,-14.93,-51.53,1
1907,31.42,-51.4,-21.14,1
1908,31.44,-46.42,63.73,1
1909,31.45,-3.13,50.94,1
1910,31.46,10.93,-31.76,1
1911,31.48,-5.65,-38.77,1
1912,31.49,-16.71,-0.19,1
1913,31.5,-21.22,-5.97,1
1914,31.52,-13.14,-6.98,1
1915,31.53,15.18,20.62,1
1916,31.54,36.92,9.84,1
1917,31.56,30.17,3.62,1
1918,31.57,14.21,48.68,1
1919,31.58,6.77,47.99,1
1920,31.6,0.24,8.42,1
1921,31.61,-4.34,29.59,1
1922,31.63,2.91,38.65,1
1923,31.64,19.12,-53.83,1
1924,31.65,19.12,-129.12,1
1925,31.67,-10.8,-54.47,1
1926,31.68,-25.18,65.1,1
1927,31.69,10.3,83.46,1
1928,31.71,47.07,61.8,1
1929,31.72,35.95,44.88,1
1930,31.73,1.08,-17.97,1
1931,31.75,-12.48,-64.74,1
1932,31.76,-10.44,-39.65,1
1933,31.77,-14.07,-10.67,1
1934,31.78,-5.88,-2.3,1
1935,31.8,17.01,22.37,1
1936,31.81,24.15,45.94,1
1937,31.82,11.9,29.73,1
1938,31.84,11.17,-1.28,1
1939,31.85,37.89,4.67,1
1940,31.86,49.13,29.39,1
1941,31.88,12.54,21.61,1
1942,31.89,-15.58,0.72,1
1943,31.9,1.99,2.97,1
1944,31.92,20.64,21.18,1
1945,31.93,17.06,41.58,1
1946,31.94,9.24,25.74,1
1947,31.96,1.84,-25.62,1
1948,31.97,4.28,-24.77,1
1949,31.98,21.32,4.63,1
1950,32.0,22.15,-29.54,1
1951,32.01,8.31,-49.14,1
1952,32.03,5.97,7.98,1
1953,32.04,-10.49,24.62,1
1954,32.05,-43.76,-26.24,1
1955,32.06,-38.86,-50.99,1
1956,32.08,1.96,-78.83,1
1957,32.09,13.66,-111.83,1
1958,32.11,-11.06,-52.19,1
1959,32.12,-15.94,15.15,1
1960,32.13,9.95,-9.73,1
1961,32.15,13.59,-19.51,1
1962,32.16,-25.8,15.6,0
1963,32.17,-52.83,6.79,0
1964,32.19,-28.74,-26.28,0
1965,32.2,11.16,-30.3,0
1966,32.21,29.01,-21.27,0
1967,32.22,22.75,-14.85,0
1968,32.24,2.53,-17.75,0
1969,32.25,-14.58,-50.73,0
1970,32.27,-12.21,-106.04,0
1971,32.28,3.02,-147.22,0
1972,32.29,7.66,-153.7,0
1973,32.31,1.14,-134.11,0
1974,32.32,6.75,-124.2,0
1975,32.33,23.96,-137.7,0
1976,32.35,25.23,-135.35,0
1977,32.36,8.16,-91.08,0
1978,32.37,-2.02,-25.55,0
1979,32.39,-3.51,28.27,0
1980,32.4,-12.11,51.2,0
1981,32.41,-20.92,53.56,0
1982,32.43,-17.23,52.32,0
1983,32.44,-9.91,46.58,0
1984,32.45,-12.83,38.88,0
1985,32.47,-20.45,34.73,0
1986,32.48,-19.37,33.86,0
1987,32.49,-14.75,35.47,0
1988,32.51,-13.62,32.09,0
1989,32.52,-7.91,23.04,0
1990,32.53,0.92,20.76,0
1991,32.54,4.36,21.57,0
1992,32.56,3.52,15.76,1
1993,32.57,-0.26,16.03,1
1994,32.59,-6.78,28.5,1
1995,32.6,-14.01,33.83,1
1996,32.61,-17.29,23.53,1
1997,32.63,-10.8,8.72,1
1998,32.64,-1.25,-1.98,1
1999,32.65,-0.49,1.07,1
2000,32.67,-5.22,15.71,1
2001,32.68,-4.04,23.61,1
2002,32.69,-2.02,27.06,1
2003,32.71,-8.47,33.61,1
2004,32.72,-9.36,30.03,1
2005,32.73,3.86,18.61,1
2006,32.75,10.04,18.04,1
2007,32.76,-2.89,29.72,1
2008,32.77,-15.01,40.04,1
2009,32.79,-9.08,39.03,1
2010,32.8,1.24,34.53,1
2011,32.81,-1.75,37.28,1
2012,32.83,-6.27,36.43,1
2013,32.84,2.45,23.2,1
2014,32.85,8.49,13.44,1
2015,32.87,-1.85,15.72,1
2016,32.88,-10.59,17.85,1
2017,32.89,-5.99,17.76,1
2018,32.9,-2.04,20.3,1
2019,32.92,-4.0,17.49,1
2020,32.93,-6.48,11.25,1
2021,32.95,-7.56,8.89,1
2022,32.96,-1.25,3.3,1
2023,32.97,5.36,1.37,1
2024,32.99,-3.07,13.63,1
2025,33.0,-10.62,20.38,1
2026,33.01,0.36,15.84,1
2027,33.03,10.56,18.08,1
2028,33.04,4.88,14.75,1
2029,33.05,0.86,-7.38,1
2030,33.06,10.02,-17.54,1
2031,33.08,16.38,-1.34,1
2032,33.09,8.74,10.53,1
2033,33.11,-2.43,0.97,1
2034,33.12,-4.75,-14.54,1
2035,33.13,-1.28,-12.35,1
2036,33.15,0.47,6.36,1
2037,33.16,4.53,8.42,1
2038,33.17,10.46,-14.55,1
2039,33.19,8.2,-28.14,1
2040,33.2,1.86,-16.18,1
2041,33.21,0.28,-5.17,1
2042,33.22,2.61,-13.25,1
2043,33.24,9.0,-20.31,1
2044,33.25,14.4,-10.46,1
2045,33.27,11.07,2.17,1
2046,33.28,5.14,-0.41,1
2047,33.29,0.76,-11.37,1
2048,33.31,-3.43,-10.15,1
2049,33.32,0.95,-5.39,1
2050,33.33,11.2,-16.77,1
2051,33.35,11.86,-29.17,1
2052,33.36,5.8,-29.25,1
2053,33.37,0.69,-27.64,1
2054,33.38,-6.89,-26.95,1
2055,33.4,-11.66,-27.32,1
2056,33.41,-5.2,-27.08,1
2057,33.43,5.95,-16.94,1
2058,33.44,9.77,-7.23,1
2059,33.45,3.24,-8.58,1
2060,33.47,-3.4,-10.21,1
2061,33.48,0.38,-9.54,1
2062,33.49,6.48,-7.75,1
2063,33.51,4.29,2.41,1
2064,33.52,-1.4,8.37,1
2065,33.53,-3.7,-5.81,1
2066,33.54,1.86,-22.33,1
2067,33.56,12.19,-19.29,1
2068,33.57,10.11,-3.19,1
2069,33.59,-2.35,8.49,1
2070,33.6,-1.72,5.11,1
2071,33.61,9.97,-7.41,1
2072,33.63,13.96,-11.66,1
2073,33.64,13.25,-5.98,1
2074,33.65,16.07,-4.29,1
2075,33.67,17.39,-7.37,1
2076,33.68,13.31,-6.84,1
2077,33.69,4.32,-4.07,1
2078,33.71,-9.52,-4.31,1
2079,33.72,-17.74,-13.67,1
2080,33.73,-11.32,-27.48,1
2081,33.75,-1.18,-25.56,1
2082,33.76,0.03,-10.62,1
2083,33.77,-4.96,-7.25,1
2084,33.79,-5.66,-15.32,1
2085,33.8,-0.01,-13.9,1
2086,33.81,2.55,0.45,1
2087,33.83,-1.31,9.28,1
2088,33.84,-1.89,2.45,1
2089,33.85,1.8,-0.66,1
2090,33.87,0.33,8.0,1
2091,33.88,-0.3,4.1,1
2092,33.89,6.05,-5.95,1
2093,33.9,6.67,2.67,1
2094,33.92,1.57,7.01,1
2095,33.93,4.22,-5.27,1
2096,33.95,8.15,-0.36,1
2097,33.96,2.95,16.76,1
2098,33.97,-1.41,9.01,1
2099,33.99,2.14,-13.58,1
2100,34.0,4.18,-18.03,1
2101,34.01,-0.97,0.93,1
2102,34.03,-8.41,19.75,1
2103,34.04,-13.01,13.95,1
2104,34.05,-14.75,0.47,1
2105,34.06,-15.61,6.37,1
2106,34.08,-9.1,14.4,1
2107,34.09,6.67,11.21,1
2108,34.11,11.66,9.7,1
2109,34.12,-0.56,-0.18,1
2110,34.13,-3.02,-15.93,1
2111,34.15,9.34,-5.1,1
2112,34.16,9.19,22.22,0
2113,34.17,-3.6,30.8,0
2114,34.19,-4.93,20.84,0
2115,34.2,8.85,-5.42,0
2116,34.21,19.88,-68.61,0
2117,34.23,15.72,-151.23,0
2118,34.24,12.17,-184.7,0
2119,34.25,23.7,-151.45,0
2120,34.27,25.47,-112.56,0
2121,34.28,10.6,-107.73,0
2122,34.29,18.39,-119.31,0
2123,34.31,42.78,-120.64,0
2124,34.32,35.92,-106.12,0
2125,34.33,8.45,-83.86,0
2126,34.35,-0.04,-54.36,0
2127,34.36,3.55,-18.31,0
2128,34.37,-0.48,15.4,0
2129,34.38,-10.01,46.25,0
2130,34.4,-19.35,77.72,0
2131,34.41,-25.19,102.8,0
2132,34.43,-23.99,114.41,0
2133,34.44,-18.29,121.13,0
2134,34.45,-22.16,135.68,0
2135,34.47,-45.26,151.51,0
2136,34.48,-63.88,155.24,0
2137,34.49,-48.06,153.41,0
2138,34.51,-20.71,159.3,0
2139,34.52,-19.13,165.92,0
2140,34.53,-26.48,159.32,0
2141,34.54,-20.83,146.81,0
2142,34.56,-13.85,140.09,1
2143,34.57,-7.56,135.33,1
2144,34.59,-1.92,131.98,1
2145,34.6,-8.17,123.86,1
2146,34.61,-16.3,101.7,1
2147,34.63,-9.44,85.26,1
2148,34.64,1.13,84.75,1
2149,34.65,-2.24,74.85,1
2150,34.67,-12.89,52.92,1
2151,34.68,-13.9,42.57,1
2152,34.69,-7.14,42.5,1
2153,34.71,-6.58,37.85,1
2154,34.72,-10.77,26.15,1
2155,34.73,-8.03,9.8,1
2156,34.75,0.57,-0.03,1
2157,34.76,6.1,4.51,1
2158,34.77,4.35,7.35,1
2159,34.79,1.78,-2.1,1
2160,34.8,7.15,-14.67,1
2161,34.81,7.66,-25.96,1
2162,34.83,-8.45,-34.54,1
2163,34.84,-15.18,-34.65,1
2164,34.85,-0.23,-28.44,1
2165,34.87,4.19,-29.47,1
2166,34.88,-8.35,-43.67,1
2167,34.89,-6.82,-55.96,1
2168,34.91,11.66,-56.64,1
2169,34.92,24.5,-59.35,1
2170,34.93,32.21,-66.73,1
2171,34.95,40.54,-61.96,1
2172,34.96,33.98,-47.81,1
2173,34.97,13.24,-40.33,1
2174,34.99,2.06,-38.39,1
2175,35.0,3.34,-41.56,1
2176,35.01,4.46,-50.07,1
2177,35.03,4.31,-46.6,1
2178,35.04,4.03,-34.31,1
2179,35.05,2.88,-38.67,1
2180,35.06,6.82,-51.23,1
2181,35.08,12.41,-47.93,1
2182,35.09,5.12,-37.6,1
2183,35.11,-9.33,-36.68,1
2184,35.12,-13.76,-41.46,1
2185,35.13,-12.18,-46.5,1
2186,35.15,-13.35,-50.99,1
2187,35.16,-11.93,-53.18,1
2188,35.17,-9.72,-56.33,1
2189,35.19,-10.0,-58.85,1
2190,35.2,3.22,-50.63,1
2191,35.21,26.52,-37.65,1
2192,35.22,19.88,-35.29,1
2193,35.24,-12.63,-40.89,1
2194,35.25,-15.05,-44.15,1
2195,35.27,9.78,-44.12,1
2196,35.28,10.83,-42.47,1
2197,35.29,-6.29,-39.17,1
2198,35.31,-6.19,-32.23,1
2199,35.32,4.42,-24.62,1
2200,35.33,5.64,-24.19,1
2201,35.35,4.55,-28.72,1
2202,35.36,9.06,-33.07,1
2203,35.37,8.53,-38.65,1
2204,35.38,-1.3,-39.68,1
2205,35.4,-4.12,-32.33,1
2206,35.41,8.23,-29.74,1
2207,35.43,12.46,-36.17,1
2208,35.44,-2.78,-36.43,1
2209,35.45,-8.29,-23.75,1
2210,35.47,6.29,-8.7,1
2211,35.48,11.32,-1.92,1
2212,35.49,2.36,-1.29,1
2213,35.51,5.01,1.5,1
2214,35.52,10.64,0.58,1
2215,35.53,-3.67,-10.99,1
2216,35.55,-14.29,-12.58,1
2217,35.56,2.29,5.31,1
2218,35.57,18.13,12.99,1
2219,35.59,12.58,2.3,1
2220,35.6,7.56,-4.88,1
2221,35.61,16.64,-8.72,1
2222,35.63,19.73,-9.89,1
2223,35.64,4.75,3.57,1
2224,35.65,-9.21,17.6,1
2225,35.67,-7.35,15.18,1
2226,35.68,2.77,5.72,1
2227,35.69,8.33,-0.77,1
2228,35.71,4.86,1.49,1
2229,35.72,2.3,15.83,1
2230,35.73,5.19,24.05,1
2231,35.75,2.98,13.21,1
2232,35.76,-4.04,0.84,1
2233,35.77,-1.4,-1.38,1
2234,35.79,9.7,3.9,1
2235,35.8,9.99,17.8,1
2236,35.81,-3.52,28.03,1
2237,35.83,-10.36,23.51,1
2238,35.84,-3.12,20.02,1
2239,35.85,0.58,25.16,1
2240,35.87,-7.46,26.83,1
2241,35.88,-12.27,21.98,1
2242,35.89,-3.19,13.56,1
2243,35.9,6.87,6.44,1
2244,35.92,2.14,6.21,1
2245,35.93,-6.48,8.64,1
2246,35.95,-3.8,13.41,1
2247,35.96,-2.69,23.36,1
2248,35.97,-8.52,29.65,1
2249,35.99,-3.28,30.75,1
2250,36.0,8.06,32.71,1
2251,36.01,4.97,32.46,1
2252,36.03,-4.59,28.37,1
2253,36.04,-4.2,24.8,1
2254,36.05,-5.49,21.54,1
2255,36.06,-17.18,20.82,1
2256,36.08,-14.85,24.3,1
2257,36.09,7.8,22.38,1
2258,36.11,14.06,15.67,1
2259,36.12,-1.14,17.98,1
2260,36.13,-2.69,29.72,1
2261,36.15,10.65,54.61,1
2262,36.16,19.44,115.42,2
2263,36.17,26.62,216.51,2
2264,36.19,28.34,324.5,2
2265,36.2,8.96,390.23,2
2266,36.21,-20.12,383.71,2
2267,36.23,-32.52,325.71,2
2268,36.24,-26.55,252.46,2
2269,36.25,-21.85,153.73,2
2270,36.27,-30.15,25.79,2
2271,36.28,-43.46,-79.49,2
2272,36.29,-45.35,-138.59,2
2273,36.31,-35.6,-182.11,2
2274,36.32,-26.59,-226.66,2
2275,36.33,-16.31,-264.17,2
2276,36.35,1.25,-283.84,2
2277,36.36,14.27,-277.02,2
2278,36.37,17.55,-245.69,2
2279,36.38,21.95,-205.44,2
2280,36.4,21.92,-178.05,2
2281,36.41,8.8,-173.29,2
2282,36.43,4.44,-173.38,2
2283,36.44,23.26,-159.12,2
2284,36.45,38.35,-133.4,2
2285,36.47,28.37,-106.99,2
2286,36.48,13.37,-90.45,2
2287,36.49,12.4,-84.66,2
2288,36.51,13.28,-71.84,2
2289,36.52,6.2,-43.2,2
2290,36.53,4.64,-17.27,2
2291,36.54,16.53,-17.88,2
2292,36.56,28.31,-38.91,1
2293,36.57,24.24,-50.07,1
2294,36.59,7.78,-43.08,1
2295,36.6,-3.81,-32.23,1
2296,36.61,-4.48,-26.22,1
2297,36.63,-2.74,-18.42,1
2298,36.64,-0.34,0.87,1
2299,36.65,3.09,16.63,1
2300,36.67,0.06,12.57,1
2301,36.68,-8.22,3.16,1
2302,36.69,-9.88,2.64,1
2303,36.71,-2.36,7.38,1
2304,36.72,4.6,10.39,1
2305,36.73,4.8,5.89,1
2306,36.75,2.78,7.61,1
2307,36.76,0.4,29.83,1
2308,36.77,-4.97,47.66,1
2309,36.79,-11.23,42.88,1
2310,36.8,-13.31,36.65,1
2311,36.81,-10.24,39.42,1
2312,36.83,-7.33,41.95,1
2313,36.84,-5.88,44.16,1
2314,36.85,-1.65,49.99,1
2315,36.87,-1.18,56.42,1
2316,36.88,-4.99,54.58,1
2317,36.89,1.88,43.74,1
2318,36.9,15.88,44.94,1
2319,36.92,15.36,59.98,1
2320,36.93,-3.11,57.03,1
2321,36.95,-22.0,44.13,1
2322,36.96,-26.9,53.48,1
2323,36.97,-19.23,61.21,1
2324,36.99,-7.89,46.47,1
2325,37.0,1.21,41.12,1
2326,37.01,4.32,49.31,1
2327,37.03,3.85,45.47,1
2328,37.04,1.04,41.77,1
2329,37.05,-4.89,50.32,1
2330,37.06,-4.7,53.06,1
2331,37.08,3.96,50.62,1
2332,37.09,7.94,53.88,1
2333,37.11,0.91,49.33,1
2334,37.12,-10.16,34.58,1
2335,37.13,-14.8,28.44,1
2336,37.15,-8.72,33.84,1
2337,37.16,2.63,39.46,1
2338,37.17,8.38,34.33,1
2339,37.19,2.44,17.59,1
2340,37.2,-5.04,8.48,1
2341,37.21,-0.51,17.39,1
2342,37.22,4.7,25.49,1
2343,37.24,-6.44,24.93,1
2344,37.25,-19.8,25.03,1
2345,37.27,-11.58,23.2,1
2346,37.28,7.78,20.64,1
2347,37.29,6.9,24.69,1
2348,37.31,-11.99,25.41,1
2349,37.32,-15.87,15.01,1
2350,37.33,-2.58,5.67,1
2351,37.35,0.75,8.3,1
2352,37.36,-4.59,13.47,1
2353,37.37,-1.79,12.79,1
2354,37.38,-1.47,13.64,1
2355,37.4,-13.17,16.98,1
2356,37.41,-20.07,6.8,1
2357,37.43,-10.89,-11.47,1
2358,37.44,2.41,-8.36,1
2359,37.45,5.42,7.7,1
2360,37.47,3.55,2.07,1
2361,37.48,8.07,-16.7,1
2362,37.49,8.25,-15.3,1
2363,37.51,-1.77,4.45,1
2364,37.52,-5.08,7.68,1
2365,37.53,-0.62,-14.44,1
2366,37.54,-2.43,-28.43,1
2367,37.56,-7.86,-17.16,1
2368,37.57,-8.67,1.64,1
2369,37.59,-5.6,7.99,1
2370,37.6,-0.86,2.97,1
2371,37.61,2.98,-1.18,1
2372,37.63,1.42,-8.33,1
2373,37.64,-2.25,-15.55,1
2374,37.65,1.5,-11.0,1
2375,37.67,10.14,-15.25,1
2376,37.68,11.81,-40.6,1
2377,37.69,8.35,-54.1,1
2378,37.71,8.97,-36.84,1
2379,37.72,9.06,-17.04,1
2380,37.73,2.73,-19.7,1
2381,37.75,-4.29,-29.99,1
2382,37.76,-7.05,-24.92,1
2383,37.77,-4.63,-11.2,1
2384,37.79,-3.89,-13.08,1
2385,37.8,-11.05,-27.12,1
2386,37.81,-11.53,-27.06,1
2387,37.83,4.49,-20.58,1
2388,37.84,17.67,-22.26,1
2389,37.85,14.58,-16.98,1
2390,37.87,6.52,-10.46,1
2391,37.88,3.63,-19.42,1
2392,37.89,3.26,-26.46,1
2393,37.9,1.49,-21.2,1
2394,37.92,2.37,-20.82,1
2395,37.93,8.69,-26.29,1
2396,37.95,11.04,-21.29,1
2397,37.96,4.28,-9.09,1
2398,37.97,0.3,-12.98,1
2399,37.99,6.83,-31.25,1
2400,38.0,11.73,-26.69,1
2401,38.01,5.38,2.37,1
2402,38.03,-2.99,9.19,1
2403,38.04,-3.74,-14.27,1
2404,38.05,-3.37,-26.27,1
2405,38.06,-9.04,-10.17,1
2406,38.08,-11.9,2.85,1
2407,38.09,-8.11,-10.86,1
2408,38.11,-6.87,-24.08,1
2409,38.12,-4.36,-10.63,1
2410,38.13,7.07,3.83,1
2411,38.15,15.07,-5.91,1
2412,38.16,9.75,-42.59,2
2413,38.17,0.44,-93.6,2
2414,38.19,-0.89,-107.23,2
2415,38.2,5.97,-55.22,2
2416,38.21,4.61,24.23,2
2417,38.22,-15.93,120.2,2
2418,38.24,-29.81,259.08,2
2419,38.25,-17.47,347.84,2
2420,38.27,-0.85,270.15,2
2421,38.28,11.36,132.61,2
2422,38.29,27.23,70.73,2
2423,38.31,23.35,36.23,2
2424,38.32,0.65,-18.2,2
2425,38.33,3.61,-44.9,2
2426,38.35,27.93,-37.05,2
2427,38.36,41.19,-32.34,2
2428,38.37,53.18,-10.47,2
2429,38.38,63.18,29.71,2
2430,38.4,31.49,41.4,2
2431,38.41,-26.61,31.8,2
2432,38.43,-37.53,4.76,2
2433,38.44,-5.55,-70.27,2
2434,38.45,8.52,-165.19,2
2435,38.47,1.56,-201.22,2
2436,38.48,1.05,-138.18,2
2437,38.49,3.24,-47.76,2
2438,38.51,-23.2,-56.31,2
2439,38.52,-60.57,-151.0,2
2440,38.53,-42.29,-185.68,2
2441,38.54,8.48,-113.01,2
2442,38.56,16.05,-61.58,1
2443,38.57,-9.98,-118.28,1
2444,38.59,-18.85,-165.6,1
2445,38.6,-11.11,-126.56,1
2446,38.61,-21.55,-74.3,1
2447,38.63,-29.98,-36.11,1
2448,38.64,1.34,-59.14,1
2449,38.65,20.48,-147.28,1
2450,38.67,-6.1,-152.8,1
2451,38.68,-13.48,-76.98,1
2452,38.69,12.37,-31.54,1
2453,38.71,17.14,4.5,1
2454,38.72,-1.82,50.84,1
2455,38.73,-21.66,71.82,1
2456,38.75,-29.11,53.69,1
2457,38.76,-4.22,35.37,1
2458,38.77,15.73,44.7,1
2459,38.79,-21.37,23.6,1
2460,38.8,-45.35,-0.61,1
2461,38.81,12.66,36.96,1
2462,38.83,51.13,18.84,1
2463,38.84,4.39,-86.35,1
2464,38.85,-12.42,-85.29,1
2465,38.87,40.49,39.77,1
2466,38.88,49.14,82.98,1
2467,38.89,-6.18,13.16,1
2468,38.9,-28.85,-19.17,1
2469,38.92,0.4,10.12,1
2470,38.93,15.67,9.71,1
2471,38.95,0.81,17.77,1
2472,38.96,-3.18,119.55,1
2473,38.97,-1.24,174.31,1
2474,38.99,-23.63,78.94,1
2475,39.0,-31.48,22.03,1
2476,39.01,5.12,63.93,1
2477,39.03,25.34,61.3,1
2478,39.04,-1.67,37.15,1
2479,39.05,-29.04,52.4,1
2480,39.06,-27.89,22.33,1
2481,39.08,-9.44,-61.91,1
2482,39.09,12.45,-71.75,1
2483,39.11,29.75,11.94,1
2484,39.12,24.4,65.13,1
2485,39.13,-1.67,59.05,1
2486,39.15,-3.85,50.95,1
2487,39.16,17.21,22.21,1
2488,39.17,16.18,-23.51,1
2489,39.19,5.47,1.96,1
2490,39.2,15.11,80.62,1
2491,39.21,21.8,67.14,1
2492,39.22,4.34,-35.62,1
2493,39.24,-3.65,-42.72,1
2494,39.25,13.7,68.69,1
2495,39.27,10.0,123.34,1
2496,39.28,-22.11,77.57,1
2497,39.29,-30.6,33.64,1
2498,39.31,-4.68,34.77,1
2499,39.32,20.32,30.84,1
2500,39.33,19.78,-26.46,1
2501,39.35,-3.1,-52.15,1
2502,39.36,-10.46,39.63,1
2503,39.37,22.55,133.25,1
2504,39.38,39.08,122.96,1
2505,39.4,-7.85,81.73,1
2506,39.41,-47.51,81.57,1
2507,39.43,-22.88,90.45,1
2508,39.44,3.79,69.21,1
2509,39.45,-4.64,49.04,1
2510,39.47,-1.93,51.9,1
2511,39.48,17.69,43.89,1
2512,39.49,22.0,27.43,1
2513,39.51,13.11,29.92,1
2514,39.52,4.96,34.35,1
2515,39.53,-3.5,24.74,1
2516,39.54,-17.33,17.45,1
2517,39.56,-23.51,1.78,1
2518,39.57,-12.03,-23.97,1
2519,39.59,-3.03,-6.77,1
2520,39.6,-2.87,41.67,1
2521,39.61,2.95,61.37,1
2522,39.63,0.97,46.72,1
2523,39.64,-22.06,-11.33,1
2524,39.65,-20.43,-85.4,1
2525,39.67,26.75,-76.11,1
2526,39.68,44.71,-4.16,1
2527,39.69,-0.77,7.4,1
2528,39.71,-38.63,-17.34,1
2529,39.72,-27.08,16.71,1
2530,39.73,-10.36,38.87,1
2531,39.75,-16.33,-43.41,1
2532,39.76,-9.27,-121.86,1
2533,39.77,16.09,-86.48,1
2534,39.79,13.76,-19.75,1
2535,39.8,-12.45,-13.25,1
2536,39.81,-10.65,-51.53,1
2537,39.83,16.17,-95.6,1
2538,39.84,15.96,-106.24,1
2539,39.85,-1.9,-58.91,1
2540,39.87,10.98,3.3,1
2541,39.88,25.94,30.81,1
2542,39.89,6.72,34.23,1
2543,39.9,-3.28,20.62,1
2544,39.92,12.36,-12.64,1
2545,39.93,8.99,-26.12,1
2546,39.95,-16.36,4.46,1
2547,39.96,-22.11,14.88,1
2548,39.97,-0.25,-25.3,1
2549,39.99,12.01,-23.95,1
2550,40.0,-1.1,9.58,1
2551,40.01,-10.06,-22.43,1
2552,40.03,-3.72,-53.23,1
2553,40.04,-0.54,-13.87,1
2554,40.05,4.33,1.43,1
2555,40.07,10.72,-61.08,1
2556,40.08,-2.75,-101.19,1
2557,40.09,-13.59,-44.9,1
2558,40.11,-9.7,3.78,1
2559,40.12,-23.41,-41.05,1
2560,40.13,-34.03,-57.39,1
2561,40.15,-18.64,15.18,1
2562,40.16,-14.26,30.31,0
2563,40.17,-12.86,-44.08,0
2564,40.19,18.71,-86.77,0
2565,40.2,33.87,-75.18,0
2566,40.21,11.41,-74.19,0
2567,40.22,5.47,-114.2,0
2568,40.24,8.88,-163.78,0
2569,40.25,-8.91,-181.24,0
2570,40.27,-14.34,-176.76,0
2571,40.28,3.46,-184.13,0
2572,40.29,14.14,-200.15,0
2573,40.31,17.6,-177.07,0
2574,40.32,24.89,-83.02,0
2575,40.33,29.66,33.13,0
2576,40.35,31.61,95.61,0
2577,40.36,29.63,108.75,0
2578,40.37,17.78,119.33,0
2579,40.38,1.08,126.13,0
2580,40.4,-12.8,113.62,0
2581,40.41,-17.38,100.24,0
2582,40.43,-8.3,99.59,0
2583,40.44,6.84,104.19,0
2584,40.45,9.18,108.74,0
2585,40.47,-6.72,104.48,0
2586,40.48,-18.81,93.66,0
2587,40.49,-13.65,95.76,0
2588,40.51,-5.71,105.08,0
2589,40.52,-0.33,107.64,0
2590,40.53,7.11,104.78,0
2591,40.54,1.16,85.21,0
2592,40.56,-19.5,53.51,1
2593,40.57,-25.11,39.47,1
2594,40.59,-13.44,39.45,1
2595,40.6,-9.1,31.67,1
2596,40.61,-10.13,22.68,1
2597,40.63,-1.99,18.2,1
2598,40.64,4.44,12.09,1
2599,40.65,-6.06,14.47,1
2600,40.67,-18.94,21.02,1
2601,40.68,-17.96,9.31,1
2602,40.69,-15.91,-6.25,1
2603,40.71,-24.74,-1.66,1
2604,40.72,-28.61,10.02,1
2605,40.73,-11.67,9.01,1
2606,40.75,8.32,-6.83,1
2607,40.76,8.13,-16.55,1
2608,40.77,-2.92,1.29,1
2609,40.79,-5.47,16.46,1
2610,40.8,-2.86,-3.08,1
2611,40.81,-6.96,-17.85,1
2612,40.83,-9.67,-1.14,1
2613,40.84,-1.87,6.09,1
2614,40.85,0.63,-7.17,1
2615,40.87,-5.64,-6.01,1
2616,40.88,-0.58,9.58,1
2617,40.89,11.64,12.38,1
2618,40.9,13.78,0.16,1
2619,40.92,13.52,-9.92,1
2620,40.93,13.67,-9.84,1
2621,40.95,3.86,-8.77,1
2622,40.96,-5.09,-12.79,1
2623,40.97,-1.13,-8.41,1
2624,40.99,4.67,2.8,1
2625,41.0,3.73,-2.48,1
2626,41.01,-0.82,-19.14,1
2627,41.03,-3.44,-27.73,1
2628,41.04,-1.7,-29.31,1
2629,41.05,-3.23,-26.19,1
2630,41.06,-5.54,-20.52,1
2631,41.08,2.06,-21.04,1
2632,41.09,6.72,-22.1,1
2633,41.11,-0.07,-14.29,1
2634,41.12,3.04,-10.54,1
2635,41.13,20.68,-21.47,1
2636,41.15,27.08,-33.0,1
2637,41.16,15.24,-28.42,1
2638,41.17,6.71,-4.12,1
2639,41.19,9.98,14.14,1
2640,41.2,8.46,-2.63,1
2641,41.21,-6.38,-26.15,1
2642,41.22,-18.79,-23.26,1
2643,41.24,-14.59,-11.79,1
2644,41.25,1.03,-1.1,1
2645,41.27,15.39,10.01,1
2646,41.28,19.51,2.5,1
2647,41.29,12.52,-12.77,1
2648,41.31,4.92,-9.4,1
2649,41.32,1.35,-6.78,1
2650,41.33,-4.11,-19.08,1
2651,41.35,-3.77,-24.08,1
2652,41.36,8.28,-20.01,1
2653,41.37,13.86,-19.14,1
2654,41.38,4.36,-13.43,1
2655,41.4,-4.04,-1.86,1
2656,41.41,-6.33,1.75,1
2657,41.43,-10.25,-6.4,1
2658,41.44,-9.42,-16.69,1
2659,41.45,4.1,-15.12,1
2660,41.47,16.75,-1.59,1
2661,41.48,14.24,4.21,1
2662,41.49,7.19,-6.94,1
2663,41.51,6.27,-24.34,1
2664,41.52,0.29,-28.6,1
2665,41.53,-7.9,-8.74,1
2666,41.54,-4.62,11.32,1
2667,41.56,-1.01,5.41,1
2668,41.57,-3.28,-7.96,1
2669,41.59,1.65,-5.18,1
2670,41.6,12.14,-1.46,1
2671,41.61,12.47,-9.11,1
2672,41.63,-1.75,-10.3,1
2673,41.64,-15.61,-1.67,1
2674,41.65,-12.88,4.41,1
2675,41.67,-0.71,6.69,1
2676,41.68,3.64,2.48,1
2677,41.69,-0.2,-7.45,1
2678,41.71,-2.87,-8.89,1
2679,41.72,4.24,2.15,1
2680,41.73,21.28,12.74,1
2681,41.75,23.63,13.64,1
2682,41.76,-0.38,5.19,1
2683,41.77,-15.52,-2.57,1
2684,41.79,-4.36,0.75,1
2685,41.8,5.83,7.8,1
2686,41.81,3.24,10.71,1
2687,41.83,1.09,11.02,1
2688,41.84,0.48,6.12,1
2689,41.85,-3.11,-0.88,1
2690,41.87,-2.84,-4.02,1
2691,41.88,3.46,-7.55,1
2692,41.89,6.68,-11.19,1
2693,41.9,2.3,-8.67,1
2694,41.92,-3.68,-0.88,1
2695,41.93,-2.12,7.84,1
2696,41.95,2.9,11.9,1
2697,41.96,0.6,3.8,1
2698,41.97,-6.38,-8.69,1
2699,41.99,-9.95,-4.4,1
2700,42.0,-7.58,12.13,1
2701,42.01,-1.64,16.3,1
2702,42.03,2.34,6.33,1
2703,42.04,2.81,-1.84,1
2704,42.05,-3.48,-1.24,1
2705,42.06,-18.01,3.19,1
2706,42.08,-26.04,9.96,1
2707,42.09,-15.55,21.13,1
2708,42.11,4.08,23.4,1
2709,42.12,16.57,8.01,1
2710,42.13,15.08,-3.98,1
2711,42.15,4.93,-0.03,1
2712,42.16,-2.99,2.11,0
2713,42.17,-0.53,-4.3,0
2714,42.19,9.77,-16.77,0
2715,42.2,13.19,-55.34,0
2716,42.21,5.18,-120.59,0
2717,42.22,-4.35,-160.54,0
2718,42.24,-8.6,-145.1,0
2719,42.25,0.41,-111.32,0
2720,42.27,22.05,-97.33,0
2721,42.28,35.05,-96.3,0
2722,42.29,30.34,-89.97,0
2723,42.31,25.35,-81.94,0
2724,42.32,28.88,-82.63,0
2725,42.33,27.96,-78.1,0
2726,42.35,15.8,-49.2,0
2727,42.36,2.93,-10.02,0
2728,42.37,-2.43,19.26,0
2729,42.38,-3.87,44.16,0
2730,42.4,-9.76,67.14,0
2731,42.41,-19.01,86.27,0
2732,42.43,-20.07,109.59,0
2733,42.44,-13.97,129.27,0
2734,42.45,-11.57,133.04,0
2735,42.47,-14.21,137.95,0
2736,42.48,-19.19,153.09,0
2737,42.49,-23.77,156.16,0
2738,42.51,-25.97,145.79,0
2739,42.52,-28.66,147.33,0
2740,42.53,-31.27,161.92,0
2741,42.54,-30.1,169.88,0
2742,42.56,-27.63,159.59,1
2743,42.57,-26.96,136.37,1
2744,42.59,-27.46,118.2,1
2745,42.6,-23.61,108.73,1
2746,42.61,-12.68,97.38,1
2747,42.63,-7.07,83.13,1
2748,42.64,-11.55,70.52,1
2749,42.65,-10.25,61.59,1
2750,42.66,0.27,57.08,1
2751,42.68,5.7,53.88,1
2752,42.69,2.94,43.08,1
2753,42.71,-1.73,24.45,1
2754,42.72,-5.38,11.32,1
2755,42.73,-4.13,5.37,1
2756,42.75,-0.85,-3.41,1
2757,42.76,-1.14,-16.58,1
2758,42.77,0.4,-28.78,1
2759,42.79,5.26,-34.6,1
2760,42.8,6.66,-33.71,1
2761,42.81,7.81,-29.43,1
2762,42.83,9.91,-26.49,1
2763,42.84,7.81,-29.22,1
2764,42.85,6.47,-32.35,1
2765,42.87,9.29,-32.16,1
2766,42.88,9.32,-33.93,1
2767,42.89,5.05,-36.38,1
2768,42.9,0.87,-39.82,1
2769,42.92,-4.24,-49.74,1
2770,42.93,-8.81,-55.74,1
2771,42.95,-1.73,-49.46,1
2772,42.96,11.98,-45.31,1
2773,42.97,10.18,-50.92,1
2774,42.99,-2.76,-56.13,1
2775,43.0,-3.89,-55.99,1
2776,43.01,3.73,-51.29,1
2777,43.03,2.9,-45.12,1
2778,43.04,-4.11,-47.34,1
2779,43.05,-3.76,-57.05,1
2780,43.06,3.49,-60.64,1
2781,43.08,7.66,-56.49,1
2782,43.09,6.92,-51.03,1
2783,43.11,7.49,-45.26,1
2784,43.12,11.79,-46.22,1
2785,43.13,13.25,-54.9,1
2786,43.15,8.45,-51.81,1
2787,43.16,4.22,-35.93,1
2788,43.17,3.77,-30.71,1
2789,43.19,3.6,-37.46,1
2790,43.2,2.22,-42.71,1
2791,43.21,5.72,-45.73,1
2792,43.22,15.35,-45.6,1
2793,43.24,16.01,-42.33,1
2794,43.25,2.86,-39.87,1
2795,43.27,-8.26,-37.33,1
2796,43.28,-6.65,-39.43,1
2797,43.29,6.21,-43.85,1
2798,43.3,19.4,-36.36,1
2799,43.32,18.94,-26.54,1
2800,43.33,9.4,-28.69,1
2801,43.35,5.11,-29.6,1
2802,43.36,8.62,-24.29,1
2803,43.37,13.64,-23.05,1
2804,43.38,9.38,-20.71,1
2805,43.4,-5.63,-14.19,1
2806,43.41,-13.05,-12.51,1
2807,43.43,-0.72,-14.29,1
2808,43.44,17.79,-18.06,1
2809,43.45,17.65,-27.79,1
2810,43.47,-4.27,-31.8,1
2811,43.48,-17.55,-17.89,1
2812,43.49,-2.17,0.84,1
2813,43.51,20.0,6.19,1
2814,43.52,19.48,-0.23,1
2815,43.53,-0.34,-5.71,1
2816,43.54,-13.55,-4.42,1
2817,43.56,-11.67,-2.47,1
2818,43.57,-7.4,-1.94,1
2819,43.59,-6.05,3.75,1
2820,43.6,-3.11,7.21,1
2821,43.61,-2.66,0.17,1
2822,43.63,-7.82,-4.21,1
2823,43.64,-7.99,-1.2,1
2824,43.65,0.86,-1.88,1
2825,43.67,4.66,-2.26,1
2826,43.68,-2.11,7.54,1
2827,43.69,-3.17,19.52,1
2828,43.71,9.72,19.15,1
2829,43.72,19.6,8.75,1
2830,43.73,12.65,6.48,1
2831,43.75,0.79,16.65,1
2832,43.76,-0.67,20.55,1
2833,43.77,-0.47,12.85,1
2834,43.79,-6.67,13.04,1
2835,43.8,-6.7,22.43,1
2836,43.81,-0.01,20.58,1
2837,43.83,-2.67,12.32,1
2838,43.84,-12.66,14.66,1
2839,43.85,-11.69,20.5,1
2840,43.87,0.68,22.47,1
2841,43.88,6.73,23.21,1
2842,43.89,3.27,19.77,1
2843,43.9,-1.84,16.18,1
2844,43.92,-8.23,19.04,1
2845,43.93,-9.22,22.66,1
2846,43.94,0.52,25.13,1
2847,43.96,6.02,26.57,1
2848,43.97,-2.15,18.45,1
2849,43.99,-10.6,4.8,1
2850,44.0,-8.15,3.69,1
2851,44.01,-0.44,16.35,1
2852,44.03,4.49,29.88,1
2853,44.04,3.9,36.5,1
2854,44.05,-4.09,31.67,1
2855,44.06,-16.55,19.74,1
2856,44.08,-21.26,11.27,1
2857,44.09,-10.15,8.23,1
2858,44.11,7.85,12.3,1
2859,44.12,15.81,31.87,1
2860,44.13,9.06,82.36,1
2861,44.15,-0.11,171.71,1
2862,44.16,-1.82,263.06,2
2863,44.17,-1.45,312.74,2
2864,44.19,-4.45,323.04,2
2865,44.2,-7.61,303.02,2
2866,44.21,-9.38,247.52,2
2867,44.22,-12.73,163.35,2
2868,44.24,-21.77,76.95,2
2869,44.25,-31.8,18.66,2
2870,44.27,-26.82,-13.13,2
2871,44.28,-14.01,-56.86,2
2872,44.29,-18.34,-134.96,2
2873,44.31,-25.45,-213.05,2
2874,44.32,-9.85,-241.88,2
2875,44.33,9.25,-225.83,2
2876,44.35,9.84,-203.49,2
2877,44.36,4.64,-194.65,2
2878,44.37,5.23,-190.59,2
2879,44.38,10.75,-168.49,2
2880,44.4,23.96,-138.95,2
2881,44.41,38.17,-134.35,2
2882,44.43,36.37,-137.6,2
2883,44.44,19.49,-122.42,2
2884,44.45,4.92,-104.73,2
2885,44.47,0.78,-96.13,2
2886,44.48,1.74,-90.87,2
2887,44.49,5.29,-84.52,2
2888,44.51,12.16,-74.03,2
2889,44.52,14.92,-64.52,2
2890,44.53,8.23,-51.02,2
2891,44.54,-0.8,-24.1,2
2892,44.56,-2.43,-10.72,1
2893,44.57,7.06,-28.88,1
2894,44.58,17.3,-40.56,1
2895,44.6,14.11,-27.9,1
2896,44.61,7.06,-24.62,1
2897,44.63,12.55,-35.8,1
2898,44.64,17.6,-30.79,1
2899,44.65,6.16,-9.14,1
2900,44.67,-4.98,6.81,1
2901,44.68,0.14,11.38,1
2902,44.69,6.54,12.01,1
2903,44.71,2.04,17.13,1
2904,44.72,-1.41,23.97,1
2905,44.73,4.18,24.43,1
2906,44.75,7.96,25.5,1
2907,44.76,2.25,34.42,1
2908,44.77,-2.86,38.73,1
2909,44.79,-0.62,33.65,1
2910,44.8,0.24,32.76,1
2911,44.81,-5.99,41.5,1
2912,44.83,-12.89,49.3,1
2913,44.84,-15.03,45.62,1
2914,44.85,-13.67,31.38,1
2915,44.87,-8.52,22.71,1
2916,44.88,-1.91,32.8,1
2917,44.89,-3.5,44.9,1
2918,44.9,-13.7,45.83,1
2919,44.92,-18.06,51.12,1
2920,44.93,-11.03,58.75,1
2921,44.95,-6.58,47.7,1
2922,44.96,-8.43,27.46,1
2923,44.97,-3.78,24.84,1
2924,44.99,2.36,36.37,1
2925,45.0,-5.51,38.21,1
2926,45.01,-17.37,35.67,1
2927,45.03,-12.28,44.34,1
2928,45.04,2.59,49.69,1
2929,45.05,4.08,41.08,1
2930,45.06,-3.66,35.41,1
2931,45.08,-4.41,43.22,1
2932,45.09,-6.0,47.78,1
2933,45.11,-14.66,34.87,1
2934,45.12,-13.78,20.88,1
2935,45.13,0.32,23.29,1
2936,45.15,8.2,32.59,1
2937,45.16,-0.11,34.86,1
2938,45.17,-9.51,35.02,1
2939,45.19,-4.44,42.68,1
2940,45.2,6.6,47.54,1
2941,45.21,11.44,34.28,1
2942,45.22,15.21,16.87,1
2943,45.24,18.16,18.22,1
2944,45.25,8.23,27.81,1
2945,45.26,-11.38,21.74,1
2946,45.28,-20.03,6.19,1
2947,45.29,-14.93,7.18,1
2948,45.31,-8.59,24.74,1
2949,45.32,-0.53,26.35,1
2950,45.33,6.85,6.61,1
2951,45.35,0.93,-0.28,1
2952,45.36,-9.06,12.32,1
2953,45.37,-1.79,18.01,1
2954,45.38,11.73,13.97,1
2955,45.4,11.1,7.15,1
2956,45.41,9.34,-6.54,1
2957,45.43,16.55,-12.3,1
2958,45.44,14.08,-0.07,1
2959,45.45,-2.43,6.59,1
2960,45.47,-12.87,-1.78,1
2961,45.48,-10.41,-7.57,1
2962,45.49,-5.44,-4.3,1
2963,45.51,-1.4,1.66,1
2964,45.52,0.12,3.31,1
2965,45.53,-4.82,-3.19,1
2966,45.54,-7.37,-10.39,1
2967,45.56,-1.31,-8.2,1
2968,45.57,4.85,-5.37,1
2969,45.59,5.29,-13.25,1
2970,45.6,1.04,-18.08,1
2971,45.61,-5.82,-11.79,1
2972,45.63,-10.22,-5.55,1
2973,45.64,-8.87,-1.15,1
2974,45.65,-2.61,0.25,1
2975,45.67,6.0,-2.46,1
2976,45.68,11.02,-2.4,1
2977,45.69,10.24,-4.24,1
2978,45.71,10.34,-8.51,1
2979,45.72,13.95,-6.45,1
2980,45.73,14.62,-11.23,1
2981,45.75,9.61,-28.62,1
2982,45.76,3.36,-32.37,1
2983,45.77,-1.63,-20.81,1
2984,45.79,-6.25,-19.92,1
2985,45.8,-5.79,-19.71,1
2986,45.81,7.05,-5.1,1
2987,45.83,21.55,-1.15,1
2988,45.84,11.94,-11.56,1
2989,45.85,-17.9,-13.51,1
2990,45.86,-31.6,-14.66,1
2991,45.88,-18.71,-25.46,1
2992,45.89,-4.89,-32.65,1
2993,45.9,-4.62,-29.77,1
2994,45.92,-7.47,-21.64,1
2995,45.93,-5.66,-17.36,1
2996,45.95,-4.39,-21.61,1
2997,45.96,-4.15,-20.66,1
2998,45.97,0.39,-7.86,1
2999,45.99,7.83,-2.91,1
3000,46.0,10.44,-13.48,1
3001,46.01,5.63,-18.42,1
3002,46.03,3.27,-11.02,1
3003,46.04,10.08,-9.02,1
3004,46.05,9.62,-19.09,1
3005,46.06,-9.34,-30.17,1
3006,46.08,-19.91,-26.41,1
3007,46.09,-2.51,-10.35,1
3008,46.11,13.37,-7.99,1
3009,46.12,3.36,-28.3,1
3010,46.13,-6.57,-40.45,1
3011,46.15,6.32,-23.74,1
3012,46.16,18.99,-14.32,2
3013,46.17,8.24,-69.91,2
3014,46.19,-6.22,-174.99,2
3015,46.2,-0.92,-198.01,2
3016,46.21,2.12,-65.54,2
3017,46.22,-13.02,96.8,2
3018,46.24,-19.02,190.64,2
3019,46.25,1.6,251.0,2
3020,46.27,54.18,240.62,2
3021,46.28,100.8,180.33,2
3022,46.29,56.57,203.83,2
3023,46.31,-38.75,233.31,2
3024,46.32,-61.95,174.17,2
3025,46.33,-19.81,115.69,2
3026,46.35,-7.6,91.78,2
3027,46.36,-59.2,67.37,2
3028,46.37,-88.23,-3.19,2
3029,46.38,-27.07,-108.42,2
3030,46.4,22.71,-171.99,2
3031,46.41,-9.84,-149.89,2
3032,46.43,-17.93,-12.13,2
3033,46.44,50.86,119.32,2
3034,46.45,79.82,42.64,2
3035,46.47,11.5,-110.47,2
3036,46.48,-37.8,-107.57,2
3037,46.49,9.04,-86.99,2
3038,46.5,61.48,-227.63,2
3039,46.52,45.28,-342.49,2
3040,46.53,2.24,-241.24,2
3041,46.54,-22.64,-105.89,2
3042,46.56,-19.28,-109.84,1
3043,46.57,-16.05,-135.68,1
3044,46.59,-38.77,-129.57,1
3045,46.6,-34.63,-172.15,1
3046,46.61,8.95,-178.93,1
3047,46.63,11.48,-54.48,1
3048,46.64,-14.77,33.7,1
3049,46.65,16.25,-35.96,1
3050,46.67,64.32,-100.32,1
3051,46.68,44.21,-49.62,1
3052,46.69,-0.54,-0.08,1
3053,46.71,-5.49,-17.31,1
3054,46.72,-0.5,-31.01,1
3055,46.73,-8.37,-4.77,1
3056,46.75,1.32,31.7,1
3057,46.76,21.65,20.69,1
3058,46.77,8.45,-44.42,1
3059,46.79,-24.81,-63.34,1
3060,46.8,-30.96,-8.66,1
3061,46.81,-25.01,10.21,1
3062,46.83,-23.68,-6.56,1
3063,46.84,0.76,39.11,1
3064,46.85,26.27,97.87,1
3065,46.87,27.67,70.0,1
3066,46.88,32.66,4.74,1
3067,46.89,30.92,0.35,1
3068,46.9,10.11,31.75,1
3069,46.92,13.51,35.78,1
3070,46.93,31.73,47.51,1
3071,46.95,10.67,63.54,1
3072,46.96,-15.01,25.25,1
3073,46.97,-1.94,-7.07,1
3074,46.99,-2.2,14.12,1
3075,47.0,-30.89,17.38,1
3076,47.01,-34.33,-14.14,1
3077,47.03,-10.48,-11.86,1
3078,47.04,3.34,51.0,1
3079,47.05,-3.55,108.12,1
3080,47.06,-12.31,101.86,1
3081,47.08,-6.1,60.31,1
3082,47.09,2.18,48.58,1
3083,47.11,-11.76,98.37,1
3084,47.12,-33.88,131.63,1
3085,47.13,-23.42,80.91,1
3086,47.14,5.98,35.35,1
3087,47.16,3.72,56.79,1
3088,47.17,-23.6,77.48,1
3089,47.18,-24.14,49.92,1
3090,47.2,11.6,-7.91,1
3091,47.21,22.47,-27.64,1
3092,47.22,-17.41,52.35,1
3093,47.24,-42.15,145.82,1
3094,47.25,-19.01,120.86,1
3095,47.27,9.62,20.27,1
3096,47.28,11.14,-10.99,1
3097,47.29,-8.88,37.19,1
3098,47.31,-21.59,40.24,1
3099,47.32,-9.96,-9.38,1
3100,47.33,6.05,-5.52,1
3101,47.35,4.18,52.57,1
3102,47.36,3.46,79.36,1
3103,47.37,13.82,27.12,1
3104,47.38,-1.42,-40.54,1
3105,47.4,-32.75,-13.48,1
3106,47.41,-18.09,56.96,1
3107,47.43,28.96,40.13,1
3108,47.44,36.64,-21.96,1
3109,47.45,8.25,-23.3,1
3110,47.47,-11.42,25.16,1
3111,47.48,-27.77,69.09,1
3112,47.49,-35.7,71.39,1
3113,47.51,1.26,40.91,1
3114,47.52,50.97,35.6,1
3115,47.53,43.44,36.77,1
3116,47.54,3.76,-9.1,1
3117,47.56,6.47,-68.46,1
3118,47.57,36.05,-92.15,1
3119,47.59,28.98,-68.9,1
3120,47.6,-10.93,-9.7,1
3121,47.61,-28.75,29.01,1
3122,47.63,0.4,-11.74,1
3123,47.64,38.35,-86.57,1
3124,47.65,31.5,-114.35,1
3125,47.67,-12.6,-112.52,1
3126,47.68,-38.17,-95.01,1
3127,47.69,-15.26,-21.29,1
3128,47.71,25.65,58.12,1
3129,47.72,32.15,53.02,1
3130,47.73,-0.05,13.99,1
3131,47.75,-28.01,22.07,1
3132,47.76,-34.69,19.04,1
3133,47.77,-37.76,-10.64,1
3134,47.78,-32.8,36.42,1
3135,47.8,-0.74,107.76,1
3136,47.81,39.89,67.37,1
3137,47.82,42.46,-7.95,1
3138,47.84,7.76,-6.33,1
3139,47.85,-15.3,24.53,1
3140,47.86,-13.13,44.31,1
3141,47.88,-8.0,34.47,1
3142,47.89,-11.08,-13.62,1
3143,47.9,-16.39,8.37,1
3144,47.92,-16.35,86.24,1
3145,47.93,-15.97,33.88,1
3146,47.95,-6.82,-82.67,1
3147,47.96,20.99,-47.73,1
3148,47.97,34.82,85.45,1
3149,47.99,16.86,113.2,1
3150,48.0,0.57,-8.43,1
3151,48.01,-10.41,-115.84,1
3152,48.03,-23.22,-64.75,1
3153,48.04,-10.9,48.88,1
3154,48.05,11.7,39.69,1
3155,48.06,6.72,-51.5,1
3156,48.08,-14.11,-71.51,1
3157,48.09,-21.51,-54.23,1
3158,48.11,-15.26,-70.25,1
3159,48.12,-4.43,-71.01,1
3160,48.13,17.7,-34.59,1
3161,48.15,31.84,-25.06,1
3162,48.16,21.61,-99.1,0
3163,48.17,19.98,-200.32,0
3164,48.19,23.33,-234.21,0
3165,48.2,-0.62,-204.83,0
3166,48.21,-21.84,-171.22,0
3167,48.22,-1.74,-152.64,0
3168,48.24,33.77,-112.13,0
3169,48.25,43.2,-26.6,0
3170,48.27,35.3,62.99,0
3171,48.28,41.45,114.66,0
3172,48.29,48.03,122.34,0
3173,48.31,25.48,98.95,0
3174,48.32,-5.89,77.9,0
3175,48.33,-14.16,77.22,0
3176,48.35,-9.03,76.68,0
3177,48.36,-15.67,70.69,0
3178,48.37,-33.92,73.77,0
3179,48.38,-39.55,72.28,0
3180,48.4,-24.26,54.26,0
3181,48.41,-11.14,39.2,0
3182,48.42,-10.05,25.35,0
3183,48.44,-9.8,1.2,0
3184,48.45,-12.54,-6.22,0
3185,48.46,-21.04,14.81,0
3186,48.48,-21.32,25.55,0
3187,48.49,-6.98,8.28,0
3188,48.5,8.24,-2.76,0
3189,48.52,7.05,11.7,0
3190,48.53,-8.38,26.42,0
3191,48.54,-17.69,21.93,0
3192,48.56,-18.52,13.86,1
3193,48.57,-22.93,14.73,1
3194,48.59,-20.16,10.42,1
3195,48.6,-1.37,-1.6,1
3196,48.61,11.81,-4.68,1
3197,48.63,3.19,2.4,1
3198,48.64,-11.77,6.22,1
3199,48.65,-11.43,4.9,1
3200,48.67,-1.34,6.54,1
3201,48.68,-2.18,9.53,1
3202,48.69,-10.89,6.48,1
3203,48.71,-9.57,-1.19,1
3204,48.72,-2.33,-2.41,1
3205,48.73,-0.44,5.46,1
3206,48.75,0.71,1.75,1
3207,48.76,3.39,-18.86,1
3208,48.77,1.1,-26.4,1
3209,48.79,-2.68,-14.15,1
3210,48.8,1.78,-4.42,1
3211,48.81,5.32,2.68,1
3212,48.83,-4.32,9.05,1
3213,48.84,-10.81,5.47,1
3214,48.85,2.48,3.21,1
3215,48.87,19.86,6.45,1
3216,48.88,18.39,-2.88,1
3217,48.89,1.77,-20.72,1
3218,48.9,-7.37,-26.05,1
3219,48.92,-3.19,-18.58,1
3220,48.93,0.41,-7.09,1
3221,48.95,1.11,-0.22,1
3222,48.96,5.19,-7.87,1
3223,48.97,8.92,-17.6,1
3224,48.99,8.15,-14.07,1
3225,49.0,3.48,-6.87,1
3226,49.01,-3.81,-2.55,1
3227,49.03,-9.2,2.18,1
3228,49.04,-6.23,5.36,1
3229,49.05,7.28,-0.09,1
3230,49.06,19.69,-19.26,1
3231,49.08,17.92,-35.48,1
3232,49.09,7.59,-26.26,1
3233,49.1,2.56,-8.17,1
3234,49.12,4.86,-9.16,1
3235,49.13,7.62,-20.33,1
3236,49.14,4.85,-22.74,1
3237,49.16,-5.85,-17.69,1
3238,49.17,-12.59,-12.91,1
3239,49.19,-4.72,-14.21,1
3240,49.2,2.97,-21.71,1
3241,49.21,3.65,-27.78,1
3242,49.22,10.92,-22.32,1
3243,49.24,18.61,-1.38,1
3244,49.25,11.37,12.01,1
3245,49.27,2.77,-10.51,1
3246,49.28,9.87,-35.14,1
3247,49.29,17.23,-12.84,1
3248,49.31,9.74,17.25,1
3249,49.32,1.84,7.13,1
3250,49.33,1.18,-1.78,1
3251,49.35,-4.27,18.85,1
3252,49.36,-10.64,21.59,1
3253,49.37,-3.65,-6.2,1
3254,49.38,5.83,-20.88,1
3255,49.4,0.82,-18.77,1
3256,49.41,-4.67,-21.23,1
3257,49.43,5.02,-14.65,1
3258,49.44,14.41,5.64,1
3259,49.45,10.29,14.75,1
3260,49.47,5.91,7.43,1
3261,49.48,7.68,0.27,1
3262,49.49,4.2,-1.01,1
3263,49.51,-5.87,-2.81,1
3264,49.52,-11.81,-5.77,1
3265,49.53,-11.63,-1.25,1
3266,49.54,-13.14,5.91,1
3267,49.56,-17.51,3.71,1
3268,49.57,-12.21,1.72,1
3269,49.59,9.19,9.47,1
3270,49.6,24.7,14.84,1
3271,49.61,16.45,8.09,1
3272,49.63,3.29,-2.24,1
3273,49.64,0.72,-3.15,1
3274,49.65,-2.56,7.78,1
3275,49.67,-7.85,14.27,1
3276,49.68,-6.1,1.73,1
3277,49.69,-3.01,-6.7,1
3278,49.7,-3.26,13.25,1
3279,49.72,-3.13,27.12,1
3280,49.73,-7.05,3.59,1
3281,49.74,-13.75,-20.93,1
3282,49.76,-10.06,-11.34,1
3283,49.77,4.96,9.38,1
3284,49.78,20.84,11.69,1
3285,49.8,22.78,7.3,1
3286,49.81,-2.16,12.2,1
3287,49.83,-32.33,13.89,1
3288,49.84,-29.92,8.01,1
3289,49.85,-2.22,7.99,1
3290,49.87,13.72,8.36,1
3291,49.88,8.97,0.84,1
3292,49.89,0.06,-2.28,1
3293,49.9,-5.89,3.53,1
3294,49.92,-8.8,10.36,1
3295,49.93,-5.66,13.24,1
3296,49.95,-3.71,8.4,1
3297,49.96,-6.94,0.75,1
3298,49.97,-0.24,1.56,1
3299,49.99,14.88,8.99,1
3300,50.0,13.04,10.41,1
3301,50.01,-4.36,4.67,1
3302,50.03,-11.03,3.56,1
3303,50.04,-3.36,10.02,1
3304,50.05,0.59,15.18,1
3305,50.06,-6.49,15.0,1
3306,50.08,-16.9,12.78,1
3307,50.09,-22.81,14.05,1
3308,50.11,-20.16,17.05,1
3309,50.12,-12.39,7.95,1
3310,50.13,-5.47,-7.34,1
3311,50.15,6.72,-3.87,1
3312,50.16,22.49,13.82,0
3313,50.17,23.15,20.05,0
3314,50.19,9.99,-1.42,0
3315,50.2,2.16,-45.88,0
3316,50.21,-1.18,-81.16,0
3317,50.22,-10.42,-94.13,0
3318,50.24,-14.45,-106.42,0
3319,50.25,-4.68,-118.9,0
3320,50.27,7.55,-115.98,0
3321,50.28,24.27,-103.14,0
3322,50.29,44.59,-92.46,0
3323,50.31,41.55,-88.24,0
3324,50.32,21.0,-84.45,0
3325,50.33,18.86,-64.01,0
3326,50.34,26.06,-33.47,0
3327,50.36,18.59,-19.79,0
3328,50.37,10.63,-15.25,0
3329,50.38,14.71,1.25,0
3330,50.4,17.85,23.92,0
3331,50.41,9.9,48.14,0
3332,50.42,-5.07,71.22,0
3333,50.44,-16.58,81.32,0
3334,50.45,-19.52,88.22,0
3335,50.46,-19.55,105.08,0
3336,50.48,-21.08,119.2,0
3337,50.49,-17.8,121.67,0
3338,50.51,-9.44,120.28,0
3339,50.52,-10.47,118.91,0
3340,50.53,-20.08,114.77,0
3341,50.54,-19.27,106.99,0
3342,50.56,-16.76,101.35,1
3343,50.57,-29.49,103.88,1
3344,50.59,-35.64,109.69,1
3345,50.6,-19.86,107.76,1
3346,50.61,-6.63,98.72,1
3347,50.63,-8.35,90.4,1
3348,50.64,-9.06,82.43,1
3349,50.65,-4.8,76.57,1
3350,50.67,-7.51,75.65,1
3351,50.68,-13.18,70.03,1
3352,50.69,-8.53,59.86,1
3353,50.71,0.93,53.95,1
3354,50.72,-1.9,46.94,1
3355,50.73,-12.33,37.64,1
3356,50.75,-5.17,32.65,1
3357,50.76,11.41,28.04,1
3358,50.77,4.61,19.8,1
3359,50.79,-13.2,11.92,1
3360,50.8,-14.48,7.9,1
3361,50.81,-10.69,3.95,1
3362,50.83,-12.84,-7.52,1
3363,50.84,-12.91,-21.46,1
3364,50.85,-4.92,-25.38,1
3365,50.87,12.06,-24.66,1
3366,50.88,21.02,-32.42,1
3367,50.89,7.64,-44.28,1
3368,50.9,-2.9,-47.35,1
3369,50.92,4.57,-39.98,1
3370,50.93,7.24,-33.65,1
3371,50.95,5.97,-40.12,1
3372,50.96,14.3,-52.33,1
3373,50.97,9.62,-49.57,1
3374,50.98,-9.68,-37.85,1
3375,51.0,-7.87,-42.86,1
3376,51.01,11.9,-54.92,1
3377,51.02,16.26,-50.11,1
3378,51.04,5.55,-42.54,1
3379,51.05,2.01,-49.55,1
3380,51.06,10.82,-58.79,1
3381,51.08,15.24,-58.58,1
3382,51.09,2.26,-54.25,1
3383,51.1,-12.18,-53.13,1
3384,51.12,-5.77,-58.44,1
3385,51.13,9.04,-65.59,1
3386,51.15,9.97,-61.65,1
3387,51.16,7.17,-45.98,1
3388,51.17,10.64,-36.99,1
3389,51.19,6.94,-42.67,1
3390,51.2,-3.49,-50.32,1
3391,51.21,-3.95,-52.55,1
3392,51.22,4.37,-54.27,1
3393,51.24,8.14,-54.86,1
3394,51.25,6.94,-51.31,1
3395,51.27,11.08,-50.63,1
3396,51.28,18.44,-53.13,1
3397,51.29,13.52,-45.45,1
3398,51.31,-1.5,-32.26,1
3399,51.32,-5.24,-33.86,1
3400,51.33,0.77,-40.95,1
3401,51.35,0.53,-34.57,1
3402,51.36,3.14,-28.09,1
3403,51.37,14.36,-32.4,1
3404,51.38,13.33,-35.92,1
3405,51.4,-1.41,-33.75,1
3406,51.41,-3.2,-27.26,1
3407,51.43,7.51,-17.76,1
3408,51.44,3.69,-13.48,1
3409,51.45,-7.98,-14.49,1
3410,51.47,-0.6,-11.23,1
3411,51.48,12.96,-8.51,1
3412,51.49,10.12,-12.87,1
3413,51.51,4.82,-14.61,1
3414,51.52,8.23,-10.22,1
3415,51.53,5.49,-8.02,1
3416,51.54,-6.89,-9.71,1
3417,51.56,-11.6,-10.87,1
3418,51.57,-5.68,-9.93,1
3419,51.59,-2.37,-7.45,1
3420,51.6,0.41,-3.46,1
3421,51.61,8.95,3.83,1
3422,51.62,12.21,11.8,1
3423,51.64,5.97,11.76,1
3424,51.65,-1.21,6.58,1
3425,51.66,-5.13,8.26,1
3426,51.68,-2.37,12.48,1
3427,51.69,4.13,12.13,1
3428,51.7,2.51,16.93,1
3429,51.72,-2.25,25.72,1
3430,51.73,3.99,22.84,1
3431,51.74,9.34,13.81,1
3432,51.76,-0.62,13.62,1
3433,51.77,-9.86,15.74,1
3434,51.79,-6.58,11.97,1
3435,51.8,-3.99,10.41,1
3436,51.81,-6.5,16.36,1
3437,51.83,-6.02,25.11,1
3438,51.84,-1.97,28.43,1
3439,51.85,0.54,21.78,1
3440,51.87,-1.11,13.58,1
3441,51.88,-1.72,13.3,1
3442,51.89,3.64,19.87,1
3443,51.9,7.2,27.15,1
3444,51.92,5.36,24.22,1
3445,51.93,3.37,14.24,1
3446,51.95,-0.06,17.3,1
3447,51.96,-5.57,29.63,1
3448,51.97,-6.12,29.51,1
3449,51.99,2.17,21.08,1
3450,52.0,7.05,20.51,1
3451,52.01,-4.83,23.7,1
3452,52.03,-18.09,15.9,1
3453,52.04,-10.79,2.25,1
3454,52.05,3.6,6.9,1
3455,52.06,2.25,25.26,1
3456,52.08,-9.09,23.39,1
3457,52.09,-13.79,7.47,1
3458,52.11,-8.19,12.03,1
3459,52.12,1.94,26.71,1
3460,52.13,7.87,25.96,1
3461,52.15,3.21,19.31,1
3462,52.16,-3.1,18.17,2
3463,52.17,0.48,19.51,2
3464,52.19,5.7,24.58,2
3465,52.2,3.06,34.67,2
3466,52.21,-1.07,60.42,2
3467,52.22,0.5,123.53,2
3468,52.24,4.95,213.18,2
3469,52.25,2.45,281.7,2
3470,52.26,-9.08,301.41,2
3471,52.28,-13.48,281.93,2
3472,52.29,-8.11,238.12,2
3473,52.3,-12.94,180.01,2
3474,52.32,-23.92,117.53,2
3475,52.33,-21.61,58.89,2
3476,52.34,-13.71,9.0,2
3477,52.36,-14.97,-35.5,2
3478,52.37,-20.48,-80.13,2
3479,52.38,-25.68,-123.85,2
3480,52.4,-35.18,-167.77,2
3481,52.41,-41.08,-209.41,2
3482,52.42,-28.07,-237.39,2
3483,52.44,-2.22,-245.56,2
3484,52.45,12.93,-230.27,2
3485,52.47,11.81,-194.48,2
3486,52.48,11.93,-171.33,2
3487,52.49,17.9,-179.59,2
3488,52.51,14.62,-176.59,2
3489,52.52,3.57,-138.88,2
3490,52.53,4.79,-108.36,2
3491,52.54,18.97,-100.24,2
3492,52.56,29.62,-80.48,1
3493,52.57,27.07,-43.72,1
3494,52.59,17.06,-24.82,1
3495,52.6,16.2,-43.27,1
3496,52.61,30.77,-77.83,1
3497,52.63,41.85,-93.41,1
3498,52.64,27.76,-78.5,1
3499,52.65,5.27,-49.83,1
3500,52.67,6.0,-28.88,1
3501,52.68,18.5,-22.49,1
3502,52.69,13.4,-22.1,1
3503,52.71,-2.59,-14.81,1
3504,52.72,-4.19,-3.13,1
3505,52.73,6.62,-0.27,1
3506,52.75,4.14,-1.55,1
3507,52.76,-10.49,9.58,1
3508,52.77,-7.71,27.26,1
3509,52.79,9.56,29.28,1
3510,52.8,12.69,14.35,1
3511,52.81,1.73,7.76,1
3512,52.83,-5.17,25.92,1
3513,52.84,-3.83,46.63,1
3514,52.85,0.14,37.38,1
3515,52.87,3.39,15.41,1
3516,52.88,3.2,22.83,1
3517,52.89,-6.47,46.49,1
3518,52.9,-15.08,40.84,1
3519,52.92,-3.36,14.08,1
3520,52.93,13.93,12.45,1
3521,52.94,7.4,38.88,1
3522,52.96,-10.61,53.56,1
3523,52.97,-5.8,44.98,1
3524,52.98,15.82,39.27,1
3525,53.0,17.49,45.23,1
3526,53.01,-6.04,47.7,1
3527,53.02,-24.72,45.37,1
3528,53.04,-24.59,48.49,1
3529,53.05,-15.05,51.96,1
3530,53.06,-5.49,47.21,1
3531,53.08,-3.75,44.52,1
3532,53.09,-6.81,46.21,1
3533,53.11,-3.16,37.24,1
3534,53.12,2.81,24.97,1
3535,53.13,0.94,31.47,1
3536,53.15,-1.78,47.92,1
3537,53.16,2.12,44.33,1
3538,53.17,4.15,24.81,1
3539,53.19,-2.49,25.09,1
3540,53.2,-8.52,46.45,1
3541,53.21,-4.34,55.63,1
3542,53.22,-1.04,50.68,1
3543,53.24,-11.17,47.76,1
3544,53.25,-20.86,41.23,1
3545,53.27,-13.11,30.88,1
3546,53.28,2.54,23.68,1
3547,53.29,7.43,13.93,1
3548,53.31,2.78,9.43,1
3549,53.32,-1.82,22.77,1
3550,53.33,-10.22,31.42,1
3551,53.35,-20.69,21.42,1
3552,53.36,-18.39,16.23,1
3553,53.37,-7.07,20.23,1
3554,53.38,-4.9,26.01,1
3555,53.4,-9.72,38.01,1
3556,53.41,-9.09,35.45,1
3557,53.43,-6.32,12.43,1
3558,53.44,-7.46,9.04,1
3559,53.45,-3.68,27.83,1
3560,53.47,6.22,24.05,1
3561,53.48,8.2,-7.74,1
3562,53.49,4.33,-22.74,1
3563,53.51,3.69,-2.35,1
3564,53.52,-1.22,13.84,1
3565,53.53,-10.72,0.46,1
3566,53.54,-10.66,-15.67,1
3567,53.56,0.23,-13.69,1
3568,53.57,10.09,-2.87,1
3569,53.58,9.98,3.85,1
3570,53.6,3.76,1.63,1
3571,53.61,7.67,-5.27,1
3572,53.62,21.53,-11.7,1
3573,53.64,17.52,-18.98,1
3574,53.65,-8.17,-23.09,1
3575,53.66,-19.0,-14.1,1
3576,53.68,-4.03,-2.3,1
3577,53.69,7.06,-1.58,1
3578,53.7,6.48,2.03,1
3579,53.72,11.46,5.91,1
3580,53.73,15.12,-10.97,1
3581,53.75,3.33,-25.54,1
3582,53.76,-5.42,-20.42,1
3583,53.77,3.23,-25.18,1
3584,53.79,6.55,-32.12,1
3585,53.8,-3.83,-9.73,1
3586,53.81,-5.77,9.77,1
3587,53.83,0.86,-4.78,1
3588,53.84,0.29,-18.37,1
3589,53.85,-0.92,-11.71,1
3590,53.87,2.47,-14.2,1
3591,53.88,-0.03,-32.96,1
3592,53.89,-5.55,-43.9,1
3593,53.9,-3.57,-37.86,1
3594,53.92,3.16,-26.42,1
3595,53.93,5.84,-26.59,1
3596,53.95,3.51,-34.27,1
3597,53.96,7.76,-23.78,1
3598,53.97,19.58,0.74,1
3599,53.99,22.06,3.63,1
3600,54.0,12.62,-18.98,1
3601,54.01,1.16,-36.49,1
3602,54.03,-11.35,-41.52,1
3603,54.04,-22.4,-47.76,1
3604,54.05,-21.44,-43.95,1
3605,54.06,-7.64,-20.36,1
3606,54.08,1.7,-4.0,1
3607,54.09,-3.66,-8.22,1
3608,54.11,-9.23,-12.23,1
3609,54.12,-6.1,-14.57,1
3610,54.13,-7.82,-22.12,1
3611,54.15,-15.59,-17.44,1
3612,54.16,-7.85,-2.97,2
3613,54.17,11.55,-15.9,2
3614,54.18,16.24,-62.37,2
3615,54.2,12.47,-95.94,2
3616,54.21,16.36,-77.87,2
3617,54.22,13.94,11.28,2
3618,54.24,-1.33,150.09,2
3619,54.25,-9.19,237.31,2
3620,54.26,-0.55,246.6,2
3621,54.28,19.58,227.52,2
3622,54.29,34.56,123.56,2
3623,54.3,-7.98,1.98,2
3624,54.32,-92.08,72.31,2
3625,54.33,-93.84,224.02,2
3626,54.34,-11.33,173.31,2
3627,54.36,25.18,-12.49,2
3628,54.37,0.99,-30.45,2
3629,54.38,-10.4,77.13,2
3630,54.4,-2.73,4.28,2
3631,54.41,-1.17,-157.22,2
3632,54.43,-4.43,-147.09,2
3633,54.44,-13.09,-78.82,2
3634,54.45,-21.52,-86.82,2
3635,54.47,-12.03,-78.08,2
3636,54.48,0.72,-40.66,2
3637,54.49,-9.61,-63.03,2
3638,54.51,-20.16,-135.42,2
3639,54.52,11.33,-183.26,2
3640,54.53,49.67,-157.07,2
3641,54.54,36.98,-98.31,2
3642,54.56,18.67,-102.58,1
3643,54.57,41.7,-143.39,1
3644,54.59,56.78,-128.45,1
3645,54.6,31.93,-74.11,1
3646,54.61,-1.36,-35.91,1
3647,54.63,-14.46,-13.29,1
3648,54.64,1.66,-10.42,1
3649,54.65,35.32,-38.47,1
3650,54.67,51.72,-59.41,1
3651,54.68,40.24,-69.13,1
3652,54.69,32.45,-94.34,1
3653,54.71,29.28,-103.71,1
3654,54.72,8.25,-86.61,1
3655,54.73,6.45,-75.63,1
3656,54.75,45.66,-62.38,1
3657,54.76,66.74,-43.34,1
3658,54.77,33.73,-45.09,1
3659,54.79,-14.64,-32.43,1
3660,54.8,-31.47,13.44,1
3661,54.81,-21.66,15.62,1
3662,54.82,-16.72,-45.79,1
3663,54.84,-14.8,-75.55,1
3664,54.85,-5.97,-7.36,1
3665,54.86,-16.88,92.69,1
3666,54.88,-56.85,122.01,1
3667,54.89,-66.49,89.34,1
3668,54.9,-15.12,59.37,1
3669,54.92,19.93,45.36,1
3670,54.93,-6.11,28.21,1
3671,54.94,-12.53,-14.41,1
3672,54.96,33.96,-45.63,1
3673,54.97,43.43,-1.35,1
3674,54.98,-9.48,42.52,1
3675,55.0,-37.44,24.28,1
3676,55.01,-13.7,34.68,1
3677,55.03,-4.34,59.64,1
3678,55.04,-30.69,31.98,1
3679,55.05,-40.3,27.99,1
3680,55.06,-6.47,60.76,1
3681,55.08,29.83,60.19,1
3682,55.09,31.13,36.08,1
3683,55.11,15.6,11.42,1
3684,55.12,14.27,11.49,1
3685,55.13,30.25,52.36,1
3686,55.15,28.89,71.1,1
3687,55.16,-20.94,33.45,1
3688,55.17,-63.88,0.18,1
3689,55.19,-30.62,29.9,1
3690,55.2,24.78,74.79,1
3691,55.21,18.19,29.72,1
3692,55.22,-17.92,-43.6,1
3693,55.24,-20.31,-5.11,1
3694,55.25,-11.02,82.59,1
3695,55.27,-23.91,100.52,1
3696,55.28,-28.7,74.88,1
3697,55.29,-11.73,74.87,1
3698,55.31,-14.45,91.79,1
3699,55.32,-24.35,59.59,1
3700,55.33,8.14,-10.7,1
3701,55.35,42.43,-14.03,1
3702,55.36,21.12,38.55,1
3703,55.37,-17.82,23.45,1
3704,55.38,-22.51,-24.7,1
3705,55.4,-6.01,19.02,1
3706,55.41,1.71,101.17,1
3707,55.43,-0.24,81.75,1
3708,55.44,-5.42,-9.96,1
3709,55.45,-19.18,-18.22,1
3710,55.46,-24.39,53.59,1
3711,55.48,5.36,66.44,1
3712,55.49,33.05,23.67,1
3713,55.5,11.88,8.69,1
3714,55.52,-15.55,5.75,1
3715,55.53,6.3,-10.61,1
3716,55.54,31.59,-25.02,1
3717,55.56,-4.32,-42.34,1
3718,55.57,-53.09,-59.68,1
3719,55.58,-46.31,-32.58,1
3720,55.6,-18.15,49.94,1
3721,55.61,-8.14,90.22,1
3722,55.62,0.24,50.07,1
3723,55.64,16.39,49.44,1
3724,55.65,34.73,101.56,1
3725,55.66,28.99,74.3,1
3726,55.68,-16.6,-1.65,1
3727,55.69,-47.55,7.36,1
3728,55.71,-29.58,46.45,1
3729,55.72,-5.74,15.5,1
3730,55.73,1.31,-25.2,1
3731,55.75,6.65,-7.8,1
3732,55.76,6.84,26.08,1
3733,55.77,-5.24,16.9,1
3734,55.79,-18.18,-14.08,1
3735,55.8,-13.07,-3.53,1
3736,55.81,10.09,21.33,1
3737,55.83,16.33,2.2,1
3738,55.84,4.27,-14.09,1
3739,55.85,12.44,-10.92,1
3740,55.87,20.15,-28.55,1
3741,55.88,-1.79,-27.03,1
3742,55.89,-17.55,-9.07,1
3743,55.9,-8.14,-23.95,1
3744,55.92,3.06,-35.56,1
3745,55.93,3.09,-37.75,1
3746,55.95,-2.19,-64.96,1
3747,55.96,-2.9,-70.6,1
3748,55.97,-1.64,-20.26,1
3749,55.99,-10.52,27.39,1
3750,56.0,-16.51,31.0,1
3751,56.01,10.59,23.32,1
3752,56.03,43.21,15.59,1
3753,56.04,25.72,-27.91,1
3754,56.05,-8.43,-47.83,1
3755,56.06,-2.7,12.12,1
3756,56.08,11.16,28.84,1
3757,56.09,7.58,-50.53,1
3758,56.1,11.76,-94.28,1
3759,56.12,9.72,-43.16,1
3760,56.13,-17.89,15.41,1
3761,56.14,-17.51,17.53,1
3762,56.16,32.99,-9.03,0
3763,56.17,62.01,-67.58,0
3764,56.18,45.03,-161.66,0
3765,56.2,25.43,-216.69,0
3766,56.21,7.07,-210.4,0
3767,56.22,-22.98,-197.5,0
3768,56.24,-48.08,-195.78,0
3769,56.25,-40.88,-185.77,0
3770,56.26,0.98,-155.06,0
3771,56.28,41.05,-95.23,0
3772,56.29,50.14,-9.14,0
3773,56.3,37.8,81.18,0
3774,56.32,29.3,149.52,0
3775,56.33,29.39,165.55,0
3776,56.35,22.92,129.5,0
3777,56.36,9.45,99.66,0
3778,56.37,-5.4,103.81,0
3779,56.38,-23.41,106.88,0
3780,56.4,-30.64,96.53,0
3781,56.41,-16.37,93.04,0
3782,56.43,2.2,95.7,0
3783,56.44,8.32,84.29,0
3784,56.45,2.0,57.73,0
3785,56.47,-7.95,37.32,0
3786,56.48,-9.96,39.51,0
3787,56.49,-3.16,58.73,0
3788,56.51,-1.64,67.54,0
3789,56.52,-7.93,52.72,0
3790,56.53,-3.84,32.06,0
3791,56.54,8.61,18.3,0
3792,56.56,7.41,9.75,1
3793,56.57,-0.49,6.35,1
3794,56.59,0.05,7.76,1
3795,56.6,-3.31,10.51,1
3796,56.61,-11.71,4.69,1
3797,56.63,-3.99,-10.37,1
3798,56.64,12.12,-17.17,1
3799,56.65,7.66,-13.24,1
3800,56.67,-12.65,-16.82,1
3801,56.68,-23.6,-29.0,1
3802,56.69,-21.54,-29.79,1
3803,56.71,-14.08,-17.5,1
3804,56.72,-4.91,-15.25,1
3805,56.73,2.18,-27.36,1
3806,56.74,3.51,-35.36,1
3807,56.76,-4.45,-31.33,1
3808,56.77,-18.2,-21.62,1
3809,56.78,-26.74,-14.46,1
3810,56.8,-25.88,-11.6,1
3811,56.81,-17.09,-10.29,1
3812,56.82,-6.73,-10.55,1
3813,56.84,-2.55,-10.49,1
3814,56.85,-3.68,-5.62,1
3815,56.86,-7.06,-0.41,1
3816,56.88,-8.12,-1.74,1
3817,56.89,-2.27,-8.28,1
3818,56.9,2.47,-17.22,1
3819,56.92,1.24,-18.9,1
3820,56.93,1.62,-9.75,1
3821,56.94,1.89,-12.23,1
3822,56.96,-1.51,-26.73,1
3823,56.97,2.16,-18.28,1
3824,56.99,12.66,5.76,1
3825,57.0,8.97,5.21,1
3826,57.01,-10.13,-15.72,1
3827,57.03,-17.21,-26.51,1
3828,57.04,-6.67,-16.71,1
3829,57.05,-1.07,-2.23,1
3830,57.06,-5.27,-3.02,1
3831,57.08,-6.38,-11.98,1
3832,57.09,-1.77,-14.95,1
3833,57.11,0.39,-12.47,1
3834,57.12,-4.51,-5.4,1
3835,57.13,-7.19,-3.27,1
3836,57.15,2.06,-13.04,1
3837,57.16,12.34,-15.34,1
3838,57.17,10.32,-0.55,1
3839,57.19,5.53,8.43,1
3840,57.2,7.9,-3.05,1
3841,57.21,10.1,-15.36,1
3842,57.22,7.18,-9.46,1
3843,57.24,4.21,-1.76,1
3844,57.25,4.82,-4.27,1
3845,57.27,4.63,-1.52,1
3846,57.28,-1.35,2.04,1
3847,57.29,-5.08,-6.62,1
3848,57.31,4.16,-13.98,1
3849,57.32,15.8,-8.8,1
3850,57.33,9.39,2.27,1
3851,57.35,-9.24,7.83,1
3852,57.36,-14.51,3.53,1
3853,57.37,-1.21,0.58,1
3854,57.38,11.25,2.93,1
3855,57.4,12.15,0.19,1
3856,57.41,7.99,-5.51,1
3857,57.42,0.33,-4.37,1
3858,57.44,-9.91,6.27,1
3859,57.45,-11.13,16.22,1
3860,57.46,-3.3,8.44,1
3861,57.48,2.46,-2.33,1
3862,57.49,6.16,5.79,1
3863,57.5,10.02,11.11,1
3864,57.52,8.96,3.52,1
3865,57.53,4.79,2.71,1
3866,57.54,3.18,0.67,1
3867,57.56,-0.17,-11.59,1
3868,57.57,-5.72,-13.36,1
3869,57.58,-2.95,-7.83,1
3870,57.6,8.69,-18.24,1
3871,57.61,14.21,-31.69,1
3872,57.625,4.93,-24.08,1
3873,57.64,-2.19,0.99,1
3874,57.65,11.79,18.11,1
3875,57.67,22.12,3.74,1
3876,57.68,1.04,-23.55,1
3877,57.69,-15.33,-21.69,1
3878,57.71,1.95,5.46,1
3879,57.72,12.42,18.93,1
3880,57.73,-4.4,11.21,1
3881,57.75,-12.94,4.57,1
3882,57.76,0.62,5.66,1
3883,57.77,11.32,5.66,1
3884,57.79,5.18,-0.21,1
3885,57.8,-3.63,-5.0,1
3886,57.81,-4.14,3.98,1
3887,57.83,-2.71,13.59,1
3888,57.84,-1.01,4.72,1
3889,57.85,-0.61,-1.94,1
3890,57.87,-6.69,5.07,1
3891,57.88,-10.85,6.81,1
3892,57.89,-3.49,10.67,1
3893,57.9,6.43,19.83,1
3894,57.92,5.91,12.31,1
3895,57.93,-0.89,4.82,1
3896,57.95,1.24,20.69,1
3897,57.96,10.74,31.77,1
3898,57.97,9.19,14.03,1
3899,57.99,-4.21,-9.86,1
3900,58.0,-8.85,-3.44,1
3901,58.01,-2.24,23.46,1
3902,58.02,-1.14,22.17,1
3903,58.04,-2.16,-1.52,1
3904,58.05,4.79,-2.11,1
3905,58.06,5.29,9.35,1
3906,58.08,-12.79,4.64,1
3907,58.09,-29.76,-0.44,1
3908,58.1,-26.09,0.45,1
3909,58.12,-9.34,-8.57,1
3910,58.13,9.04,-12.33,1
3911,58.14,22.59,7.27,1
3912,58.16,23.41,25.32,0
3913,58.17,12.81,13.54,0
3914,58.18,1.15,-30.02,0
3915,58.2,-5.01,-86.36,0
3916,58.21,-1.5,-116.65,0
3917,58.22,13.72,-110.29,0
3918,58.24,29.76,-107.65,0
3919,58.25,27.6,-129.17,0
3920,58.26,11.09,-142.35,0
3921,58.28,9.99,-127.42,0
3922,58.29,31.11,-107.6,0
3923,58.31,40.27,-96.08,0
3924,58.32,23.36,-79.69,0
3925,58.33,11.7,-54.84,0
3926,58.35,20.7,-31.37,0
3927,58.36,28.33,-12.51,0
3928,58.37,17.01,7.98,0
3929,58.38,-3.96,31.53,0
3930,58.4,-16.55,59.7,0
3931,58.41,-19.83,97.98,0
3932,58.43,-21.1,131.64,0
3933,58.44,-20.67,140.46,0
3934,58.45,-18.52,135.09,0
3935,58.47,-14.69,132.61,0
3936,58.48,-7.89,133.94,0
3937,58.49,-7.29,140.48,0
3938,58.51,-17.78,149.79,0
3939,58.52,-26.67,153.34,0
3940,58.53,-35.68,150.01,0
3941,58.54,-51.45,139.29,0
3942,58.56,-55.01,127.37,1
3943,58.57,-41.91,126.19,1
3944,58.59,-31.63,123.07,1
3945,58.6,-23.36,106.09,1
3946,58.61,-10.9,93.95,1
3947,58.63,-6.48,91.37,1
3948,58.64,-7.2,82.39,1
3949,58.65,-0.72,68.75,1
3950,58.66,-1.12,55.18,1
3951,58.68,-15.52,37.75,1
3952,58.69,-20.06,24.6,1
3953,58.7,-8.5,23.06,1
3954,58.72,-1.28,22.89,1
3955,58.73,-5.21,11.34,1
3956,58.74,-11.26,-6.86,1
3957,58.76,-11.08,-11.14,1
3958,58.77,-4.2,0.71,1
3959,58.78,0.76,1.55,1
3960,58.8,-0.8,-16.21,1
3961,58.81,-1.73,-26.73,1
3962,58.82,0.32,-24.98,1
3963,58.84,-1.07,-26.98,1
3964,58.85,-2.05,-30.98,1
3965,58.86,1.33,-36.16,1
3966,58.88,0.87,-48.5,1
3967,58.89,1.5,-53.53,1
3968,58.9,12.57,-44.0,1
3969,58.92,19.78,-40.71,1
3970,58.93,12.98,-51.4,1
3971,58.95,6.84,-56.98,1
3972,58.96,8.93,-50.39,1
3973,58.97,10.61,-47.74,1
3974,58.99,7.27,-52.58,1
3975,59.0,3.18,-52.08,1
3976,59.01,7.31,-47.45,1
3977,59.03,14.2,-50.05,1
3978,59.04,6.85,-55.74,1
3979,59.05,-3.28,-52.39,1
3980,59.06,4.41,-46.99,1
3981,59.08,12.16,-51.69,1
3982,59.09,2.1,-53.64,1
3983,59.11,-8.1,-45.59,1
3984,59.12,-0.48,-44.25,1
3985,59.13,19.57,-50.49,1
3986,59.15,31.07,-49.48,1
3987,59.16,21.72,-44.87,1
3988,59.17,8.5,-44.66,1
3989,59.19,6.57,-46.32,1
3990,59.2,5.78,-50.9,1
3991,59.21,0.91,-53.78,1
3992,59.22,-0.99,-48.05,1
3993,59.24,-0.03,-42.93,1
3994,59.25,4.35,-43.32,1
3995,59.27,14.11,-43.96,1
3996,59.28,16.77,-43.72,1
3997,59.29,6.76,-39.68,1
3998,59.3,-0.06,-34.01,1
3999,59.32,1.84,-32.26,1
4000,59.33,5.24,-27.19,1
4001,59.34,6.58,-19.53,1
4002,59.36,3.84,-22.7,1
4003,59.37,2.28,-29.56,1
4004,59.38,4.03,-27.48,1
4005,59.4,5.33,-26.54,1
4006,59.41,14.54,-29.1,1
4007,59.42,27.47,-23.21,1
4008,59.44,19.62,-16.43,1
4009,59.45,-1.97,-17.64,1
4010,59.46,-6.23,-15.37,1
4011,59.48,3.62,-7.91,1
4012,59.49,2.75,-7.11,1
4013,59.5,-10.0,-13.04,1
4014,59.52,-17.03,-14.52,1
4015,59.53,-12.79,-2.83,1
4016,59.54,-10.59,11.13,1
4017,59.56,-15.12,5.68,1
4018,59.57,-10.87,-7.85,1
4019,59.59,2.9,-4.09,1
4020,59.6,7.93,6.11,1
4021,59.61,3.1,5.45,1
4022,59.63,3.35,-1.26,1
4023,59.64,8.15,-4.01,1
4024,59.65,6.7,5.61,1
4025,59.67,6.03,17.93,1
4026,59.68,14.99,16.35,1
4027,59.69,17.59,11.33,1
4028,59.71,1.99,12.03,1
4029,59.72,-11.08,6.96,1
4030,59.73,-1.07,0.85,1
4031,59.75,16.89,9.58,1
4032,59.76,16.58,24.47,1
4033,59.77,3.0,29.78,1
4034,59.79,-1.08,27.73,1
4035,59.8,4.19,24.42,1
4036,59.81,3.23,23.15,1
4037,59.83,-5.78,27.28,1
4038,59.84,-10.55,30.23,1
4039,59.85,-6.01,26.26,1
4040,59.87,-2.34,23.55,1
4041,59.88,-5.41,25.16,1
4042,59.89,-8.07,24.13,1
4043,59.9,-7.15,19.48,1
4044,59.92,-7.13,15.19,1
4045,59.93,-5.97,15.2,1
4046,59.94,-5.15,18.67,1
4047,59.96,-10.07,19.04,1
4048,59.97,-9.88,14.62,1
4049,59.98,2.39,9.18,1
4050,60.0,6.77,7.64,1
4051,60.01,-7.43,13.22,1
4052,60.02,-21.11,19.93,1
4053,60.04,-20.31,20.55,1
4054,60.05,-10.63,19.81,1
4055,60.06,-2.1,21.61,1
4056,60.08,-4.13,22.14,1
4057,60.09,-13.66,24.08,1
4058,60.1,-18.5,26.04,1
4059,60.12,-16.98,18.52,1
4060,60.13,-7.15,12.57,1
4061,60.14,10.91,21.04,1
4062,60.16,17.47,27.58,2
4063,60.17,5.29,32.35,2
4064,60.18,-2.83,76.59,2
4065,60.2,3.86,175.73,2
4066,60.21,13.59,280.48,2
4067,60.22,15.97,341.57,2
4068,60.24,5.62,355.24,2
4069,60.25,-15.08,315.63,2
4070,60.27,-27.74,217.09,2
4071,60.28,-12.99,108.56,2
4072,60.29,13.26,42.08,2
4073,60.31,14.71,3.44,2
4074,60.32,-4.25,-43.52,2
4075,60.33,-11.99,-100.75,2
4076,60.35,-7.26,-144.54,2
4077,60.36,-6.22,-165.56,2
4078,60.37,-11.36,-183.89,2
4079,60.38,-19.32,-205.77,2
4080,60.4,-22.13,-210.94,2
4081,60.41,-12.6,-198.98,2
4082,60.43,-1.09,-190.39,2
4083,60.44,4.33,-188.23,2
4084,60.45,9.16,-179.21,2
4085,60.47,11.55,-166.0,2
4086,60.48,10.84,-157.25,2
4087,60.49,12.89,-142.09,2
4088,60.51,12.1,-121.58,2
4089,60.52,8.0,-115.14,2
4090,60.53,12.07,-114.49,2
4091,60.54,15.85,-97.52,2
4092,60.56,3.92,-74.88,1
4093,60.57,-6.19,-63.42,1
4094,60.58,6.53,-57.83,1
4095,60.6,22.16,-54.16,1
4096,60.61,13.36,-52.66,1
4097,60.62,-7.16,-49.11,1
4098,60.64,-11.35,-40.12,1
4099,60.65,3.83,-21.48,1
4100,60.66,17.38,-2.29,1
4101,60.68,12.45,0.69,1
4102,60.69,0.99,1.23,1
4103,60.7,-1.18,17.95,1
4104,60.72,-1.31,31.09,1
4105,60.73,-6.46,25.18,1
4106,60.74,-9.6,15.18,1
4107,60.76,-6.85,11.69,1
4108,60.77,-2.14,16.34,1
4109,60.78,0.52,25.67,1
4110,60.8,0.01,27.76,1
4111,60.81,-2.27,29.08,1
4112,60.82,-4.66,41.81,1
4113,60.84,-3.63,43.39,1
4114,60.85,4.29,29.28,1
4115,60.865,11.54,35.74,1
4116,60.88,6.81,56.16,1
4117,60.89,-1.48,57.67,1
4118,60.9,-0.42,48.06,1
4119,60.92,-0.73,43.23,1
4120,60.93,-10.85,44.84,1
4121,60.95,-13.57,50.6,1
4122,60.96,-1.53,50.95,1
4123,60.97,7.58,44.82,1
4124,60.99,5.08,41.49,1
4125,61.0,2.03,42.34,1
4126,61.01,6.26,44.88,1
4127,61.03,9.69,42.22,1
4128,61.04,6.87,36.02,1
4129,61.05,5.81,42.63,1
4130,61.06,4.12,53.99,1
4131,61.08,-4.43,53.06,1
4132,61.09,-6.56,51.2,1
4133,61.11,0.96,52.77,1
4134,61.12,2.46,48.2,1
4135,61.13,-1.41,42.75,1
4136,61.15,-1.99,37.02,1
4137,61.16,-3.09,26.9,1
4138,61.17,-9.61,26.76,1
4139,61.19,-17.48,31.42,1
4140,61.2,-14.96,23.55,1
4141,61.21,-2.48,24.8,1
4142,61.22,3.18,39.23,1
4143,61.24,3.16,34.24,1
4144,61.25,12.07,18.84,1
4145,61.26,14.84,21.57,1
4146,61.28,-6.46,28.56,1
4147,61.29,-25.92,20.34,1
4148,61.3,-15.98,9.4,1
4149,61.32,4.43,9.53,1
4150,61.33,6.49,13.54,1
4151,61.34,-1.55,19.38,1
4152,61.36,0.09,26.63,1
4153,61.37,5.24,18.86,1
4154,61.38,2.94,8.05,1
4155,61.4,-2.79,22.87,1
4156,61.41,-1.52,41.19,1
4157,61.42,9.61,29.59,1
4158,61.44,9.79,6.43,1
4159,61.45,-10.71,0.25,1
4160,61.46,-19.62,0.19,1
4161,61.48,-4.38,-10.12,1
4162,61.49,4.93,-18.15,1
4163,61.5,-0.62,-10.72,1
4164,61.52,-3.62,2.78,1
4165,61.53,-3.37,4.58,1
4166,61.54,-8.93,-4.96,1
4167,61.56,-10.99,-9.26,1
4168,61.57,2.34,-3.2,1
4169,61.59,15.61,3.19,1
4170,61.6,11.12,-4.44,1
4171,61.61,1.95,-23.42,1
4172,61.63,4.08,-25.47,1
4173,61.64,8.33,-11.47,1
4174,61.65,1.4,-14.26,1
4175,61.67,-12.76,-25.19,1
4176,61.68,-18.24,-14.58,1
4177,61.69,-6.21,6.2,1
4178,61.71,6.21,11.24,1
4179,61.72,1.21,-3.09,1
4180,61.73,-2.45,-24.18,1
4181,61.75,4.7,-35.75,1
4182,61.76,-6.98,-30.09,1
4183,61.77,-29.38,-14.58,1
4184,61.79,-19.17,-5.48,1
4185,61.8,6.17,-13.41,1
4186,61.81,6.09,-21.1,1
4187,61.83,-2.3,-9.4,1
4188,61.84,3.09,-0.25,1
4189,61.85,8.57,-12.89,1
4190,61.86,2.67,-31.15,1
4191,61.88,-7.42,-40.85,1
4192,61.89,-8.09,-36.0,1
4193,61.9,-0.21,-20.39,1
4194,61.92,1.22,-12.07,1
4195,61.93,-3.21,-12.73,1
4196,61.94,-0.81,-14.41,1
4197,61.96,4.27,-19.55,1
4198,61.97,2.12,-23.27,1
4199,61.98,1.22,-17.16,1
4200,62.0,9.41,-7.38,1
4201,62.01,11.59,-2.71,1
4202,62.02,0.45,-4.96,1
4203,62.04,-1.09,-14.94,1
4204,62.05,14.32,-26.4,1
4205,62.06,23.42,-24.59,1
4206,62.08,17.86,-12.58,1
4207,62.09,8.03,-13.22,1
4208,62.1,-4.48,-25.67,1
4209,62.12,-19.97,-23.28,1
4210,62.13,-23.24,-4.83,1
4211,62.14,-5.83,3.69,1
4212,62.16,10.09,-14.53,2
4213,62.17,10.12,-60.51,2
4214,62.19,11.26,-95.78,2
4215,62.2,13.97,-67.15,2
4216,62.21,9.17,-14.66,2
4217,62.22,13.78,41.63,2
4218,62.24,19.07,220.83,2
4219,62.25,3.35,408.44,2
4220,62.27,1.6,264.26,2
4221,62.28,7.82,-35.42,2
4222,62.29,-36.89,-21.91,2
4223,62.31,-68.67,190.75,2
4224,62.32,-19.82,252.12,2
4225,62.33,-9.46,150.01,2
4226,62.35,-79.53,-21.47,2
4227,62.36,-83.53,-156.61,2
4228,62.37,-24.95,-102.54,2
4229,62.38,-13.84,84.61,2
4230,62.4,9.08,133.07,2
4231,62.41,80.31,-40.67,2
4232,62.43,73.24,-206.54,2
4233,62.44,-18.98,-200.21,2
4234,62.45,-33.6,-135.63,2
4235,62.47,36.55,-136.42,2
4236,62.48,45.16,-167.35,2
4237,62.49,-5.94,-209.85,2
4238,62.5,-2.06,-236.63,2
4239,62.52,49.77,-168.95,2
4240,62.53,63.36,-126.23,2
4241,62.54,46.8,-189.98,2
4242,62.56,42.44,-141.33,1
4243,62.57,32.09,9.84,1
4244,62.58,22.21,13.82,1
4245,62.6,30.16,-75.04,1
4246,62.61,22.47,-112.53,1
4247,62.62,-1.78,-114.28,1
4248,62.64,-6.75,-57.99,1
4249,62.65,10.77,42.8,1
4250,62.66,32.66,31.77,1
4251,62.68,37.32,-112.17,1
4252,62.69,21.81,-155.9,1
4253,62.7,1.01,-8.65,1
4254,62.72,-5.37,97.14,1
4255,62.73,22.27,13.58,1
4256,62.74,33.03,-108.33,1
4257,62.76,-22.01,-99.99,1
4258,62.77,-56.7,-6.98,1
4259,62.78,-12.92,39.66,1
4260,62.8,27.39,38.89,1
4261,62.81,9.67,56.35,1
4262,62.82,-23.22,83.34,1
4263,62.84,-17.55,85.24,1
4264,62.85,18.84,41.95,1
4265,62.87,20.31,-30.42,1
4266,62.88,-19.74,-30.27,1
4267,62.89,-30.66,60.64,1
4268,62.9,-9.09,77.41,1
4269,62.92,-9.67,-28.03,1
4270,62.93,-26.74,-93.21,1
4271,62.95,-22.68,-26.74,1
4272,62.96,0.29,92.08,1
4273,62.97,6.9,130.98,1
4274,62.99,-16.61,56.61,1
4275,63.0,-31.3,-8.11,1
4276,63.01,-4.96,32.79,1
4277,63.03,21.7,84.73,1
4278,63.04,-9.71,49.67,1
4279,63.05,-67.2,26.14,1
4280,63.06,-59.87,80.87,1
4281,63.08,5.83,109.17,1
4282,63.09,23.8,83.83,1
4283,63.11,-20.64,66.85,1
4284,63.12,-41.44,74.31,1
4285,63.13,-28.02,99.87,1
4286,63.14,-30.03,102.86,1
4287,63.16,-42.73,89.22,1
4288,63.17,-39.29,117.16,1
4289,63.18,-23.1,128.1,1
4290,63.2,-9.24,53.05,1
4291,63.21,-12.98,-37.02,1
4292,63.22,-30.14,-41.47,1
4293,63.24,-27.26,48.59,1
4294,63.25,0.71,119.96,1
4295,63.26,24.26,79.72,1
4296,63.28,29.54,11.33,1
4297,63.29,15.92,19.82,1
4298,63.3,-1.62,51.27,1
4299,63.32,-0.87,20.6,1
4300,63.33,9.05,-41.73,1
4301,63.34,6.49,-69.79,1
4302,63.36,-1.26,-48.18,1
4303,63.37,1.4,0.57,1
4304,63.38,-0.22,38.07,1
4305,63.4,-13.2,62.26,1
4306,63.41,-10.13,88.63,1
4307,63.42,-0.41,79.14,1
4308,63.44,-15.4,22.2,1
4309,63.45,-31.59,-2.4,1
4310,63.46,-21.05,48.41,1
4311,63.48,-0.41,79.51,1
4312,63.49,6.5,20.37,1
4313,63.51,4.63,-23.9,1
4314,63.52,21.99,20.88,1
4315,63.53,44.9,49.19,1
4316,63.54,21.85,1.89,1
4317,63.56,-28.1,-21.27,1
4318,63.57,-31.02,6.28,1
4319,63.59,14.69,-4.71,1
4320,63.6,42.92,-27.46,1
4321,63.61,28.39,3.96,1
4322,63.63,19.26,14.77,1
4323,63.64,41.5,-41.46,1
4324,63.65,37.86,-81.08,1
4325,63.67,-11.7,-62.5,1
4326,63.68,-28.79,-40.09,1
4327,63.69,13.26,-32.93,1
4328,63.71,37.57,-1.94,1
4329,63.72,8.28,36.21,1
4330,63.73,-12.91,20.05,1
4331,63.75,6.51,-40.51,1
4332,63.76,9.76,-78.77,1
4333,63.77,-18.42,-57.6,1
4334,63.78,-18.98,-24.01,1
4335,63.8,7.26,-34.9,1
4336,63.81,21.62,-57.28,1
4337,63.82,25.75,-57.28,1
4338,63.84,21.58,-36.61,1
4339,63.85,14.79,5.8,1
4340,63.86,14.43,35.02,1
4341,63.88,8.8,14.73,1
4342,63.89,-2.04,-22.06,1
4343,63.9,-10.46,-21.35,1
4344,63.92,-4.85,-15.8,1
4345,63.93,24.67,-71.05,1
4346,63.94,36.17,-108.02,1
4347,63.96,3.66,-20.88,1
4348,63.97,-17.61,67.93,1
4349,63.98,-0.7,25.34,1
4350,64.0,17.17,-53.61,1
4351,64.01,12.17,-76.18,1
4352,64.02,-9.87,-46.29,1
4353,64.04,-16.26,8.82,1
4354,64.05,17.36,20.35,1
4355,64.06,41.66,-12.47,1
4356,64.08,5.9,-19.21,1
4357,64.09,-35.87,-6.51,1
4358,64.1,-26.7,-32.01,1
4359,64.12,-6.39,-91.08,1
4360,64.13,-9.13,-86.27,1
4361,64.14,-12.2,26.58,1
4362,64.16,3.27,100.23,0
4363,64.17,24.2,22.88,0
4364,64.18,11.08,-59.82,0
4365,64.2,-34.88,-14.44,0
4366,64.21,-46.97,46.38,0
4367,64.22,-13.1,19.95,0
4368,64.24,5.75,-14.68,0
4369,64.25,-2.58,1.69,0
4370,64.26,-0.81,16.48,0
4371,64.28,16.76,-15.95,0
4372,64.29,27.26,-91.02,0
4373,64.3,25.63,-156.84,0
4374,64.32,18.67,-142.75,0
4375,64.33,4.36,-69.97,0
4376,64.34,-5.77,-20.08,0
4377,64.36,-5.33,5.98,0
4378,64.37,-14.4,31.1,0
4379,64.38,-24.38,25.2,0
4380,64.4,-14.2,-6.02,0
4381,64.41,-4.65,-19.06,0
4382,64.42,-6.75,-1.68,0
4383,64.44,2.59,29.06,0
4384,64.45,20.51,41.92,0
4385,64.46,20.42,31.74,0
4386,64.48,7.97,31.84,0
4387,64.49,4.93,50.38,0
4388,64.5,3.35,60.87,0
4389,64.52,-9.6,60.02,0
4390,64.53,-19.26,65.57,0
4391,64.54,-11.9,72.14,0
4392,64.56,-1.97,63.19,1
4393,64.57,-6.64,43.35,1
4394,64.58,-17.45,35.02,1
4395,64.6,-19.36,54.91,1
4396,64.61,-11.77,85.32,1
4397,64.62,-2.18,86.77,1
4398,64.64,0.44,50.6,1
4399,64.65,-7.94,14.7,1
4400,64.66,-14.85,14.23,1
4401,64.68,-8.24,31.27,1
4402,64.69,-1.36,25.45,1
4403,64.7,-6.43,5.08,1
4404,64.72,-12.18,7.24,1
4405,64.73,-9.39,23.1,1
4406,64.74,0.09,17.8,1
4407,64.76,7.58,-1.53,1
4408,64.77,1.74,-7.06,1
4409,64.79,-8.15,0.79,1
4410,64.8,-2.43,5.17,1
4411,64.81,11.92,-2.04,1
4412,64.82,12.13,-14.97,1
4413,64.84,-1.07,-15.69,1
4414,64.85,-4.08,-1.87,1
4415,64.86,5.05,5.66,1
4416,64.88,2.94,-2.98,1
4417,64.89,-8.1,-20.94,1
4418,64.9,-3.79,-30.23,1
4419,64.92,10.95,-19.42,1
4420,64.93,14.13,-11.96,1
4421,64.94,9.04,-22.42,1
4422,64.96,6.92,-25.21,1
4423,64.97,-0.11,-13.33,1
4424,64.98,-13.26,-7.61,1
4425,65.0,-17.53,-10.69,1
4426,65.01,-7.78,-14.56,1
4427,65.02,9.61,-17.2,1
4428,65.04,25.08,-16.12,1
4429,65.05,25.88,-9.8,1
4430,65.06,9.04,-0.01,1
4431,65.08,-5.11,5.7,1
4432,65.09,-1.34,-4.05,1
4433,65.1,3.59,-19.06,1
4434,65.12,-5.58,-15.89,1
4435,65.13,-14.14,-4.43,1
4436,65.14,-5.82,-8.58,1
4437,65.16,7.82,-23.92,1
4438,65.17,6.9,-35.1,1
4439,65.18,-5.25,-36.03,1
4440,65.2,-15.27,-24.53,1
4441,65.21,-15.68,-8.31,1
4442,65.22,-3.04,-6.57,1
4443,65.24,12.33,-23.69,1
4444,65.25,12.59,-36.95,1
4445,65.26,-4.12,-27.86,1
4446,65.28,-18.12,-7.51,1
4447,65.29,-11.47,-0.15,1
4448,65.3,5.65,-12.23,1
4449,65.32,12.08,-23.94,1
4450,65.33,5.98,-19.58,1
4451,65.34,-2.26,-10.27,1
4452,65.36,-5.09,-6.64,1
4453,65.37,-0.76,-3.51,1
4454,65.38,5.26,-1.53,1
4455,65.4,5.73,-1.85,1
4456,65.41,4.31,-2.7,1
4457,65.42500000000001,7.92,-7.65,1
4458,65.44,8.32,-7.97,1
4459,65.45,-0.03,-0.19,1
4460,65.46,-2.72,-3.64,1
4461,65.48,4.61,-16.61,1
4462,65.49,4.97,-16.58,1
4463,65.5,-1.48,-7.34,1
4464,65.52,1.24,-5.47,1
4465,65.53,7.57,-7.97,1
4466,65.54,7.93,-3.96,1
4467,65.56,6.8,5.51,1
4468,65.57,6.32,7.04,1
4469,65.58,8.85,-4.92,1
4470,65.6,9.53,-13.71,1
4471,65.61,-2.3,-8.57,1
4472,65.62,-14.13,-3.79,1
4473,65.64,-11.48,-2.81,1
4474,65.65,-4.12,5.3,1
4475,65.66,0.1,11.0,1
4476,65.68,-0.07,3.1,1
4477,65.69,-5.39,-4.5,1
4478,65.7,-6.01,-3.46,1
4479,65.72,1.88,-0.53,1
4480,65.73,5.8,3.05,1
4481,65.74,4.4,6.59,1
4482,65.76,9.32,11.75,1
4483,65.77,15.38,20.61,1
4484,65.78,8.45,17.76,1
4485,65.8,-5.41,3.46,1
4486,65.81,-12.36,1.12,1
4487,65.82,-10.99,4.95,1
4488,65.84,-5.39,-0.84,1
4489,65.85,0.86,-3.68,1
4490,65.86,4.83,1.89,1
4491,65.88,2.94,7.51,1
4492,65.89,-3.83,18.97,1
4493,65.9,-6.01,31.29,1
4494,65.92,-3.86,21.84,1
4495,65.93,-7.96,-2.42,1
4496,65.94,-14.98,-8.59,1
4497,65.96,-12.01,1.79,1
4498,65.97,-1.55,1.53,1
4499,65.98,2.34,-2.0,1
4500,66.0,-0.86,7.43,1
4501,66.01,-0.27,9.99,1
4502,66.02,3.86,-0.64,1
4503,66.04,2.99,-3.26,1
4504,66.05,-2.4,-1.2,1
4505,66.06,-2.49,-5.13,1
4506,66.08,0.99,-3.53,1
4507,66.09,-6.95,2.37,1
4508,66.11,-17.26,-0.66,1
4509,66.12,-5.51,4.31,1
4510,66.13,13.52,32.93,1
4511,66.14,16.25,46.86,1
4512,66.16,11.44,8.16,0
4513,66.17,5.66,-58.27,0
4514,66.18,-2.71,-106.78,0
4515,66.2,-3.62,-115.0,0
4516,66.21,2.03,-96.35,0
4517,66.22,1.84,-86.95,0
4518,66.24,4.35,-89.35,0
4519,66.25,19.93,-78.01,0
4520,66.26,31.4,-58.05,0
4521,66.28,33.25,-49.53,0
4522,66.29,40.88,-47.53,0
4523,66.3,43.06,-39.36,0
4524,66.32,22.28,-28.12,0
4525,66.33,3.26,-22.46,0
4526,66.34,9.03,-17.13,0
4527,66.36,10.95,-0.9,0
4528,66.37,-11.67,15.82,0
4529,66.38,-24.61,22.84,0
4530,66.4,-8.23,41.4,0
4531,66.41,2.62,72.2,0
4532,66.42,-9.08,80.61,0
4533,66.44,-14.72,69.66,0
4534,66.45,-7.91,74.23,0
4535,66.46,-13.17,95.25,0
4536,66.48,-26.99,108.57,0
4537,66.49,-28.85,110.03,0
4538,66.5,-21.28,113.95,0
4539,66.52,-15.97,119.35,0
4540,66.53,-18.3,116.04,0
4541,66.54,-30.28,118.67,0
4542,66.56,-40.2,139.04,1
4543,66.57,-30.7,147.48,1
4544,66.58,-10.64,125.6,1
4545,66.6,-6.16,104.89,1
4546,66.61,-15.11,101.58,1
4547,66.62,-14.95,84.68,1
4548,66.64,-7.92,48.52,1
4549,66.65,-7.94,31.64,1
4550,66.66,-9.38,43.95,1
4551,66.68,-5.27,58.78,1
4552,66.69,-2.11,60.11,1
4553,66.7,-4.95,49.05,1
4554,66.72,-7.76,37.02,1
4555,66.73,-4.72,32.0,1
4556,66.75,-2.8,24.3,1
4557,66.76,-5.89,12.18,1
4558,66.77,-2.76,9.47,1
4559,66.79,9.9,10.18,1
4560,66.8,15.73,0.06,1
4561,66.81,9.03,-10.39,1
4562,66.82,4.34,-13.48,1
4563,66.84,7.22,-20.21,1
4564,66.85,9.06,-31.1,1
4565,66.86,7.55,-35.35,1
4566,66.88,6.22,-32.2,1
4567,66.89,3.49,-28.3,1
4568,66.9,-0.35,-30.1,1
4569,66.92,2.27,-42.75,1
4570,66.93,7.87,-58.18,1
4571,66.94,6.98,-62.0,1
4572,66.96,5.69,-55.07,1
4573,66.97,10.99,-48.36,1
4574,66.98,14.3,-45.58,1
4575,67.0,7.58,-44.06,1
4576,67.01,-2.99,-44.84,1
4577,67.02,-6.59,-50.5,1
4578,67.04,1.51,-54.13,1
4579,67.05,14.4,-50.34,1
4580,67.06,15.62,-50.86,1
4581,67.08,1.08,-58.47,1
4582,67.09,-11.82,-58.65,1
4583,67.1,-13.71,-52.93,1
4584,67.12,-9.84,-53.84,1
4585,67.13,1.13,-57.5,1
4586,67.14,13.72,-57.29,1
4587,67.16,13.0,-53.16,1
4588,67.17,4.58,-46.66,1
4589,67.18,5.3,-47.83,1
4590,67.2,13.89,-58.33,1
4591,67.21,19.19,-59.14,1
4592,67.22,18.67,-45.65,1
4593,67.24,17.32,-38.2,1
4594,67.25,13.07,-43.35,1
4595,67.26,2.87,-48.01,1
4596,67.28,-2.33,-46.78,1
4597,67.29,2.22,-43.09,1
4598,67.3,2.98,-39.08,1
4599,67.32,-3.86,-36.35,1
4600,67.33,-9.3,-34.04,1
4601,67.34,-9.48,-27.81,1
4602,67.36,-5.28,-18.37,1
4603,67.37,-0.06,-15.23,1
4604,67.38,3.02,-21.29,1
4605,67.4,6.17,-25.1,1
4606,67.41,7.14,-19.57,1
4607,67.43,1.38,-14.84,1
4608,67.44,-2.73,-19.33,1
4609,67.45,0.38,-23.6,1
4610,67.46,2.58,-20.0,1
4611,67.48,4.96,-13.51,1
4612,67.49,12.57,-7.25,1
4613,67.5,12.05,-2.62,1
4614,67.52,-1.32,0.01,1
4615,67.53,-8.84,2.31,1
4616,67.54,-3.86,-0.64,1
4617,67.56,3.38,-7.75,1
4618,67.57,5.35,-8.01,1
4619,67.58,0.51,-2.06,1
4620,67.6,-2.56,2.81,1
4621,67.61,-1.31,7.83,1
4622,67.62,-4.13,10.97,1
4623,67.64,-4.1,7.2,1
4624,67.65,1.18,1.95,1
4625,67.66,-3.24,1.67,1
4626,67.68,-10.6,7.19,1
4627,67.69,-7.41,13.55,1
4628,67.7,-1.74,12.99,1
4629,67.72,2.82,10.81,1
4630,67.73,6.42,13.6,1
4631,67.74,1.84,12.06,1
4632,67.76,-4.55,5.69,1
4633,67.77,-2.41,6.02,1
4634,67.78,1.1,10.55,1
4635,67.8,-2.1,11.86,1
4636,67.81,-5.19,11.89,1
4637,67.82,-2.18,12.21,1
4638,67.84,-0.6,12.78,1
4639,67.85,-2.34,18.44,1
4640,67.86,2.53,28.51,1
4641,67.88,8.59,30.17,1
4642,67.89,2.82,19.4,1
4643,67.9,-4.52,11.53,1
4644,67.92,0.75,15.16,1
4645,67.93,9.26,19.84,1
4646,67.94,9.21,18.72,1
4647,67.96,3.83,19.13,1
4648,67.97,0.24,25.77,1
4649,67.98,-0.9,29.58,1
4650,68.0,-1.32,24.21,1
4651,68.01,3.69,19.87,1
4652,68.02,13.1,21.45,1
4653,68.04,10.69,20.96,1
4654,68.05,-5.03,20.84,1
4655,68.06,-11.95,23.27,1
4656,68.08,-7.26,20.5,1
4657,68.09,-12.74,16.89,1
4658,68.11,-23.55,19.97,1
4659,68.12,-13.65,19.63,1
4660,68.13,6.72,14.46,1
4661,68.14,9.96,21.67,1
4662,68.16,2.98,52.59,2
4663,68.17,1.31,115.75,2
4664,68.18,-1.31,209.68,2
4665,68.2,-5.92,292.42,2
4666,68.21,-1.49,321.68,2
4667,68.22,4.76,298.98,2
4668,68.24,-5.27,236.67,2
4669,68.25,-27.99,153.36,2
4670,68.26,-39.65,87.53,2
4671,68.28,-29.85,48.31,2
4672,68.29,-17.15,8.9,2
4673,68.3,-15.3,-36.04,2
4674,68.32,-12.8,-74.73,2
4675,68.33,-8.88,-110.66,2
4676,68.34,-17.13,-143.86,2
4677,68.36,-22.09,-164.57,2
4678,68.37,-0.87,-178.77,2
4679,68.38,19.21,-201.96,2
4680,68.4,7.82,-223.88,2
4681,68.41,-1.29,-216.63,2
4682,68.42,23.31,-187.33,2
4683,68.44,43.25,-163.53,2
4684,68.45,23.1,-145.5,2
4685,68.46,-2.4,-133.1,2
4686,68.48,2.79,-137.1,2
4687,68.49,16.96,-137.62,2
4688,68.5,14.4,-112.72,2
4689,68.52,4.7,-84.07,2
4690,68.53,4.51,-69.79,2
4691,68.54,17.32,-59.07,2
4692,68.56,33.47,-55.76,1
4693,68.57,35.52,-59.8,1
4694,68.58,21.4,-47.39,1
4695,68.6,18.22,-25.06,1
4696,68.61,35.3,-25.16,1
4697,68.62,35.26,-39.3,1
4698,68.64,2.25,-31.91,1
4699,68.65,-22.99,-1.59,1
4700,68.66,-14.84,19.49,1
4701,68.68,1.4,17.23,1
4702,68.69,2.92,15.19,1
4703,68.7,-3.95,17.76,1
4704,68.72,-6.88,6.12,1
4705,68.73,-1.67,-0.39,1
4706,68.75,5.58,14.64,1
4707,68.76,5.69,28.15,1
4708,68.77,-1.22,30.7,1
4709,68.79,-8.97,29.19,1
4710,68.8,-12.9,27.1,1
4711,68.81,-10.9,32.94,1
4712,68.82,-4.36,40.79,1
4713,68.84,1.58,39.39,1
4714,68.85,0.96,40.59,1
4715,68.86,-9.33,49.38,1
4716,68.88,-22.04,49.17,1
4717,68.89,-23.32,40.55,1
4718,68.9,-14.08,35.59,1
4719,68.92,-4.67,37.85,1
4720,68.93,1.97,49.87,1
4721,68.94,0.9,57.97,1
4722,68.96,-10.74,48.44,1
4723,68.97,-18.06,37.24,1
4724,68.98,-11.34,34.42,1
4725,69.0,-3.12,34.59,1
4726,69.01,-5.87,44.07,1
4727,69.02,-11.27,53.27,1
4728,69.04,-8.15,42.63,1
4729,69.05,-2.51,31.9,1
4730,69.06,-1.92,38.22,1
4731,69.08,-1.55,36.38,1
4732,69.09,2.49,22.5,1
4733,69.1,4.24,24.66,1
4734,69.12,-0.25,37.71,1
4735,69.13,-6.76,35.43,1
4736,69.14,-11.31,25.52,1
4737,69.16,-9.51,27.78,1
4738,69.17,-0.66,38.86,1
4739,69.18,8.92,45.09,1
4740,69.2,13.63,40.56,1
4741,69.21,8.05,30.93,1
4742,69.22,-9.53,20.11,1
4743,69.24,-25.5,5.4,1
4744,69.25,-25.46,-2.52,1
4745,69.26,-11.88,7.52,1
4746,69.28,3.15,19.39,1
4747,69.29,10.03,16.25,1
4748,69.3,6.21,12.54,1
4749,69.32,-2.26,23.12,1
4750,69.33,-7.55,27.86,1
4751,69.34,-8.7,12.91,1
4752,69.36,-6.3,7.05,1
4753,69.37,0.85,25.6,1
4754,69.38,7.43,35.2,1
4755,69.4,6.9,15.13,1
4756,69.41,2.27,-4.06,1
4757,69.43,-0.81,1.18,1
4758,69.44,-3.57,12.41,1
4759,69.45,-4.97,13.84,1
4760,69.46,-1.9,6.61,1
4761,69.48,0.32,-4.56,1
4762,69.49,-3.12,-6.83,1
4763,69.5,-5.67,-1.79,1
4764,69.52,-4.5,-8.69,1
4765,69.53,-5.4,-18.54,1
4766,69.54,-5.56,-6.5,1
4767,69.56,3.53,16.24,1
4768,69.57,17.15,23.17,1
4769,69.58,17.96,9.21,1
4770,69.6,3.98,-12.26,1
4771,69.61,-5.32,-21.13,1
4772,69.62,-2.52,-13.96,1
4773,69.64,4.14,-6.99,1
4774,69.65,12.66,-6.31,1
4775,69.66,20.51,-6.52,1
4776,69.68,17.24,-9.37,1
4777,69.69,4.17,-17.67,1
4778,69.7,-1.54,-26.19,1
4779,69.72,3.12,-29.31,1
4780,69.73,2.81,-24.6,1
4781,69.74,-2.77,-10.42,1
4782,69.76,-0.77,3.12,1
4783,69.77,4.2,-2.76,1
4784,69.78,1.73,-20.74,1
4785,69.8,-2.2,-23.32,1
4786,69.81,1.81,-14.12,1
4787,69.82,9.54,-20.18,1
4788,69.84,6.7,-37.64,1
4789,69.85,-3.19,-29.37,1
4790,69.86,-4.08,3.75,1
4791,69.88,-2.0,11.6,1
4792,69.89,-6.14,-7.52,1
4793,69.9,-4.64,-15.4,1
4794,69.92,7.76,-16.94,1
4795,69.93,16.76,-20.4,1
4796,69.94,14.71,-17.16,1
4797,69.96,8.52,-14.15,1
4798,69.97,1.15,-9.73,1
4799,69.98,-6.75,-5.25,1
4800,70.0,-6.54,-14.83,1
4801,70.01,0.76,-26.28,1
4802,70.02,2.62,-21.89,1
4803,70.04,2.26,-14.85,1
4804,70.05,8.19,-16.63,1
4805,70.06,7.32,-15.26,1
4806,70.08,-8.84,-4.96,1
4807,70.09,-22.64,0.83,1
4808,70.11,-15.89,-10.45,1
4809,70.12,3.68,-29.81,1
4810,70.13,9.21,-26.65,1
4811,70.14,-4.1,-4.01,1
4812,70.16,-12.97,-9.03,2
4813,70.17,-10.95,-40.5,2
4814,70.18,-4.57,-45.25,2
4815,70.2,9.85,-23.05,2
4816,70.21,23.65,-25.15,2
4817,70.22,20.14,-47.33,2
4818,70.24,10.83,-6.46,2
4819,70.25,13.91,137.16,2
4820,70.26,15.87,216.98,2
4821,70.28,7.0,57.91,2
4822,70.29,4.16,-106.84,2
4823,70.3,11.85,37.7,2
4824,70.32,25.21,327.18,2
4825,70.33,30.37,440.71,2
4826,70.34,-10.06,364.25,2
4827,70.36,-64.6,270.61,2
4828,70.37,-45.3,227.57,2
4829,70.38,24.15,170.38,2
4830,70.4,29.86,93.15,2
4831,70.41,-42.18,41.09,2
4832,70.42,-70.88,-0.5,2
4833,70.44,-8.67,-63.51,2
4834,70.45,30.77,-146.72,2
4835,70.46,-0.65,-222.53,2
4836,70.48,-12.38,-288.38,2
4837,70.49,28.09,-337.61,2
