,Timestamp,Data1,Data2,Label
0,6.0,2.68,7.34,1
1,6.01,-3.7,-2.87,1
2,6.03,-8.75,-11.36,1
3,6.04,-9.57,0.81,1
4,6.05,-7.31,16.44,1
5,6.07,-0.74,8.63,1
6,6.08,6.39,-3.49,1
7,6.09,4.75,9.9,1
8,6.11,-3.84,25.57,1
9,6.12,-8.95,15.73,1
10,6.13,-5.04,3.56,1
11,6.15,5.73,8.51,2
12,6.16,14.66,6.79,2
13,6.17,17.72,-11.95,2
14,6.19,23.94,2.65,2
15,6.2,27.21,89.62,2
16,6.21,7.87,177.48,2
17,6.23,-14.52,163.56,2
18,6.24,-6.89,64.21,2
19,6.25,19.43,38.11,2
20,6.265,25.31,152.9,2
21,6.28,-0.66,171.19,2
22,6.29,-16.89,18.37,2
23,6.31,4.53,3.38,2
24,6.32,30.38,96.6,2
25,6.33,25.29,35.24,2
26,6.35,-4.28,16.75,2
27,6.36,-24.0,172.33,2
28,6.37,-25.08,172.16,2
29,6.39,-31.48,-30.66,2
30,6.4,-41.19,-76.42,2
31,6.41,-30.29,72.26,2
32,6.43,-4.85,98.29,2
33,6.44,7.75,-33.56,2
34,6.45,3.8,-69.09,2
35,6.47,-7.17,12.07,2
36,6.48,-25.94,22.52,2
37,6.49,-39.4,-55.52,2
38,6.51,-26.98,-96.87,2
39,6.52,-0.26,-68.1,2
40,6.53,13.23,-22.06,2
41,6.55,4.41,-14.52,2
42,6.56,-13.15,-75.96,1
43,6.57,-14.33,-136.89,1
44,6.59,5.7,-106.03,1
45,6.6,19.36,-54.3,1
46,6.61,10.34,-92.28,1
47,6.63,-1.0,-160.66,1
48,6.64,-4.19,-180.49,1
49,6.65,-15.33,-209.38,1
50,6.67,-21.92,-244.33,1
51,6.68,-5.49,-204.52,1
52,6.69,4.77,-172.87,1
53,6.71,-0.87,-195.47,1
54,6.72,9.58,-144.39,1
55,6.73,21.16,-58.84,1
56,6.75,-1.03,-46.02,1
57,6.76,-22.09,-47.34,1
58,6.77,-7.38,-49.5,1
59,6.79,7.61,-68.97,1
60,6.8,-0.31,-73.1,1
61,6.81,-1.24,-100.58,1
62,6.82,18.96,-132.59,1
63,6.84,29.54,-86.73,1
64,6.85,12.99,-28.63,1
65,6.86,-1.83,-20.05,1
66,6.88,1.16,-10.54,1
67,6.89,4.4,-12.3,1
68,6.91,3.4,-54.32,1
69,6.92,0.56,-98.5,1
70,6.93,-7.76,-109.62,1
71,6.95,-12.75,-73.01,1
72,6.96,-4.69,-19.87,1
73,6.97,8.44,7.61,1
74,6.99,10.28,20.39,1
75,7.0,-1.83,-3.19,1
76,7.01,-7.06,-61.55,1
77,7.03,8.32,-57.38,1
78,7.04,20.42,0.32,1
79,7.05,7.47,39.35,1
80,7.07,-7.94,68.67,1
81,7.08,3.85,63.82,1
82,7.09,25.96,30.78,1
83,7.11,22.5,35.43,1
84,7.12,4.52,49.18,1
85,7.13,5.3,35.96,1
86,7.15,19.58,32.8,1
87,7.16,23.51,56.14,1
88,7.17,12.84,85.67,1
89,7.19,-2.78,95.84,1
90,7.2,-8.53,82.43,1
91,7.21,-1.47,62.38,1
92,7.23,-3.0,42.91,1
93,7.24,-16.79,30.98,1
94,7.25,-11.03,46.08,1
95,7.27,14.54,62.3,1
96,7.28,18.58,32.19,1
97,7.29,1.43,19.11,1
98,7.31,-1.19,73.02,1
99,7.32,9.36,96.11,1
100,7.33,7.1,66.28,1
101,7.35,-10.56,64.45,1
102,7.36,-22.76,73.41,1
103,7.37,-13.74,50.26,1
104,7.39,3.84,39.53,1
105,7.4,2.45,65.25,1
106,7.41,-13.35,67.3,1
107,7.43,-11.95,32.0,1
108,7.44,5.17,42.17,1
109,7.45,8.83,109.54,1
110,7.47,-1.71,139.76,1
111,7.48,-2.98,114.14,1
112,7.49,9.35,99.8,1
113,7.51,16.57,101.29,1
114,7.52,13.79,81.21,1
115,7.53,13.32,56.23,1
116,7.55,9.41,55.42,1
117,7.56,-7.81,72.47,1
118,7.57,-19.17,73.31,1
119,7.59,-12.28,28.59,1
120,7.6,-4.67,-8.46,1
121,7.61,-3.91,35.79,1
122,7.63,-4.54,96.34,1
123,7.64,-9.77,57.66,1
124,7.65,-14.66,-30.39,1
125,7.67,-8.01,-17.33,1
126,7.68,1.52,83.13,1
127,7.69,4.38,111.59,1
128,7.71,8.39,44.73,1
129,7.72,12.01,-0.35,1
130,7.73,6.51,7.53,1
131,7.75,-0.47,30.55,1
132,7.76,-4.6,51.0,1
133,7.77,-14.04,24.36,1
134,7.79,-19.29,-32.88,1
135,7.8,-0.85,-18.81,1
136,7.81,21.79,49.36,1
137,7.83,9.75,65.82,1
138,7.84,-20.69,22.38,1
139,7.85,-21.06,-7.44,1
140,7.87,2.02,14.93,1
141,7.88,6.64,28.51,1
142,7.89,-8.52,-13.54,1
143,7.91,-17.1,-40.34,1
144,7.92,-11.27,-12.94,1
145,7.93,-4.75,10.27,1
146,7.95,-7.61,4.01,1
147,7.96,-4.74,-17.11,1
148,7.97,15.45,-45.76,1
149,7.99,30.52,-46.05,1
150,8.0,14.27,13.28,1
151,8.01,-18.69,62.3,1
152,8.03,-22.99,15.55,1
153,8.04,5.35,-35.32,1
154,8.05,18.51,7.24,1
155,8.07,2.6,46.07,1
156,8.08,-11.2,7.36,1
157,8.09,-10.15,-54.0,1
158,8.1,1.01,-74.13,1
159,8.12,12.64,-30.07,1
160,8.13,5.01,27.84,1
161,8.15,-11.89,25.9,0
162,8.16,-11.12,-14.09,0
163,8.17,-9.89,-21.74,0
164,8.19,-24.12,-41.36,0
165,8.2,-24.81,-140.78,0
166,8.21,-4.62,-218.28,0
167,8.23,7.61,-173.58,0
168,8.24,3.02,-94.42,0
169,8.25,-5.38,-79.24,0
170,8.27,-7.44,-100.73,0
171,8.28,4.32,-111.7,0
172,8.29,24.71,-113.95,0
173,8.31,30.19,-111.12,0
174,8.32,16.85,-82.03,0
175,8.33,9.05,-24.31,0
176,8.35,6.59,21.81,0
177,8.36,-3.42,34.22,0
178,8.37,-5.78,35.7,0
179,8.39,3.19,37.25,0
180,8.4,3.04,32.19,0
181,8.41,-4.86,38.36,0
182,8.43,-3.02,66.02,0
183,8.44,6.69,82.02,0
184,8.45,8.27,66.74,0
185,8.47,1.44,41.94,0
186,8.48,-1.89,25.76,0
187,8.49,-4.5,20.28,0
188,8.51,-7.55,15.9,0
189,8.52,-1.65,-2.75,0
190,8.53,5.64,-30.31,0
191,8.55,3.78,-46.24,1
192,8.56,-0.21,-40.56,1
193,8.57,-3.52,-21.48,1
194,8.59,-4.15,-9.51,1
195,8.6,3.52,-6.32,1
196,8.61,10.39,5.32,1
197,8.63,6.4,17.9,1
198,8.64,-1.38,9.98,1
199,8.65,-2.61,-8.85,1
200,8.67,2.71,-13.24,1
201,8.68,4.14,-1.64,1
202,8.69,-3.92,8.48,1
203,8.71,-8.17,7.38,1
204,8.72,-2.52,1.69,1
205,8.73,-3.07,1.44,1
206,8.75,-7.84,5.31,1
207,8.76,2.32,7.08,1
208,8.77,14.57,8.53,1
209,8.78,8.18,8.43,1
210,8.8,-1.01,1.85,1
211,8.81,-0.25,-1.21,1
212,8.82,-4.08,5.6,1
213,8.84,-15.1,8.6,1
214,8.85,-18.03,4.72,1
215,8.864999999999998,-11.47,-0.87,1
216,8.88,-4.37,-15.28,1
217,8.89,1.71,-30.29,1
218,8.91,5.16,-26.74,1
219,8.92,4.37,-15.13,1
220,8.93,5.47,-12.71,1
221,8.95,8.78,-11.9,1
222,8.96,10.32,-6.26,1
223,8.97,9.35,-4.19,1
224,8.99,1.52,-8.74,1
225,9.0,-7.76,-11.21,1
226,9.01,-4.52,-8.03,1
227,9.03,4.88,-4.74,1
228,9.04,3.98,-1.9,1
229,9.05,-2.12,1.07,1
230,9.07,-1.09,0.13,1
231,9.08,-0.18,-3.21,1
232,9.09,-6.37,-6.41,1
233,9.11,-10.19,-10.57,1
234,9.12,-5.54,-13.5,1
235,9.13,2.04,-12.65,1
236,9.15,6.95,-6.72,1
237,9.16,7.7,1.69,1
238,9.17,3.0,2.05,1
239,9.19,-3.78,-9.11,1
240,9.2,-3.78,-18.38,1
241,9.21,0.2,-13.79,1
242,9.23,-3.07,0.97,1
243,9.24,-8.99,6.33,1
244,9.25,-3.77,-6.84,1
245,9.27,6.26,-16.39,1
246,9.28,4.42,-10.08,1
247,9.29,-5.79,-6.03,1
248,9.31,-4.39,-10.52,1
249,9.32,9.63,-11.44,1
250,9.33,12.58,-6.77,1
251,9.35,-0.49,-5.31,1
252,9.36,-13.19,-7.51,1
253,9.37,-21.69,-6.66,1
254,9.39,-21.52,-2.41,1
255,9.4,-3.76,-1.02,1
256,9.41,18.59,-6.21,1
257,9.43,27.03,-12.09,1
258,9.44,17.92,-10.94,1
259,9.45,-1.0,-3.72,1
260,9.47,-10.6,2.73,1
261,9.48,-1.75,2.34,1
262,9.49,8.45,-2.84,1
263,9.51,6.88,-7.33,1
264,9.52,-0.3,-12.39,1
265,9.53,-7.17,-14.64,1
266,9.55,-8.32,-4.61,1
267,9.56,0.65,10.98,1
268,9.57,8.62,15.78,1
269,9.59,5.3,6.26,1
270,9.6,-0.87,-4.88,1
271,9.61,-3.03,-3.93,1
272,9.63,-8.87,5.41,1
273,9.64,-16.95,13.9,1
274,9.65,-10.2,16.16,1
275,9.67,10.56,6.61,1
276,9.68,22.53,-2.43,1
277,9.69,18.79,3.42,1
278,9.71,9.0,8.3,1
279,9.72,0.81,-2.2,1
280,9.73,-0.72,-10.18,1
281,9.75,2.35,-3.73,1
282,9.76,2.21,0.6,1
283,9.77,-0.63,-3.92,1
284,9.79,-2.97,-6.3,1
285,9.8,-5.42,-2.76,1
286,9.81,-4.85,1.16,1
287,9.83,1.53,0.74,1
288,9.84,9.05,-1.5,1
289,9.85,8.26,-0.39,1
290,9.87,1.55,2.41,1
291,9.88,2.82,-1.65,1
292,9.89,5.88,-10.14,1
293,9.91,-0.99,-2.54,1
294,9.92,-2.91,19.95,1
295,9.93,3.58,24.16,1
296,9.95,2.74,6.83,1
297,9.96,-0.48,-3.2,1
298,9.97,-0.3,-2.04,1
299,9.99,-5.8,-0.7,1
300,10.0,-12.19,4.06,1
301,10.01,-8.61,10.27,1
302,10.02,-1.91,12.33,1
303,10.04,0.06,13.73,1
304,10.05,1.28,14.31,1
305,10.06,2.18,13.11,1
306,10.08,2.39,10.55,1
307,10.09,5.13,7.21,1
308,10.1,0.7,8.9,1
309,10.12,-9.49,16.02,1
310,10.13,-3.07,21.8,1
311,10.15,11.71,21.67,0
312,10.16,9.15,12.48,0
313,10.17,-2.1,-1.43,0
314,10.19,-6.53,-8.04,0
315,10.2,-3.66,-1.01,0
316,10.21,5.95,10.88,0
317,10.23,14.96,14.5,0
318,10.24,12.02,7.61,0
319,10.25,-1.66,-10.99,0
320,10.27,-15.3,-39.31,0
321,10.28,-17.65,-64.03,0
322,10.29,-1.05,-87.59,0
323,10.31,22.94,-118.83,0
324,10.32,23.29,-140.87,0
325,10.33,-5.36,-138.48,0
326,10.35,-21.55,-124.15,0
327,10.36,-4.36,-113.18,0
328,10.37,7.86,-103.36,0
329,10.39,-4.76,-82.89,0
330,10.4,-13.56,-48.56,0
331,10.41,-8.59,-10.52,0
332,10.43,-6.11,23.43,0
333,10.44,-3.41,51.25,0
334,10.45,6.21,67.32,0
335,10.47,7.09,69.93,0
336,10.48,-0.66,75.85,0
337,10.49,1.23,104.37,0
338,10.51,2.38,144.29,0
339,10.52,-9.14,164.7,0
340,10.53,-10.48,159.26,0
341,10.55,5.15,148.79,1
342,10.56,8.85,144.32,1
343,10.57,-5.2,137.71,1
344,10.59,-14.31,125.23,1
345,10.6,-11.31,112.79,1
346,10.61,-7.66,98.93,1
347,10.63,-8.42,83.18,1
348,10.64,-5.14,73.69,1
349,10.65,3.99,70.36,1
350,10.67,10.32,65.72,1
351,10.68,11.76,57.66,1
352,10.69,6.07,47.46,1
353,10.71,-9.05,33.0,1
354,10.72,-22.22,9.68,1
355,10.73,-19.32,-10.5,1
356,10.75,0.36,-8.31,1
357,10.76,18.35,5.2,1
358,10.77,15.56,9.06,1
359,10.78,1.34,5.27,1
360,10.8,-1.92,-3.38,1
361,10.81,2.8,-14.69,1
362,10.83,-1.73,-11.18,1
363,10.84,-6.3,8.02,1
364,10.85,7.9,11.62,1
365,10.87,20.03,-9.93,1
366,10.88,-0.24,-25.21,1
367,10.89,-27.4,-20.89,1
368,10.91,-24.92,-19.07,1
369,10.92,-15.35,-27.22,1
370,10.93,-16.89,-29.94,1
371,10.95,2.14,-27.87,1
372,10.96,37.59,-33.96,1
373,10.97,38.32,-43.31,1
374,10.99,4.09,-43.36,1
375,11.0,-21.1,-36.96,1
376,11.01,-23.29,-34.45,1
377,11.03,-12.69,-36.78,1
378,11.04,3.24,-39.51,1
379,11.05,11.48,-42.88,1
380,11.07,4.07,-44.75,1
381,11.08,-7.67,-42.28,1
382,11.09,-13.26,-39.43,1
383,11.11,-12.97,-35.64,1
384,11.12,-8.8,-28.12,1
385,11.13,-3.76,-25.87,1
386,11.15,1.72,-33.21,1
387,11.16,9.22,-37.01,1
388,11.17,11.16,-33.99,1
389,11.19,4.73,-39.17,1
390,11.2,0.56,-50.88,1
391,11.21,-0.42,-50.58,1
392,11.23,-0.55,-40.36,1
393,11.24,7.19,-37.69,1
394,11.25,17.24,-42.31,1
395,11.27,16.4,-40.7,1
396,11.28,8.8,-32.46,1
397,11.29,3.86,-27.25,1
398,11.31,-2.1,-25.89,1
399,11.32,-11.81,-26.33,1
400,11.33,-12.63,-32.09,1
401,11.35,2.47,-37.72,1
402,11.36,12.81,-31.33,1
403,11.37,2.98,-21.32,1
404,11.39,-7.87,-23.33,1
405,11.4,-5.5,-25.19,1
406,11.41,-1.6,-14.46,1
407,11.43,-2.03,-12.66,1
408,11.44,-2.98,-24.82,1
409,11.45,-2.08,-19.67,1
410,11.47,3.41,5.25,1
411,11.48,7.8,15.44,1
412,11.49,3.95,-0.55,1
413,11.51,0.89,-16.57,1
414,11.52,5.49,-13.99,1
415,11.53,10.5,-7.82,1
416,11.55,11.4,-11.7,1
417,11.56,8.0,-15.64,1
418,11.57,2.23,-11.64,1
419,11.59,0.56,-9.48,1
420,11.6,4.07,-15.72,1
421,11.61,6.66,-18.5,1
422,11.63,3.81,-7.57,1
423,11.64,0.22,4.29,1
424,11.65,5.66,1.03,1
425,11.67,15.79,-7.27,1
426,11.68,17.05,-3.26,1
427,11.69,6.43,7.55,1
428,11.71,-8.34,16.07,1
429,11.72,-13.09,23.63,1
430,11.73,-4.54,24.83,1
431,11.75,-2.15,18.01,1
432,11.76,-8.55,14.11,1
433,11.77,-1.48,14.47,1
434,11.79,11.49,13.72,1
435,11.8,7.05,17.87,1
436,11.81,-0.37,26.65,1
437,11.83,8.6,24.41,1
438,11.84,20.34,9.16,1
439,11.85,16.41,2.54,1
440,11.87,0.13,13.08,1
441,11.88,-10.12,21.0,1
442,11.89,-9.88,15.73,1
443,11.91,-9.38,8.61,1
444,11.92,-8.85,7.61,1
445,11.93,-6.32,13.05,1
446,11.94,-1.52,20.36,1
447,11.96,8.08,20.47,1
448,11.97,15.53,11.02,1
449,11.98,14.47,-0.48,1
450,12.0,5.36,-0.1,1
451,12.01,-11.92,13.8,1
452,12.02,-27.24,22.15,1
453,12.04,-29.61,20.09,1
454,12.05,-24.86,19.73,1
455,12.06,-15.39,19.23,1
456,12.08,2.34,13.62,1
457,12.09,15.34,10.73,1
458,12.105,9.01,13.01,1
459,12.12,-6.52,14.59,1
460,12.13,-11.03,17.19,1
461,12.15,-6.39,24.13,2
462,12.16,-10.68,32.3,2
463,12.17,-18.71,53.93,2
464,12.19,-10.92,111.92,2
465,12.2,7.02,195.69,2
466,12.21,16.72,256.95,2
467,12.23,13.02,262.25,2
468,12.24,4.73,221.6,2
469,12.25,-1.85,156.93,2
470,12.27,-9.38,76.85,2
471,12.28,-8.47,-6.91,2
472,12.29,4.98,-69.08,2
473,12.31,10.49,-96.9,2
474,12.32,0.05,-107.61,2
475,12.33,-11.81,-123.2,2
476,12.35,-13.23,-140.99,2
477,12.36,-6.52,-141.83,2
478,12.37,-2.41,-122.97,2
479,12.39,-1.45,-106.28,2
480,12.4,-0.77,-102.1,2
481,12.41,-3.55,-97.43,2
482,12.43,-3.51,-90.05,2
483,12.44,5.75,-87.3,2
484,12.45,11.3,-81.61,2
485,12.47,6.11,-65.89,2
486,12.48,8.31,-43.35,2
487,12.49,22.37,-22.2,2
488,12.51,22.49,-22.1,2
489,12.52,6.88,-45.53,2
490,12.53,1.39,-58.79,2
491,12.55,4.32,-46.5,1
492,12.56,-1.5,-35.33,1
493,12.57,-8.46,-39.62,1
494,12.59,-7.41,-39.15,1
495,12.6,-5.97,-24.9,1
496,12.61,-8.03,-12.96,1
497,12.63,-10.98,-11.48,1
498,12.64,-10.27,-15.87,1
499,12.65,-3.33,-20.7,1
500,12.67,-1.54,-17.53,1
501,12.68,-6.78,-4.61,1
502,12.69,-5.37,5.92,1
503,12.71,-0.24,8.06,1
504,12.72,-0.03,10.71,1
505,12.73,0.81,16.25,1
506,12.75,4.71,21.79,1
507,12.76,5.24,24.87,1
508,12.77,0.99,16.38,1
509,12.79,-4.51,1.14,1
510,12.8,-10.58,-2.91,1
511,12.81,-11.01,3.08,1
512,12.83,-0.78,11.07,1
513,12.84,5.73,19.19,1
514,12.85,-3.4,21.57,1
515,12.87,-16.31,18.55,1
516,12.88,-18.18,20.54,1
517,12.89,-9.36,29.48,1
518,12.91,8.39,32.32,1
519,12.92,29.24,21.71,1
520,12.93,29.62,10.66,1
521,12.95,6.44,11.65,1
522,12.96,-6.42,19.47,1
523,12.97,-0.13,21.01,1
524,12.99,1.88,14.22,1
525,13.0,-2.58,9.21,1
526,13.01,-1.72,11.96,1
527,13.03,1.32,17.91,1
528,13.04,1.38,22.25,1
529,13.05,0.18,28.41,1
530,13.07,-1.76,36.71,1
531,13.08,-3.1,37.63,1
532,13.09,0.41,29.71,1
533,13.11,9.53,23.5,1
534,13.12,15.71,23.76,1
535,13.13,9.41,27.04,1
536,13.15,-3.65,32.79,1
537,13.16,-10.89,36.33,1
538,13.17,-9.77,26.4,1
539,13.19,-4.69,6.25,1
540,13.2,-2.58,-4.38,1
541,13.21,-6.65,5.75,1
542,13.23,-7.89,21.76,1
543,13.24,0.19,24.01,1
544,13.25,9.72,17.5,1
545,13.27,12.72,15.94,1
546,13.28,7.66,18.09,1
547,13.29,-3.69,16.23,1
548,13.31,-10.12,12.65,1
549,13.32,-1.46,14.13,1
550,13.33,11.62,16.91,1
551,13.35,11.59,12.86,1
552,13.36,-1.43,6.29,1
553,13.37,-12.91,7.72,1
554,13.39,-13.34,11.96,1
555,13.4,-7.54,5.47,1
556,13.41,-1.82,-2.09,1
557,13.43,4.52,7.27,1
558,13.44,9.31,14.65,1
559,13.45,7.72,-1.97,1
560,13.47,1.53,-21.62,1
561,13.48,-2.68,-18.18,1
562,13.49,-1.42,1.8,1
563,13.51,5.84,11.08,1
564,13.52,17.06,-0.48,1
565,13.53,20.83,-7.87,1
566,13.55,9.15,4.29,1
567,13.56,-5.07,11.83,1
568,13.57,-9.19,2.26,1
569,13.59,-10.73,1.08,1
570,13.6,-13.3,11.94,1
571,13.61,-4.92,5.81,1
572,13.63,9.65,-14.1,1
573,13.64,9.06,-21.67,1
574,13.65,-4.42,-19.61,1
575,13.67,-8.36,-21.06,1
576,13.68,0.68,-20.61,1
577,13.69,7.4,-13.36,1
578,13.71,6.19,-5.15,1
579,13.72,3.92,-2.78,1
580,13.73,1.08,-6.44,1
581,13.75,-8.74,-12.39,1
582,13.76,-17.71,-21.14,1
583,13.77,-8.87,-26.64,1
584,13.79,12.37,-16.27,1
585,13.8,17.9,3.57,1
586,13.81,-0.89,13.41,1
587,13.83,-14.7,11.42,1
588,13.84,-3.9,3.54,1
589,13.85,13.6,-10.44,1
590,13.86,20.17,-17.92,1
591,13.88,19.54,-9.39,1
592,13.89,15.39,-1.89,1
593,13.9,5.93,-2.51,1
594,13.92,-3.25,-0.87,1
595,13.93,-3.45,-2.93,1
596,13.94,0.39,-14.01,1
597,13.96,-3.01,-20.79,1
598,13.97,-6.56,-12.39,1
599,13.98,0.43,7.99,1
600,14.0,6.13,20.04,1
601,14.01,2.03,5.76,1
602,14.02,0.98,-13.35,1
603,14.04,6.22,-5.6,1
604,14.05,5.19,14.67,1
605,14.07,-0.88,13.67,1
606,14.08,0.64,-6.2,1
607,14.09,7.34,-18.82,1
608,14.11,6.16,-18.27,1
609,14.12,-1.81,-15.8,1
610,14.13,-5.21,-9.45,1
611,14.15,-5.7,-0.14,2
612,14.16,-11.56,-11.78,2
613,14.17,-15.97,-32.32,2
614,14.19,-4.87,8.39,2
615,14.2,21.39,114.4,2
616,14.21,39.62,179.92,2
617,14.23,22.85,155.5,2
618,14.24,-23.94,101.77,2
619,14.25,-56.98,65.33,2
620,14.27,-43.91,36.86,2
621,14.28,-14.53,28.94,2
622,14.29,-12.66,49.07,2
623,14.31,-24.6,-1.01,2
624,14.32,-19.88,-116.9,2
625,14.33,-10.77,-100.28,2
626,14.35,-15.99,43.82,2
627,14.36,-18.3,78.43,2
628,14.37,-9.13,-33.11,2
629,14.39,-7.16,-120.0,2
630,14.4,-7.49,-85.21,2
631,14.41,5.7,14.16,2
632,14.43,12.35,23.96,2
633,14.44,-2.41,-79.43,2
634,14.45,-14.75,-148.88,2
635,14.47,-10.02,-142.1,2
636,14.48,5.29,-124.59,2
637,14.49,26.38,-111.87,2
638,14.51,36.0,-81.54,2
639,14.52,19.38,-24.64,2
640,14.53,-0.74,16.71,2
641,14.55,-1.01,-8.14,1
642,14.56,3.47,-62.54,1
643,14.57,-0.25,-65.71,1
644,14.59,2.08,-34.77,1
645,14.6,11.5,-48.84,1
646,14.61,8.6,-73.9,1
647,14.63,-3.22,-26.33,1
648,14.64,-0.87,37.1,1
649,14.65,16.36,4.92,1
650,14.67,25.28,-84.83,1
651,14.68,12.31,-96.03,1
652,14.69,-7.59,-19.41,1
653,14.71,-7.74,21.68,1
654,14.72,12.69,-1.06,1
655,14.73,25.85,-6.36,1
656,14.75,18.87,11.5,1
657,14.76,7.35,-12.32,1
658,14.77,0.24,-54.31,1
659,14.79,-5.1,-26.46,1
660,14.8,-2.88,44.5,1
661,14.81,12.74,68.23,1
662,14.83,25.29,51.46,1
663,14.84,15.98,34.55,1
664,14.85,2.12,33.34,1
665,14.87,3.11,37.53,1
666,14.88,4.32,-11.48,1
667,14.89,0.85,-85.53,1
668,14.91,3.12,-80.54,1
669,14.92,4.13,-26.68,1
670,14.93,1.47,-9.24,1
671,14.95,7.39,-19.07,1
672,14.96,14.52,-25.56,1
673,14.97,3.85,-20.16,1
674,14.99,-11.19,-8.48,1
675,15.0,-7.94,0.74,1
676,15.01,0.19,1.51,1
677,15.03,-3.48,-16.59,1
678,15.04,-9.17,-21.85,1
679,15.05,-9.72,1.52,1
680,15.07,-13.24,8.74,1
681,15.08,-21.26,29.38,1
682,15.09,-19.87,80.96,1
683,15.11,-5.98,57.43,1
684,15.12,-2.14,-26.71,1
685,15.13,-10.91,-21.39,1
686,15.15,-9.45,51.11,1
687,15.16,-2.96,67.84,1
688,15.17,-6.73,42.19,1
689,15.19,-15.09,30.78,1
690,15.2,-26.48,41.38,1
691,15.21,-36.09,62.21,1
692,15.23,-26.57,63.45,1
693,15.24,1.67,48.11,1
694,15.25,20.74,48.77,1
695,15.27,12.49,54.27,1
696,15.28,-4.61,43.54,1
697,15.29,-13.38,31.37,1
698,15.31,-14.54,24.33,1
699,15.32,-0.69,2.69,1
700,15.33,19.54,-10.92,1
701,15.35,20.17,11.37,1
702,15.36,6.44,23.43,1
703,15.37,0.44,11.54,1
704,15.39,2.55,16.54,1
705,15.4,0.13,24.57,1
706,15.41,-5.29,10.93,1
707,15.43,-1.93,-4.46,1
708,15.44,7.58,4.38,1
709,15.45,9.84,35.75,1
710,15.47,-2.61,57.72,1
711,15.48,-19.01,49.29,1
712,15.49,-14.97,34.01,1
713,15.51,7.69,32.94,1
714,15.52,18.07,27.35,1
715,15.53,7.68,14.17,1
716,15.55,0.17,10.68,1
717,15.56,6.03,6.08,1
718,15.57,8.85,1.0,1
719,15.59,-4.62,15.97,1
720,15.6,-22.88,28.18,1
721,15.61,-23.58,-14.07,1
722,15.63,-9.62,-91.75,1
723,15.64,6.24,-102.42,1
724,15.65,21.57,-10.3,1
725,15.67,17.3,63.76,1
726,15.68,-6.81,34.51,1
727,15.69,-10.54,-11.32,1
728,15.71,10.49,-7.75,1
729,15.72,20.16,7.28,1
730,15.73,7.13,7.53,1
731,15.75,-12.26,0.04,1
732,15.76,-17.22,2.12,1
733,15.77,-2.98,-6.9,1
734,15.78,5.84,-42.5,1
735,15.8,-5.03,-32.47,1
736,15.81,-11.15,22.87,1
737,15.82,-2.28,25.7,1
738,15.84,3.0,-4.36,1
739,15.85,6.47,-13.08,1
740,15.86,14.59,-23.89,1
741,15.88,11.76,-16.14,1
742,15.89,0.99,33.25,1
743,15.9,3.11,59.63,1
744,15.92,8.29,24.88,1
745,15.93,2.04,-14.98,1
746,15.94,0.86,-1.37,1
747,15.96,11.21,45.67,1
748,15.97,13.41,68.69,1
749,15.98,-1.92,54.38,1
750,16.0,-20.52,33.29,1
751,16.01,-22.27,19.32,1
752,16.03,-6.55,0.97,1
753,16.04,5.3,-5.8,1
754,16.05,0.52,32.19,1
755,16.07,-5.43,61.36,1
756,16.08,-0.21,-11.19,1
757,16.09,2.56,-106.69,1
758,16.11,0.84,-56.56,1
759,16.12,3.07,69.52,1
760,16.13,-0.73,65.28,1
761,16.15,-7.98,-31.94,1
762,16.16,-5.16,-58.04,0
763,16.17,3.85,-39.11,0
764,16.19,10.69,-74.97,0
765,16.2,5.87,-137.04,0
766,16.21,-11.6,-151.25,0
767,16.23,-17.64,-125.26,0
768,16.24,3.33,-110.37,0
769,16.25,23.14,-111.16,0
770,16.27,11.46,-99.1,0
771,16.28,-11.88,-70.34,0
772,16.29,-14.42,-32.65,0
773,16.31,-3.05,9.48,0
774,16.32,4.04,41.8,0
775,16.33,11.23,58.46,0
776,16.35,20.01,72.41,0
777,16.36,16.62,83.56,0
778,16.37,2.92,73.13,0
779,16.39,-0.83,52.89,0
780,16.4,8.79,61.27,0
781,16.41,16.69,87.88,0
782,16.42,12.32,86.15,0
783,16.44,-1.37,56.47,0
784,16.45,-8.02,39.0,0
785,16.46,-1.67,45.98,0
786,16.48,-5.07,52.21,0
787,16.49,-21.99,41.56,0
788,16.5,-19.97,24.96,0
789,16.52,0.87,11.63,0
790,16.53,8.06,4.66,0
791,16.54,2.77,7.33,0
792,16.56,1.26,4.65,1
793,16.57,-1.36,-15.74,1
794,16.58,-6.15,-32.33,1
795,16.6,-2.18,-22.95,1
796,16.61,10.04,3.73,1
797,16.62,19.21,23.67,1
798,16.64,18.07,22.92,1
799,16.65,4.71,14.86,1
800,16.67,-15.5,17.5,1
801,16.68,-22.84,24.21,1
802,16.69,-10.54,25.08,1
803,16.71,-0.48,22.7,1
804,16.72,-5.03,14.0,1
805,16.73,-11.81,-1.83,1
806,16.75,-14.05,-3.21,1
807,16.76,-11.76,14.18,1
808,16.77,-0.9,12.91,1
809,16.79,11.07,-14.58,1
810,16.8,11.57,-26.8,1
811,16.81,6.71,-10.29,1
812,16.83,9.86,4.54,1
813,16.84,16.25,-1.34,1
814,16.85,6.72,-15.58,1
815,16.87,-17.9,-19.99,1
816,16.88,-23.36,-15.43,1
817,16.89,0.98,-11.59,1
818,16.91,17.92,-4.3,1
819,16.92,9.87,6.24,1
820,16.93,-3.29,2.85,1
821,16.95,-12.33,-10.17,1
822,16.96,-17.13,-11.74,1
823,16.97,-11.6,-6.59,1
824,16.99,-0.62,-7.26,1
825,17.0,7.52,-10.66,1
826,17.01,13.87,-15.23,1
827,17.03,14.78,-17.23,1
828,17.04,4.33,-13.33,1
829,17.05,-4.53,-19.69,1
830,17.06,2.41,-37.11,1
831,17.08,13.65,-37.18,1
832,17.09,14.98,-18.44,1
833,17.1,11.56,-4.39,1
834,17.12,6.84,0.66,1
835,17.13,-5.7,-0.43,1
836,17.14,-16.76,-8.73,1
837,17.16,-12.27,-15.98,1
838,17.17,-3.2,-16.8,1
839,17.18,-2.63,-13.8,1
840,17.2,-3.69,-9.0,1
841,17.21,1.13,-7.75,1
842,17.22,10.18,-9.38,1
843,17.24,14.8,-7.22,1
844,17.25,7.7,-5.62,1
845,17.26,-3.2,-13.01,1
846,17.28,-5.23,-23.58,1
847,17.29,-1.16,-24.28,1
848,17.3,1.86,-20.4,1
849,17.32,2.74,-22.08,1
850,17.33,-1.03,-20.86,1
851,17.35,-7.77,-17.04,1
852,17.36,-6.05,-21.71,1
853,17.37,4.69,-28.61,1
854,17.39,6.13,-24.76,1
855,17.4,-2.11,-7.72,1
856,17.41,1.34,6.79,1
857,17.43,10.18,1.38,1
858,17.44,0.8,-10.03,1
859,17.45,-15.11,-12.16,1
860,17.47,-12.88,-14.93,1
861,17.48,-2.39,-17.37,1
862,17.49,-1.64,-10.85,1
863,17.51,-4.98,-3.97,1
864,17.52,-1.71,-1.8,1
865,17.53,6.65,-2.21,1
866,17.55,8.71,-10.67,1
867,17.56,4.31,-22.18,1
868,17.57,9.33,-17.43,1
869,17.59,16.24,2.99,1
870,17.6,7.84,9.94,1
871,17.61,2.13,-5.84,1
872,17.63,7.81,-14.94,1
873,17.64,-1.58,-8.39,1
874,17.65,-20.52,-6.76,1
875,17.67,-14.31,-10.15,1
876,17.68,8.55,-5.98,1
877,17.69,11.22,0.45,1
878,17.7,-4.4,2.21,1
879,17.72,-9.46,8.05,1
880,17.73,-1.74,15.95,1
881,17.75,-3.77,10.18,1
882,17.76,-19.05,-0.61,1
883,17.77,-24.83,0.3,1
884,17.78,-11.83,4.19,1
885,17.8,0.11,1.51,1
886,17.81,-1.47,0.46,1
887,17.82,-2.28,6.38,1
888,17.84,6.28,8.24,1
889,17.85,12.12,-0.75,1
890,17.86,8.49,-6.82,1
891,17.88,-0.73,0.06,1
892,17.89,-9.39,5.73,1
893,17.9,-10.33,-1.05,1
894,17.92,-7.69,-6.49,1
895,17.93,-10.81,-2.65,1
896,17.94,-12.75,-2.67,1
897,17.96,-1.98,-5.66,1
898,17.97,10.58,2.88,1
899,17.99,6.78,12.4,1
900,18.0,-3.3,7.23,1
901,18.01,-1.81,1.04,1
902,18.03,2.01,5.22,1
903,18.04,-3.04,11.21,1
904,18.05,-4.68,15.72,1
905,18.07,4.17,18.7,1
906,18.08,10.44,12.92,1
907,18.09,7.96,1.17,1
908,18.11,5.7,-3.5,1
909,18.12,8.0,-0.52,1
910,18.13,7.5,5.79,1
911,18.15,0.43,12.92,1
912,18.16,-7.13,6.8,0
913,18.17,-9.83,-23.31,0
914,18.19,-3.55,-62.17,0
915,18.2,15.35,-83.08,0
916,18.21,36.09,-85.83,0
917,18.23,36.75,-94.9,0
918,18.24,15.14,-111.54,0
919,18.25,-5.36,-111.5,0
920,18.27,-8.17,-93.24,0
921,18.28,-5.25,-83.66,0
922,18.29,-6.47,-89.53,0
923,18.31,-3.02,-87.21,0
924,18.32,-1.76,-71.13,0
925,18.33,-16.16,-53.46,0
926,18.34,-34.38,-25.76,0
927,18.36,-37.32,16.95,0
928,18.37,-19.95,50.55,0
929,18.38,5.74,63.73,0
930,18.4,17.03,77.28,0
931,18.41,3.42,101.78,0
932,18.42,-12.15,120.98,0
933,18.44,-0.23,123.07,0
934,18.45,20.2,121.61,0
935,18.46,9.22,130.1,0
936,18.48,-17.06,138.27,0
937,18.49,-13.04,140.82,0
938,18.5,15.19,145.81,0
939,18.52,24.41,148.85,0
940,18.53,4.3,144.15,0
941,18.54,-12.11,137.4,0
942,18.56,-3.18,128.35,1
943,18.57,9.08,112.4,1
944,18.58,4.5,92.48,1
945,18.6,-3.97,75.82,1
946,18.61,-7.61,68.28,1
947,18.63,-8.57,65.78,1
948,18.64,-4.48,59.46,1
949,18.65,-0.2,49.97,1
950,18.67,-2.67,39.9,1
951,18.68,-3.75,26.52,1
952,18.69,5.02,14.29,1
953,18.71,10.8,12.24,1
954,18.72,1.51,14.01,1
955,18.73,-7.51,10.04,1
956,18.75,-3.79,6.74,1
957,18.76,2.97,4.77,1
958,18.77,2.02,-4.3,1
959,18.79,-7.81,-15.56,1
960,18.8,-14.39,-23.56,1
961,18.81,-4.89,-28.98,1
962,18.83,8.63,-29.61,1
963,18.84,8.13,-27.55,1
964,18.85,-1.24,-24.4,1
965,18.87,-7.95,-19.24,1
966,18.88,-9.26,-18.26,1
967,18.89,-6.63,-28.46,1
968,18.91,-3.32,-42.87,1
969,18.92,5.74,-48.27,1
970,18.93,23.57,-46.58,1
971,18.95,24.69,-47.29,1
972,18.96,-2.2,-49.93,1
973,18.97,-17.49,-51.32,1
974,18.98,-1.77,-50.28,1
975,19.0,10.71,-49.15,1
976,19.01,4.54,-51.63,1
977,19.02,-0.63,-50.64,1
978,19.04,0.83,-41.5,1
979,19.05,2.92,-38.01,1
980,19.06,5.08,-47.8,1
981,19.08,4.15,-52.46,1
982,19.09,2.6,-44.25,1
983,19.1,6.46,-43.67,1
984,19.12,7.97,-51.11,1
985,19.13,-1.2,-49.18,1
986,19.14,-9.72,-43.63,1
987,19.16,-1.21,-44.32,1
988,19.17,13.52,-45.16,1
989,19.18,11.58,-44.94,1
990,19.2,4.05,-45.74,1
991,19.21,9.94,-42.63,1
992,19.22,9.94,-37.66,1
993,19.24,-8.64,-34.91,1
994,19.25,-16.73,-28.34,1
995,19.265,-3.7,-20.94,1
996,19.28,1.76,-24.94,1
997,19.29,-7.59,-35.83,1
998,19.31,-10.16,-36.3,1
999,19.32,-4.04,-26.21,1
1000,19.33,-0.55,-20.8,1
1001,19.35,3.28,-24.13,1
1002,19.36,10.68,-28.35,1
1003,19.37,10.57,-28.59,1
1004,19.39,-3.29,-23.51,1
1005,19.4,-15.67,-14.79,1
1006,19.41,-11.17,-13.21,1
1007,19.43,1.72,-25.28,1
1008,19.44,7.26,-33.29,1
1009,19.45,7.85,-19.31,1
1010,19.47,7.93,1.2,1
1011,19.48,0.12,2.9,1
1012,19.49,-8.51,-6.47,1
1013,19.51,-3.45,-5.29,1
1014,19.52,7.51,4.33,1
1015,19.53,11.51,10.73,1
1016,19.55,6.17,11.08,1
1017,19.56,-5.67,5.59,1
1018,19.57,-13.95,0.11,1
1019,19.59,-9.89,2.82,1
1020,19.6,0.75,9.26,1
1021,19.61,7.29,11.9,1
1022,19.62,7.67,13.54,1
1023,19.64,7.93,9.65,1
1024,19.65,11.11,-2.84,1
1025,19.67,8.67,-6.93,1
1026,19.68,-3.89,1.25,1
1027,19.69,-7.91,7.42,1
1028,19.7,8.24,9.25,1
1029,19.72,17.04,8.35,1
1030,19.73,-4.18,6.32,1
1031,19.75,-27.59,13.08,1
1032,19.76,-22.83,26.58,1
1033,19.77,-6.82,28.67,1
1034,19.78,-0.89,16.23,1
1035,19.8,2.33,7.65,1
1036,19.81,4.88,12.63,1
1037,19.82,6.03,20.92,1
1038,19.84,13.58,23.79,1
1039,19.85,15.46,23.25,1
1040,19.86,1.7,18.77,1
1041,19.88,-5.08,13.5,1
1042,19.89,4.67,16.82,1
1043,19.9,8.45,22.6,1
1044,19.92,-2.96,21.01,1
1045,19.93,-13.67,20.0,1
1046,19.95,-13.3,23.42,1
1047,19.96,-7.77,21.26,1
1048,19.97,-2.84,13.12,1
1049,19.99,0.86,13.68,1
1050,20.0,3.91,26.17,1
1051,20.01,8.51,31.71,1
1052,20.03,6.65,19.75,1
1053,20.04,-8.67,8.11,1
1054,20.05,-18.12,12.39,1
1055,20.07,-7.23,23.02,1
1056,20.08,5.19,32.18,1
1057,20.09,7.15,41.8,1
1058,20.11,7.77,41.37,1
1059,20.12,8.56,29.39,1
1060,20.13,6.35,24.75,1
1061,20.15,4.95,24.03,1
1062,20.16,4.3,22.73,2
1063,20.17,-5.59,63.38,2
1064,20.19,-19.73,161.11,2
1065,20.2,-13.83,248.07,2
1066,20.21,3.46,265.71,2
1067,20.23,-1.9,222.85,2
1068,20.24,-18.69,155.24,2
1069,20.25,-11.55,93.91,2
1070,20.26,14.16,47.64,2
1071,20.28,27.5,4.61,2
1072,20.29,17.26,-44.79,2
1073,20.3,7.3,-98.79,2
1074,20.32,15.86,-143.11,2
1075,20.33,18.4,-162.3,2
1076,20.34,-2.51,-158.54,2
1077,20.36,-22.21,-147.48,2
1078,20.37,-19.39,-139.9,2
1079,20.38,-6.59,-130.68,2
1080,20.4,-6.3,-112.99,2
1081,20.41,-14.45,-95.92,2
1082,20.42,-7.54,-90.93,2
1083,20.44,11.49,-90.21,2
1084,20.45,15.25,-80.2,2
1085,20.46,0.31,-66.3,2
1086,20.48,-10.33,-63.52,2
1087,20.49,-3.22,-68.49,2
1088,20.5,13.53,-62.1,2
1089,20.52,17.55,-43.36,2
1090,20.53,-4.4,-37.71,2
1091,20.54,-30.42,-48.76,2
1092,20.56,-30.33,-50.77,1
1093,20.57,-9.48,-37.62,1
1094,20.59,5.53,-24.81,1
1095,20.6,7.35,-17.1,1
1096,20.61,3.67,-13.07,1
1097,20.63,-2.13,-11.35,1
1098,20.64,-5.96,-9.08,1
1099,20.65,-7.48,-7.51,1
1100,20.67,-8.43,-4.7,1
1101,20.68,-2.91,1.75,1
1102,20.69,5.86,2.91,1
1103,20.71,7.72,-4.85,1
1104,20.72,5.38,-7.29,1
1105,20.73,5.67,5.63,1
1106,20.75,4.73,21.52,1
1107,20.76,-2.26,24.57,1
1108,20.77,-7.97,17.7,1
1109,20.79,-6.43,8.86,1
1110,20.8,-2.36,1.68,1
1111,20.81,6.16,5.78,1
1112,20.83,15.24,18.8,1
1113,20.84,5.49,19.71,1
1114,20.85,-15.32,11.62,1
1115,20.87,-19.06,20.09,1
1116,20.88,-11.02,37.03,1
1117,20.89,-5.37,37.1,1
1118,20.9,7.22,27.28,1
1119,20.92,21.06,19.26,1
1120,20.93,16.16,9.26,1
1121,20.94,0.57,8.33,1
1122,20.96,-5.52,23.97,1
1123,20.97,-2.53,33.47,1
1124,20.98,2.18,24.37,1
1125,21.0,3.44,15.41,1
1126,21.01,-2.89,20.74,1
1127,21.02,-4.95,25.89,1
1128,21.04,5.97,19.59,1
1129,21.05,13.54,18.98,1
1130,21.06,4.23,32.92,1
1131,21.08,-9.55,38.15,1
1132,21.09,-10.18,20.22,1
1133,21.1,-4.83,5.37,1
1134,21.12,-7.88,17.37,1
1135,21.13,-7.02,33.72,1
1136,21.14,8.65,30.08,1
1137,21.16,16.94,22.24,1
1138,21.17,4.51,25.17,1
1139,21.18,-5.89,25.14,1
1140,21.2,-2.27,15.68,1
1141,21.21,-1.54,12.6,1
1142,21.23,-10.21,18.03,1
1143,21.24,-16.99,14.79,1
1144,21.25,-15.98,7.03,1
1145,21.27,-7.97,12.62,1
1146,21.28,3.77,21.36,1
1147,21.29,8.9,18.02,1
1148,21.31,3.27,16.19,1
1149,21.32,0.14,29.22,1
1150,21.33,9.7,38.65,1
1151,21.35,20.83,27.69,1
1152,21.36,21.21,14.33,1
1153,21.37,14.35,16.8,1
1154,21.39,5.51,22.72,1
1155,21.4,-1.59,15.83,1
1156,21.41,-2.38,1.77,1
1157,21.43,0.74,-1.57,1
1158,21.44,3.1,7.25,1
1159,21.45,1.73,9.35,1
1160,21.47,-3.35,2.03,1
1161,21.48,-5.58,-0.94,1
1162,21.49,-1.61,-1.42,1
1163,21.51,4.49,-0.47,1
1164,21.52,9.46,6.45,1
1165,21.53,11.16,3.92,1
1166,21.54,9.11,-9.25,1
1167,21.56,9.01,-9.1,1
1168,21.57,8.96,0.13,1
1169,21.58,1.36,2.36,1
1170,21.6,-7.97,3.76,1
1171,21.61,-13.03,0.3,1
1172,21.62,-16.17,-15.05,1
1173,21.64,-11.81,-20.47,1
1174,21.65,5.72,-6.5,1
1175,21.67,23.55,1.18,1
1176,21.68,22.82,-7.88,1
1177,21.69,2.23,-13.64,1
1178,21.7,-19.05,-9.65,1
1179,21.72,-21.1,-9.04,1
1180,21.73,-5.53,-12.03,1
1181,21.75,5.73,-8.4,1
1182,21.76,4.26,0.47,1
1183,21.77,4.23,3.35,1
1184,21.78,4.2,-1.39,1
1185,21.8,-7.52,-4.61,1
1186,21.81,-16.5,-6.39,1
1187,21.82,-9.52,-13.34,1
1188,21.84,-1.17,-21.62,1
1189,21.85,2.17,-19.68,1
1190,21.87,8.84,-10.0,1
1191,21.88,13.67,-9.73,1
1192,21.89,7.58,-18.52,1
1193,21.91,-7.65,-17.5,1
1194,21.92,-18.4,-7.05,1
1195,21.93,-11.6,-7.59,1
1196,21.95,1.63,-19.64,1
1197,21.96,0.71,-21.62,1
1198,21.97,-10.25,-6.32,1
1199,21.99,-15.08,6.05,1
1200,22.0,-10.44,-5.3,1
1201,22.01,-0.47,-27.21,1
1202,22.03,7.7,-27.24,1
1203,22.04,5.52,-6.51,1
1204,22.05,-3.89,4.79,1
1205,22.07,-8.26,-3.17,1
1206,22.08,-4.66,-15.04,1
1207,22.09,-1.61,-21.21,1
1208,22.11,-5.58,-23.15,1
1209,22.12,-6.33,-22.33,1
1210,22.13,7.09,-19.38,1
1211,22.15,17.11,-8.7,1
1212,22.16,6.41,22.36,2
1213,22.17,-3.09,74.98,2
1214,22.18,11.43,122.83,2
1215,22.2,31.88,130.75,2
1216,22.21,24.22,110.04,2
1217,22.22,-12.41,85.02,2
1218,22.24,-38.36,31.53,2
1219,22.25,-29.95,-37.47,2
1220,22.26,-10.62,-78.32,2
1221,22.28,-1.36,-99.31,2
1222,22.29,5.61,-64.36,2
1223,22.3,13.49,42.44,2
1224,22.32,8.41,88.52,2
1225,22.33,-9.02,30.07,2
1226,22.34,-15.1,-28.65,2
1227,22.36,2.92,-71.89,2
1228,22.37,27.06,-100.81,2
1229,22.38,26.7,-65.54,2
1230,22.4,0.12,-14.79,2
1231,22.41,-17.84,-18.58,2
1232,22.42,-10.84,-48.53,2
1233,22.44,-1.41,-61.98,2
1234,22.45,-2.96,-57.66,2
1235,22.46,-1.7,-53.74,2
1236,22.48,8.21,-69.85,2
1237,22.49,11.24,-95.34,2
1238,22.5,2.78,-92.7,2
1239,22.52,-6.18,-72.51,2
1240,22.53,-8.94,-66.75,2
1241,22.55,-2.73,-51.21,1
1242,22.56,3.99,-15.14,1
1243,22.57,-1.01,-5.38,1
1244,22.59,-8.76,-36.4,1
1245,22.6,-3.1,-32.69,1
1246,22.61,11.77,41.87,1
1247,22.63,21.97,86.75,1
1248,22.64,23.66,51.05,1
1249,22.65,20.42,14.16,1
1250,22.67,13.12,9.7,1
1251,22.68,4.7,-3.15,1
1252,22.69,1.69,-18.19,1
1253,22.71,2.37,3.57,1
1254,22.72,-3.92,41.26,1
1255,22.73,-15.73,42.43,1
1256,22.75,-20.02,12.34,1
1257,22.76,-13.24,-10.35,1
1258,22.77,2.04,-10.1,1
1259,22.79,14.64,17.96,1
1260,22.8,9.38,42.85,1
1261,22.81,-3.05,25.97,1
1262,22.82,-2.02,-5.16,1
1263,22.84,6.26,-20.1,1
1264,22.85,4.46,-27.31,1
1265,22.86,-3.14,-24.02,1
1266,22.88,-4.5,-14.46,1
1267,22.89,-1.12,-25.0,1
1268,22.9,7.81,-36.3,1
1269,22.92,14.77,-9.66,1
1270,22.93,2.43,15.24,1
1271,22.94,-15.88,1.92,1
1272,22.96,-16.32,-7.38,1
1273,22.97,-6.69,-5.31,1
1274,22.98,-1.91,-35.3,1
1275,23.0,-2.86,-70.06,1
1276,23.01,-7.4,-33.66,1
1277,23.02,-10.11,52.56,1
1278,23.04,2.04,70.76,1
1279,23.05,25.41,8.68,1
1280,23.06,28.82,-11.76,1
1281,23.08,5.93,23.42,1
1282,23.09,-7.84,15.95,1
1283,23.1,2.83,-11.79,1
1284,23.12,12.77,30.91,1
1285,23.13,-0.1,84.3,1
1286,23.14,-22.91,42.85,1
1287,23.16,-21.45,-22.78,1
1288,23.17,5.03,2.89,1
1289,23.19,10.63,70.2,1
1290,23.2,-17.81,72.39,1
1291,23.21,-34.43,30.08,1
1292,23.23,-18.8,20.2,1
1293,23.24,-0.8,31.8,1
1294,23.25,-3.51,25.34,1
1295,23.27,-15.57,22.4,1
1296,23.28,-10.98,47.4,1
1297,23.29,4.71,69.94,1
1298,23.31,5.31,52.96,1
1299,23.32,-2.52,12.87,1
1300,23.33,-0.17,-9.76,1
1301,23.35,3.8,-11.24,1
1302,23.36,1.7,-10.22,1
1303,23.37,1.1,-10.87,1
1304,23.39,2.3,-6.98,1
1305,23.4,0.42,1.62,1
1306,23.41,-0.8,5.14,1
1307,23.43,1.42,2.54,1
1308,23.44,5.36,8.89,1
1309,23.45,7.78,22.87,1
1310,23.46,5.22,23.73,1
1311,23.48,6.0,11.58,1
1312,23.49,12.97,5.85,1
1313,23.5,8.51,8.72,1
1314,23.52,-3.82,12.24,1
1315,23.53,-4.55,17.47,1
1316,23.54,1.53,9.39,1
1317,23.56,2.98,-13.12,1
1318,23.57,-5.49,-11.04,1
1319,23.58,-20.37,11.78,1
1320,23.6,-21.27,6.44,1
1321,23.61,-2.16,-21.88,1
1322,23.62,16.23,-38.35,1
1323,23.64,19.7,-32.9,1
1324,23.65,11.71,-4.72,1
1325,23.67,0.63,23.89,1
1326,23.68,-5.61,25.48,1
1327,23.69,-6.65,8.6,1
1328,23.7,-7.46,0.36,1
1329,23.72,-5.79,16.86,1
1330,23.73,-1.73,39.7,1
1331,23.75,-4.78,28.97,1
1332,23.76,-12.43,-16.53,1
1333,23.77,-12.63,-38.72,1
1334,23.78,-6.73,-11.41,1
1335,23.8,1.02,12.26,1
1336,23.81,12.91,12.76,1
1337,23.83,19.75,18.52,1
1338,23.84,11.29,12.08,1
1339,23.85,3.32,-1.94,1
1340,23.87,3.21,18.79,1
1341,23.88,-2.74,37.17,1
1342,23.89,-7.26,6.29,1
1343,23.91,-4.28,-34.85,1
1344,23.92,-2.85,-45.91,1
1345,23.93,4.28,-42.67,1
1346,23.95,17.38,-42.77,1
1347,23.96,20.96,-30.98,1
1348,23.97,16.85,-3.94,1
1349,23.99,12.03,12.78,1
1350,24.0,1.46,-2.41,1
1351,24.01,-4.66,-51.88,1
1352,24.03,10.22,-70.05,1
1353,24.04,17.51,11.42,1
1354,24.05,-7.99,87.88,1
1355,24.07,-20.25,27.77,1
1356,24.08,6.08,-66.44,1
1357,24.09,19.97,-39.28,1
1358,24.1,-1.01,50.43,1
1359,24.12,-20.21,61.74,1
1360,24.13,-17.08,7.44,1
1361,24.14,-7.88,1.14,1
1362,24.16,-4.33,42.77,0
1363,24.17,-0.44,16.87,0
1364,24.18,2.11,-86.14,0
1365,24.2,-1.42,-138.91,0
1366,24.21,-1.53,-108.06,0
1367,24.22,4.99,-94.54,0
1368,24.24,7.96,-127.76,0
1369,24.25,3.95,-139.68,0
1370,24.26,-4.19,-111.59,0
1371,24.28,-11.01,-80.16,0
1372,24.29,-11.26,-53.61,0
1373,24.3,-6.4,-17.32,0
1374,24.32,2.4,27.82,0
1375,24.33,11.23,67.47,0
1376,24.34,12.21,90.48,0
1377,24.36,9.11,92.59,0
1378,24.37,6.65,80.32,0
1379,24.38,-3.16,75.03,0
1380,24.4,-20.4,86.34,0
1381,24.41,-25.12,90.74,0
1382,24.42,-4.64,73.33,0
1383,24.44,15.68,59.27,0
1384,24.45,8.07,63.77,0
1385,24.465,-4.04,70.39,0
1386,24.48,5.36,70.91,0
1387,24.49,13.17,68.27,0
1388,24.51,9.45,62.49,0
1389,24.52,17.0,53.1,0
1390,24.53,24.55,39.92,0
1391,24.55,6.04,24.44,1
1392,24.56,-18.47,15.32,1
1393,24.57,-19.77,18.55,1
1394,24.59,-4.27,22.76,1
1395,24.6,1.7,16.23,1
1396,24.61,-12.42,7.46,1
1397,24.63,-23.68,7.06,1
1398,24.64,-17.28,7.27,1
1399,24.65,-7.41,-2.1,1
1400,24.67,-2.49,-16.7,1
1401,24.68,-2.03,-23.53,1
1402,24.69,-7.71,-16.45,1
1403,24.71,-13.82,-5.41,1
1404,24.72,-10.82,-2.71,1
1405,24.73,-1.35,-8.6,1
1406,24.75,3.76,-18.81,1
1407,24.76,4.27,-25.66,1
1408,24.77,4.98,-21.6,1
1409,24.78,3.94,-18.83,1
1410,24.8,-2.52,-26.84,1
1411,24.81,-11.39,-29.11,1
1412,24.82,-13.67,-20.07,1
1413,24.84,-7.31,-15.18,1
1414,24.85,1.48,-18.28,1
1415,24.86,7.91,-20.98,1
1416,24.88,6.13,-18.25,1
1417,24.89,1.95,-15.96,1
1418,24.9,9.4,-20.42,1
1419,24.92,16.7,-23.53,1
1420,24.93,6.25,-21.28,1
1421,24.94,-6.27,-20.04,1
1422,24.96,-5.09,-18.2,1
1423,24.97,-4.36,-18.49,1
1424,24.98,-7.91,-26.14,1
1425,25.0,-1.14,-27.67,1
1426,25.01,3.24,-15.54,1
1427,25.02,-8.65,-8.08,1
1428,25.04,-11.69,-15.72,1
1429,25.05,3.38,-19.17,1
1430,25.06,7.73,-8.88,1
1431,25.08,-3.06,-3.79,1
1432,25.09,-4.61,-5.92,1
1433,25.1,8.21,-0.87,1
1434,25.12,16.62,3.31,1
1435,25.13,7.33,-0.38,1
1436,25.15,-7.99,-2.1,1
1437,25.16,-9.64,-3.26,1
1438,25.17,-3.76,-8.22,1
1439,25.19,-6.33,-8.74,1
1440,25.2,-11.5,-3.94,1
1441,25.21,-10.55,-4.69,1
1442,25.23,-4.71,-12.63,1
1443,25.24,2.4,-17.5,1
1444,25.25,4.41,-14.05,1
1445,25.27,6.83,-7.74,1
1446,25.28,21.03,-2.97,1
1447,25.29,32.94,2.01,1
1448,25.31,22.84,2.43,1
1449,25.32,1.92,-7.93,1
1450,25.33,-7.24,-17.62,1
1451,25.35,1.3,-16.03,1
1452,25.36,12.91,-12.93,1
1453,25.37,9.84,-14.18,1
1454,25.38,0.41,-10.9,1
1455,25.4,-2.08,-0.93,1
1456,25.41,-4.9,3.68,1
1457,25.42,-6.4,-3.32,1
1458,25.44,1.63,-9.26,1
1459,25.45,9.28,-5.79,1
1460,25.46,10.33,-3.68,1
1461,25.48,8.78,-7.4,1
1462,25.49,0.35,-10.43,1
1463,25.5,-11.58,-12.45,1
1464,25.52,-8.68,-11.85,1
1465,25.53,4.12,-4.42,1
1466,25.54,3.08,2.31,1
1467,25.56,-4.56,1.6,1
1468,25.57,0.54,2.11,1
1469,25.58,3.89,7.85,1
1470,25.6,-7.65,11.21,1
1471,25.61,-10.88,8.66,1
1472,25.62,4.59,3.83,1
1473,25.64,13.15,3.66,1
1474,25.65,5.08,9.51,1
1475,25.67,-1.63,13.51,1
1476,25.68,3.15,14.28,1
1477,25.69,12.69,11.7,1
1478,25.7,14.91,2.15,1
1479,25.72,6.53,-3.1,1
1480,25.73,0.16,4.56,1
1481,25.75,2.94,11.17,1
1482,25.76,2.39,13.41,1
1483,25.77,-5.22,22.24,1
1484,25.79,-3.2,28.16,1
1485,25.8,10.66,13.14,1
1486,25.81,13.27,-8.8,1
1487,25.83,-1.35,-6.96,1
1488,25.84,-10.84,11.22,1
1489,25.85,-10.63,11.83,1
1490,25.87,-10.86,-1.91,1
1491,25.88,-6.09,-2.08,1
1492,25.89,0.33,4.49,1
1493,25.91,-0.95,-0.64,1
1494,25.92,0.69,-5.92,1
1495,25.93,6.05,-5.6,1
1496,25.95,-0.42,-9.71,1
1497,25.96,-12.87,-8.27,1
1498,25.97,-9.54,5.09,1
1499,25.99,8.69,10.53,1
1500,26.0,17.42,2.1,1
1501,26.01,6.54,-3.46,1
1502,26.02,-10.24,-0.38,1
1503,26.04,-18.11,2.42,1
1504,26.05,-17.55,1.67,1
1505,26.06,-17.48,2.65,1
1506,26.08,-12.54,3.17,1
1507,26.09,6.58,-1.98,1
1508,26.1,22.52,-7.17,1
1509,26.12,14.39,-5.04,1
1510,26.13,-4.41,3.73,1
1511,26.14,-9.51,12.82,1
1512,26.16,-2.12,19.05,0
1513,26.17,3.07,21.65,0
1514,26.18,5.85,17.11,0
1515,26.2,9.79,12.5,0
1516,26.21,9.96,12.01,0
1517,26.22,12.99,-11.01,0
1518,26.24,18.49,-67.0,0
1519,26.25,4.92,-112.89,0
1520,26.26,-18.06,-122.63,0
1521,26.28,-17.14,-120.64,0
1522,26.29,0.08,-125.56,0
1523,26.3,6.22,-130.08,0
1524,26.32,4.48,-123.57,0
1525,26.33,5.8,-104.23,0
1526,26.34,3.83,-78.49,0
1527,26.36,-0.84,-49.21,0
1528,26.37,-4.48,-18.55,0
1529,26.38,-11.11,4.64,0
1530,26.4,-12.88,20.78,0
1531,26.41,-9.89,38.59,0
1532,26.43,-15.14,56.23,0
1533,26.44,-16.97,65.62,0
1534,26.45,-1.56,73.39,0
1535,26.47,12.75,92.55,0
1536,26.48,11.26,116.41,0
1537,26.49,2.35,130.39,0
1538,26.51,-5.19,135.87,0
1539,26.52,-10.12,140.92,0
1540,26.53,-10.56,144.25,0
1541,26.55,-6.66,139.89,1
1542,26.56,-9.43,131.71,1
1543,26.57,-18.79,128.36,1
1544,26.59,-17.58,123.39,1
1545,26.6,-7.18,106.38,1
1546,26.61,-3.82,88.22,1
1547,26.63,-8.92,81.33,1
1548,26.64,-8.97,73.44,1
1549,26.65,2.46,53.72,1
1550,26.67,9.06,38.17,1
1551,26.68,1.17,39.34,1
1552,26.69,-2.83,40.75,1
1553,26.7,6.27,28.33,1
1554,26.72,10.33,14.58,1
1555,26.73,2.91,12.42,1
1556,26.75,-4.64,15.41,1
1557,26.76,-11.7,9.27,1
1558,26.77,-12.02,-7.44,1
1559,26.78,6.25,-17.99,1
1560,26.8,21.89,-18.01,1
1561,26.81,15.76,-26.06,1
1562,26.82,4.1,-45.36,1
1563,26.84,-4.08,-52.52,1
1564,26.85,-5.19,-35.93,1
1565,26.86,11.12,-14.61,1
1566,26.88,22.59,-12.22,1
1567,26.89,6.4,-23.33,1
1568,26.9,-9.88,-23.44,1
1569,26.92,-5.92,-14.0,1
1570,26.93,-1.32,-16.91,1
1571,26.94,-2.17,-30.79,1
1572,26.96,2.07,-38.6,1
1573,26.97,1.52,-36.43,1
1574,26.98,-10.51,-29.4,1
1575,27.0,-10.88,-25.35,1
1576,27.01,4.35,-32.94,1
1577,27.02,4.04,-46.6,1
1578,27.04,-8.58,-47.67,1
1579,27.05,-1.99,-33.76,1
1580,27.06,14.53,-21.02,1
1581,27.08,14.96,-17.84,1
1582,27.09,6.0,-25.05,1
1583,27.11,1.93,-42.54,1
1584,27.12,1.08,-55.42,1
1585,27.13,-2.37,-46.78,1
1586,27.15,-11.06,-30.65,1
1587,27.16,-16.09,-34.81,1
1588,27.17,-6.21,-51.56,1
1589,27.19,7.87,-49.26,1
1590,27.2,6.54,-29.2,1
1591,27.21,-5.76,-21.66,1
1592,27.23,-7.62,-33.46,1
1593,27.24,2.23,-42.81,1
1594,27.25,8.48,-38.46,1
1595,27.27,10.4,-30.08,1
1596,27.28,11.13,-27.05,1
1597,27.29,6.18,-29.29,1
1598,27.3,2.63,-29.7,1
1599,27.32,6.27,-24.25,1
1600,27.33,7.48,-25.22,1
1601,27.34,5.76,-39.08,1
1602,27.36,7.15,-44.56,1
1603,27.37,2.77,-29.92,1
1604,27.38,-7.92,-14.78,1
1605,27.4,-7.78,-14.41,1
1606,27.41,3.07,-20.75,1
1607,27.42,9.92,-20.32,1
1608,27.44,10.48,-11.11,1
1609,27.45,7.54,-5.89,1
1610,27.46,-0.39,-13.2,1
1611,27.48,-9.42,-21.21,1
1612,27.49,-11.4,-18.24,1
1613,27.5,-5.59,-11.13,1
1614,27.52,-0.75,-7.27,1
1615,27.53,-1.13,-3.49,1
1616,27.54,1.32,-1.98,1
1617,27.56,5.63,-6.77,1
1618,27.57,3.3,-8.69,1
1619,27.58,1.72,-1.69,1
1620,27.6,4.56,4.98,1
1621,27.61,-1.32,5.57,1
1622,27.62,-12.23,4.41,1
1623,27.64,-8.04,1.47,1
1624,27.65,5.29,0.03,1
1625,27.67,5.76,7.72,1
1626,27.68,-0.7,13.16,1
1627,27.69,-1.9,3.89,1
1628,27.7,-2.96,-2.41,1
1629,27.72,-4.49,9.41,1
1630,27.73,-3.83,20.99,1
1631,27.75,-3.76,15.9,1
1632,27.76,-0.61,10.0,1
1633,27.77,6.78,16.46,1
1634,27.79,10.5,19.35,1
1635,27.8,7.71,10.96,1
1636,27.81,2.08,5.81,1
1637,27.83,-3.46,4.36,1
1638,27.84,-4.65,-0.63,1
1639,27.85,-0.51,3.33,1
1640,27.87,1.88,20.92,1
1641,27.88,-2.87,29.33,1
1642,27.89,-9.63,15.66,1
1643,27.91,-9.82,-1.44,1
1644,27.92,-2.35,-1.34,1
1645,27.93,5.38,9.45,1
1646,27.94,6.18,10.58,1
1647,27.96,0.26,3.72,1
1648,27.97,-1.98,7.61,1
1649,27.98,5.32,17.85,1
1650,28.0,7.86,15.79,1
1651,28.01,-1.54,6.13,1
1652,28.02,-6.65,8.69,1
1653,28.04,-3.81,23.87,1
1654,28.05,-2.92,30.77,1
1655,28.06,0.22,25.53,1
1656,28.08,8.71,21.24,1
1657,28.09,14.04,14.83,1
1658,28.1,11.34,3.69,1
1659,28.12,4.74,3.54,1
1660,28.13,-0.42,21.17,1
1661,28.14,-3.6,60.75,1
1662,28.16,-3.9,138.67,2
1663,28.17,-2.85,236.23,2
1664,28.18,-9.25,294.93,2
1665,28.2,-21.2,285.09,2
1666,28.21,-24.36,227.4,2
1667,28.22,-19.95,161.52,2
1668,28.24,-18.8,103.84,2
1669,28.25,-15.61,41.16,2
1670,28.26,-6.72,-24.33,2
1671,28.28,-0.27,-71.64,2
1672,28.29,5.63,-100.19,2
1673,28.3,11.81,-127.75,2
1674,28.32,9.72,-158.55,2
1675,28.33,1.96,-173.51,2
1676,28.34,-7.25,-163.36,2
1677,28.36,-15.99,-145.74,2
1678,28.37,-8.27,-135.6,2
1679,28.39,13.57,-128.99,2
1680,28.4,17.54,-115.99,2
1681,28.41,2.13,-97.18,2
1682,28.43,-1.13,-86.81,2
1683,28.44,9.59,-82.61,2
1684,28.45,14.22,-60.71,2
1685,28.47,15.4,-31.06,2
1686,28.48,27.52,-32.07,2
1687,28.49,40.03,-55.0,2
1688,28.51,30.02,-62.35,2
1689,28.52,6.45,-56.08,2
1690,28.53,-4.21,-54.32,2
1691,28.55,-0.04,-51.29,1
1692,28.56,4.68,-41.17,1
1693,28.57,-1.87,-35.3,1
1694,28.58,-15.09,-36.35,1
1695,28.6,-14.38,-31.21,1
1696,28.61,-3.57,-20.87,1
1697,28.62,-6.27,-17.77,1
1698,28.64,-13.38,-17.08,1
1699,28.65,-5.1,-7.35,1
1700,28.67,3.41,2.21,1
1701,28.68,-0.91,1.2,1
1702,28.69,1.6,1.1,1
1703,28.7,17.67,11.56,1
1704,28.72,25.6,21.7,1
1705,28.73,13.37,24.1,1
1706,28.75,-11.17,26.62,1
1707,28.76,-27.62,28.34,1
1708,28.77,-16.77,28.45,1
1709,28.78,6.09,36.29,1
1710,28.8,9.11,44.14,1
1711,28.81,-2.85,37.14,1
1712,28.82,-8.03,23.55,1
1713,28.84,-6.1,19.92,1
1714,28.85,3.18,21.4,1
1715,28.86,16.36,18.35,1
1716,28.88,8.64,20.06,1
1717,28.89,-16.48,29.02,1
1718,28.9,-21.49,31.79,1
1719,28.92,-7.53,29.0,1
1720,28.93,-4.48,31.19,1
1721,28.94,-9.02,33.45,1
1722,28.96,-3.78,27.07,1
1723,28.97,4.31,20.47,1
1724,28.98,2.95,24.23,1
1725,29.0,-2.93,31.54,1
1726,29.01,-5.82,32.08,1
1727,29.03,-10.57,27.79,1
1728,29.04,-17.07,22.46,1
1729,29.05,-13.08,16.98,1
1730,29.07,-1.89,16.44,1
1731,29.08,7.41,23.68,1
1732,29.09,12.9,31.15,1
1733,29.11,3.02,31.43,1
1734,29.12,-16.1,25.4,1
1735,29.13,-16.91,17.98,1
1736,29.15,-3.77,15.25,1
1737,29.16,3.92,21.27,1
1738,29.17,7.02,27.69,1
1739,29.19,2.95,21.99,1
1740,29.2,-6.31,13.96,1
1741,29.21,-1.65,20.05,1
1742,29.22,12.08,31.49,1
1743,29.24,12.19,29.59,1
1744,29.25,2.33,17.78,1
1745,29.26,-3.66,11.71,1
1746,29.28,-5.5,13.56,1
1747,29.29,-0.95,10.39,1
1748,29.3,9.7,0.92,1
1749,29.32,14.95,1.56,1
1750,29.33,11.51,12.55,1
1751,29.34,7.91,16.36,1
1752,29.36,4.9,16.97,1
1753,29.37,-0.46,23.13,1
1754,29.38,-2.9,19.49,1
1755,29.4,-0.08,6.71,1
1756,29.41,-0.06,6.81,1
1757,29.42,-6.36,13.3,1
1758,29.44,-11.13,8.73,1
1759,29.45,-7.87,1.69,1
1760,29.46,-2.07,-1.02,1
1761,29.48,-2.94,-6.45,1
1762,29.49,-5.97,-8.42,1
1763,29.5,-0.37,-2.67,1
1764,29.52,9.94,-1.14,1
1765,29.53,14.23,-2.1,1
1766,29.54,9.61,4.76,1
1767,29.56,0.74,10.11,1
1768,29.57,-5.23,4.44,1
1769,29.58,-4.76,-1.94,1
1770,29.6,0.77,-3.65,1
1771,29.61,6.84,-7.89,1
1772,29.62,7.97,-11.65,1
1773,29.64,3.8,-7.83,1
1774,29.65,-1.19,-7.22,1
1775,29.67,-0.71,-17.39,1
1776,29.68,6.59,-19.37,1
1777,29.69,10.54,-7.79,1
1778,29.71,0.85,-4.65,1
1779,29.72,-13.07,-12.84,1
1780,29.73,-11.99,-16.88,1
1781,29.75,1.99,-13.12,1
1782,29.76,10.41,-6.7,1
1783,29.77,7.69,-5.93,1
1784,29.79,-3.6,-14.89,1
1785,29.8,-18.12,-22.12,1
1786,29.81,-21.73,-16.33,1
1787,29.83,-9.48,-3.98,1
1788,29.84,5.76,-0.68,1
1789,29.85,13.28,-11.05,1
1790,29.86,9.23,-21.14,1
1791,29.88,-4.03,-19.2,1
1792,29.89,-11.12,-14.1,1
1793,29.9,-4.82,-11.63,1
1794,29.92,0.39,-5.9,1
1795,29.93,-0.66,-5.9,1
1796,29.94,1.05,-18.76,1
1797,29.96,3.42,-24.07,1
1798,29.97,1.84,-15.43,1
1799,29.98,-1.61,-15.34,1
1800,30.0,-8.32,-22.91,1
1801,30.01,-15.18,-18.37,1
1802,30.02,-13.25,-12.77,1
1803,30.04,-4.91,-18.08,1
1804,30.05,-3.73,-15.69,1
1805,30.06,-10.2,-3.63,1
1806,30.08,-7.3,-4.59,1
1807,30.09,7.59,-13.38,1
1808,30.1,14.7,-11.17,1
1809,30.12,6.31,-12.44,1
1810,30.13,-0.49,-27.99,1
1811,30.14,3.67,-34.33,1
1812,30.16,6.79,-27.07,2
1813,30.17,3.08,-18.11,2
1814,30.18,-4.17,8.13,2
1815,30.2,-10.41,60.31,2
1816,30.21,-5.45,133.85,2
1817,30.22,11.75,191.77,2
1818,30.24,25.12,164.51,2
1819,30.25,21.07,70.81,2
1820,30.26,4.35,-9.24,2
1821,30.28,-9.14,-37.19,2
1822,30.29,-14.11,-10.04,2
1823,30.3,-10.84,14.87,2
1824,30.32,13.35,-2.14,2
1825,30.33,53.03,-16.69,2
1826,30.35,63.89,-25.2,2
1827,30.36,25.19,-40.46,2
1828,30.37,-22.43,-18.13,2
1829,30.39,-35.25,47.55,2
1830,30.4,-19.17,65.88,2
1831,30.41,-11.45,-30.87,2
1832,30.43,-20.39,-141.56,2
1833,30.44,-18.96,-135.56,2
1834,30.45,-7.32,-43.87,2
1835,30.47,-7.3,18.76,2
1836,30.48,-17.96,-16.8,2
1837,30.49,-27.02,-96.56,2
1838,30.5,-18.56,-98.27,2
1839,30.52,6.24,-50.54,2
1840,30.53,10.11,-88.93,2
1841,30.54,-11.91,-147.01,2
1842,30.56,-14.76,-66.13,1
1843,30.57,7.56,38.27,1
1844,30.58,12.09,-27.01,1
1845,30.6,-5.6,-142.18,1
1846,30.61,-6.3,-102.0,1
1847,30.62,10.28,-0.07,1
1848,30.64,11.39,-11.07,1
1849,30.65,1.71,-56.78,1
1850,30.67,8.75,7.33,1
1851,30.68,26.63,113.83,1
1852,30.69,30.35,104.36,1
1853,30.7,21.33,24.76,1
1854,30.72,10.22,32.48,1
1855,30.73,0.46,73.48,1
1856,30.75,-0.44,10.03,1
1857,30.76,-3.94,-81.62,1
1858,30.77,-19.95,-74.18,1
1859,30.78,-23.65,-32.04,1
1860,30.8,-9.29,-43.5,1
1861,30.81,-4.73,-51.82,1
1862,30.82,-5.89,-22.99,1
1863,30.84,15.3,-9.62,1
1864,30.85,37.51,-0.64,1
1865,30.86,24.59,14.03,1
1866,30.88,4.49,4.16,1
1867,30.89,13.76,11.97,1
1868,30.9,26.09,39.23,1
1869,30.92,7.25,51.68,1
1870,30.93,-14.22,86.38,1
1871,30.94,-3.31,103.21,1
1872,30.96,11.36,40.02,1
1873,30.97,-0.47,-21.98,1
1874,30.99,-19.13,-13.45,1
1875,31.0,-19.24,20.1,1
1876,31.01,-5.19,18.95,1
1877,31.03,2.34,-18.56,1
1878,31.04,3.33,-22.34,1
1879,31.05,7.1,46.89,1
1880,31.07,5.17,98.38,1
1881,31.08,-5.9,52.84,1
1882,31.09,-13.11,-1.34,1
1883,31.11,-5.52,34.87,1
1884,31.12,9.91,73.44,1
1885,31.13,8.35,2.94,1
1886,31.14,-12.7,-66.74,1
1887,31.16,-18.5,1.87,1
1888,31.17,1.73,81.77,1
1889,31.18,16.08,27.05,1
1890,31.2,7.66,-46.42,1
1891,31.21,-6.99,-24.58,1
1892,31.22,-12.65,24.63,1
1893,31.24,-8.3,47.26,1
1894,31.25,1.65,69.89,1
1895,31.26,11.1,93.71,1
1896,31.28,16.68,78.47,1
1897,31.29,13.82,25.79,1
1898,31.3,0.26,-6.89,1
1899,31.32,-12.06,-5.68,1
1900,31.33,-13.33,-11.28,1
1901,31.34,-11.51,-44.65,1
1902,31.36,-14.1,-71.74,1
1903,31.37,-14.8,-27.12,1
1904,31.38,-8.96,45.09,1
1905,31.4,-2.28,29.97,1
1906,31.41,4.36,-30.08,1
1907,31.42,6.94,-38.77,1
1908,31.44,-3.32,-16.65,1
1909,31.45,-14.38,13.72,1
1910,31.46,-5.43,41.23,1
1911,31.48,14.14,11.1,1
1912,31.49,11.67,-60.18,1
1913,31.5,-12.64,-66.42,1
1914,31.52,-18.16,14.59,1
1915,31.53,3.21,75.49,1
1916,31.54,11.8,57.98,1
1917,31.56,3.54,6.54,1
1918,31.57,7.15,-48.28,1
1919,31.58,10.6,-67.42,1
1920,31.6,-3.84,-13.96,1
1921,31.61,-11.25,52.83,1
1922,31.63,0.06,60.23,1
1923,31.64,2.93,16.7,1
1924,31.65,-5.92,-14.2,1
1925,31.67,-1.83,-11.48,1
1926,31.68,8.36,-31.08,1
1927,31.69,2.78,-57.83,1
1928,31.71,-13.07,-19.94,1
1929,31.72,-18.2,26.51,1
1930,31.73,-2.07,5.27,1
1931,31.75,11.13,-33.05,1
1932,31.76,-3.78,-23.41,1
1933,31.77,-20.07,21.97,1
1934,31.78,-9.2,50.39,1
1935,31.8,3.48,36.78,1
1936,31.81,-8.15,12.75,1
1937,31.82,-18.59,-11.5,1
1938,31.84,-0.62,-73.4,1
1939,31.85,16.28,-107.92,1
1940,31.86,2.93,-22.05,1
1941,31.88,-9.75,74.77,1
1942,31.89,1.78,55.04,1
1943,31.9,10.73,-10.95,1
1944,31.92,2.93,-32.13,1
1945,31.93,-0.71,-16.5,1
1946,31.94,5.21,15.59,1
1947,31.96,8.37,49.25,1
1948,31.97,9.73,55.3,1
1949,31.98,6.85,24.19,1
1950,32.0,-3.64,-22.54,1
1951,32.01,-10.0,-33.02,1
1952,32.03,-12.2,4.29,1
1953,32.04,-13.19,14.67,1
1954,32.05,-9.91,-28.23,1
1955,32.06,-10.12,-47.99,1
1956,32.08,-4.55,10.35,1
1957,32.09,17.14,76.19,1
1958,32.11,29.59,47.32,1
1959,32.12,19.9,-20.44,1
1960,32.13,1.72,-21.24,1
1961,32.15,-16.53,20.24,1
1962,32.16,-22.72,43.54,0
1963,32.17,-12.31,35.68,0
1964,32.19,-1.76,12.55,0
1965,32.2,0.84,-2.2,0
1966,32.21,1.9,-12.25,0
1967,32.22,5.1,-20.77,0
1968,32.24,5.76,-6.88,0
1969,32.25,1.52,15.95,0
1970,32.27,1.72,7.95,0
1971,32.28,4.53,-25.69,0
1972,32.29,-0.66,-63.91,0
1973,32.31,-2.19,-116.69,0
1974,32.32,7.15,-176.27,0
1975,32.33,13.44,-198.1,0
1976,32.35,11.41,-168.22,0
1977,32.36,8.21,-127.55,0
1978,32.37,11.78,-101.73,0
1979,32.39,20.66,-64.14,0
1980,32.4,23.11,-12.15,0
1981,32.41,6.28,14.66,0
1982,32.43,-21.66,22.51,0
1983,32.44,-24.34,48.48,0
1984,32.45,5.73,79.51,0
1985,32.47,21.28,82.79,0
1986,32.48,-3.81,66.76,0
1987,32.49,-28.81,63.11,0
1988,32.51,-18.81,74.15,0
1989,32.52,-1.46,74.72,0
1990,32.53,-3.01,61.39,0
1991,32.54,-4.32,53.61,0
1992,32.56,6.91,56.29,1
1993,32.57,12.48,59.57,1
1994,32.59,1.23,54.87,1
1995,32.6,-7.87,42.12,1
1996,32.61,0.46,33.31,1
1997,32.63,8.9,38.95,1
1998,32.64,4.82,49.91,1
1999,32.65,-1.84,48.87,1
2000,32.67,-8.66,36.12,1
2001,32.68,-13.07,24.93,1
2002,32.69,-5.79,25.81,1
2003,32.71,0.4,40.64,1
2004,32.72,-9.47,54.23,1
2005,32.73,-18.59,52.16,1
2006,32.75,-8.02,42.63,1
2007,32.76,12.24,35.84,1
2008,32.77,21.8,28.83,1
2009,32.79,15.96,24.55,1
2010,32.8,7.17,30.6,1
2011,32.81,5.09,32.18,1
2012,32.83,4.31,14.77,1
2013,32.84,1.35,3.5,1
2014,32.85,-0.86,14.37,1
2015,32.87,-6.0,18.99,1
2016,32.88,-8.94,5.8,1
2017,32.89,1.79,-1.06,1
2018,32.9,10.47,3.72,1
2019,32.92,-0.32,1.94,1
2020,32.93,-7.76,-6.05,1
2021,32.95,6.93,-5.52,1
2022,32.96,16.9,-1.89,1
2023,32.97,7.22,-3.86,1
2024,32.99,4.33,-0.47,1
2025,33.0,13.59,7.93,1
2026,33.01,10.5,2.75,1
2027,33.03,-0.26,-11.83,1
2028,33.04,1.43,-12.28,1
2029,33.05,5.76,-2.66,1
2030,33.06,-0.65,-6.18,1
2031,33.08,-6.17,-17.14,1
2032,33.09,-1.42,-14.65,1
2033,33.11,5.0,-3.76,1
2034,33.12,3.59,-1.91,1
2035,33.13,-4.47,-9.98,1
2036,33.15,-14.62,-18.74,1
2037,33.16,-22.5,-25.44,1
2038,33.17,-17.72,-30.39,1
2039,33.19,-0.9,-32.92,1
2040,33.2,10.29,-33.06,1
2041,33.21,10.04,-25.07,1
2042,33.22,5.14,-13.26,1
2043,33.24,-1.85,-17.06,1
2044,33.25,-3.21,-29.23,1
2045,33.27,5.66,-26.3,1
2046,33.28,12.29,-15.59,1
2047,33.29,4.87,-15.8,1
2048,33.31,-9.98,-22.39,1
2049,33.32,-11.83,-24.08,1
2050,33.33,2.78,-25.18,1
2051,33.35,8.55,-32.32,1
2052,33.36,-0.43,-39.8,1
2053,33.37,-3.85,-40.6,1
2054,33.38,-2.97,-36.48,1
2055,33.4,-4.55,-28.44,1
2056,33.41,2.93,-17.36,1
2057,33.43,13.2,-14.63,1
2058,33.44,5.76,-23.48,1
2059,33.45,-10.09,-27.58,1
2060,33.47,-9.84,-20.73,1
2061,33.48,3.33,-16.89,1
2062,33.49,6.27,-20.5,1
2063,33.51,-3.7,-20.89,1
2064,33.52,-6.64,-21.13,1
2065,33.53,0.71,-27.8,1
2066,33.54,0.34,-29.83,1
2067,33.56,-6.4,-25.88,1
2068,33.57,-2.55,-21.33,1
2069,33.59,2.5,-8.98,1
2070,33.6,-1.73,2.49,1
2071,33.61,1.98,-1.27,1
2072,33.63,12.51,-7.13,1
2073,33.64,7.98,-3.93,1
2074,33.65,-5.86,-4.3,1
2075,33.67,-8.77,-12.42,1
2076,33.68,-6.73,-15.64,1
2077,33.69,-11.46,-10.75,1
2078,33.71,-13.09,-6.71,1
2079,33.72,-5.05,-8.86,1
2080,33.73,2.97,-16.45,1
2081,33.75,7.36,-21.44,1
2082,33.76,8.55,-14.56,1
2083,33.77,1.33,-1.41,1
2084,33.79,-7.34,6.45,1
2085,33.8,-4.12,7.19,1
2086,33.81,1.26,4.75,1
2087,33.83,-3.34,0.29,1
2088,33.84,-5.88,-5.47,1
2089,33.85,1.6,-6.94,1
2090,33.87,7.66,0.39,1
2091,33.88,4.46,11.41,1
2092,33.89,-3.99,15.19,1
2093,33.9,-12.36,12.2,1
2094,33.92,-12.37,10.04,1
2095,33.93,-1.63,3.64,1
2096,33.95,-0.5,-7.51,1
2097,33.96,-16.43,-11.15,1
2098,33.97,-17.76,-3.95,1
2099,33.99,5.24,6.73,1
2100,34.0,18.65,10.72,1
2101,34.01,11.68,6.0,1
2102,34.03,5.87,1.81,1
2103,34.04,4.75,1.32,1
2104,34.05,-2.24,2.39,1
2105,34.06,-8.32,3.02,1
2106,34.08,-3.9,2.12,1
2107,34.09,5.28,7.47,1
2108,34.11,13.0,20.45,1
2109,34.12,11.82,26.46,1
2110,34.13,-3.95,17.97,1
2111,34.15,-17.73,2.36,1
2112,34.16,-10.96,-7.86,0
2113,34.17,9.78,-4.67,0
2114,34.19,22.43,4.93,0
2115,34.2,14.15,-2.03,0
2116,34.21,-4.59,-46.05,0
2117,34.23,-16.34,-106.88,0
2118,34.24,-12.2,-131.98,0
2119,34.25,-0.22,-118.75,0
2120,34.27,-2.12,-117.98,0
2121,34.28,-13.26,-133.67,0
2122,34.29,-14.51,-124.9,0
2123,34.31,-13.7,-93.2,0
2124,34.32,-9.64,-67.41,0
2125,34.33,10.88,-46.63,0
2126,34.35,20.69,-22.47,0
2127,34.36,-0.28,1.07,0
2128,34.37,-14.1,24.29,0
2129,34.38,-0.35,43.06,0
2130,34.4,8.48,49.6,0
2131,34.41,4.08,57.86,0
2132,34.43,10.13,82.83,0
2133,34.44,20.16,110.28,0
2134,34.45,15.94,125.78,0
2135,34.47,10.51,135.86,0
2136,34.48,16.79,142.55,0
2137,34.49,22.82,141.96,0
2138,34.51,20.59,141.81,0
2139,34.52,13.9,146.55,0
2140,34.53,2.38,146.89,0
2141,34.54,-6.0,137.13,0
2142,34.56,0.79,122.59,1
2143,34.57,13.8,115.09,1
2144,34.59,13.46,118.17,1
2145,34.6,0.61,119.01,1
2146,34.61,-5.45,110.4,1
2147,34.63,-5.25,98.51,1
2148,34.64,-12.74,86.91,1
2149,34.65,-16.56,72.5,1
2150,34.67,-10.52,53.18,1
2151,34.68,-14.87,37.58,1
2152,34.69,-24.49,33.37,1
2153,34.71,-16.25,34.0,1
2154,34.72,-1.04,32.4,1
2155,34.73,-0.95,23.02,1
2156,34.75,-11.37,4.12,1
2157,34.76,-11.44,-10.55,1
2158,34.77,1.38,-8.18,1
2159,34.79,5.9,2.09,1
2160,34.8,-0.23,0.59,1
2161,34.81,-0.48,-14.29,1
2162,34.83,3.06,-26.6,1
2163,34.84,2.79,-30.62,1
2164,34.85,3.75,-31.85,1
2165,34.87,5.86,-29.4,1
2166,34.88,3.43,-26.07,1
2167,34.89,2.4,-32.98,1
2168,34.91,8.31,-44.27,1
2169,34.92,7.59,-46.63,1
2170,34.93,-5.59,-45.29,1
2171,34.95,-14.79,-45.39,1
2172,34.96,-16.19,-44.16,1
2173,34.97,-15.55,-44.54,1
2174,34.99,-5.18,-45.93,1
2175,35.0,10.26,-45.09,1
2176,35.01,9.95,-46.08,1
2177,35.03,-4.71,-49.19,1
2178,35.04,-9.91,-49.1,1
2179,35.05,3.07,-47.74,1
2180,35.06,11.39,-49.74,1
2181,35.08,-0.5,-51.17,1
2182,35.09,-11.49,-47.86,1
2183,35.11,-4.38,-45.43,1
2184,35.12,2.34,-48.74,1
2185,35.13,-6.03,-52.23,1
2186,35.15,-13.72,-53.15,1
2187,35.16,-6.16,-54.4,1
2188,35.17,5.4,-48.88,1
2189,35.19,4.42,-38.06,1
2190,35.2,-5.24,-42.32,1
2191,35.21,-8.59,-57.86,1
2192,35.22,-2.57,-56.99,1
2193,35.24,3.18,-40.25,1
2194,35.25,2.33,-31.77,1
2195,35.27,-4.17,-32.91,1
2196,35.28,-10.76,-28.68,1
2197,35.29,-9.28,-21.45,1
2198,35.31,-1.61,-18.92,1
2199,35.32,1.27,-18.31,1
2200,35.33,-0.07,-20.86,1
2201,35.35,1.16,-27.16,1
2202,35.36,4.48,-28.33,1
2203,35.37,11.6,-23.8,1
2204,35.38,18.85,-21.73,1
2205,35.4,12.53,-21.13,1
2206,35.41,0.95,-17.87,1
2207,35.43,1.28,-15.03,1
2208,35.44,2.23,-15.05,1
2209,35.45,-5.2,-17.52,1
2210,35.47,-8.42,-22.32,1
2211,35.48,-4.19,-25.41,1
2212,35.49,-0.64,-22.98,1
2213,35.51,1.01,-17.27,1
2214,35.52,5.15,-12.63,1
2215,35.53,12.65,-10.08,1
2216,35.55,16.72,-7.64,1
2217,35.56,11.75,-5.77,1
2218,35.57,3.76,-4.47,1
2219,35.59,-3.28,-3.34,1
2220,35.6,-10.03,-4.66,1
2221,35.61,-11.33,-2.99,1
2222,35.63,-6.42,8.21,1
2223,35.64,4.03,17.23,1
2224,35.65,17.98,10.24,1
2225,35.67,20.71,-3.99,1
2226,35.68,9.76,-4.05,1
2227,35.69,3.82,13.29,1
2228,35.71,7.61,26.42,1
2229,35.72,9.5,21.88,1
2230,35.73,3.24,15.28,1
2231,35.75,-10.01,20.97,1
2232,35.76,-20.47,26.9,1
2233,35.77,-15.6,21.31,1
2234,35.79,2.09,13.3,1
2235,35.8,11.26,14.07,1
2236,35.81,-1.9,20.89,1
2237,35.83,-14.16,21.58,1
2238,35.84,-1.51,14.68,1
2239,35.85,13.19,13.33,1
2240,35.87,6.07,21.07,1
2241,35.88,-2.53,27.94,1
2242,35.89,4.48,28.34,1
2243,35.9,6.71,24.73,1
2244,35.92,-6.08,21.8,1
2245,35.93,-9.34,17.75,1
2246,35.95,3.98,11.83,1
2247,35.96,11.58,12.63,1
2248,35.97,11.04,20.41,1
2249,35.99,12.07,23.48,1
2250,36.0,6.86,22.54,1
2251,36.01,-3.46,24.04,1
2252,36.03,-0.92,20.48,1
2253,36.04,8.1,11.51,1
2254,36.05,-0.63,8.94,1
2255,36.06,-14.41,10.95,1
2256,36.08,-5.09,12.74,1
2257,36.09,10.99,17.99,1
2258,36.11,7.71,31.07,1
2259,36.12,-2.91,75.24,1
2260,36.13,-1.09,167.87,1
2261,36.15,6.47,259.14,1
2262,36.16,5.41,289.21,2
2263,36.17,4.31,270.38,2
2264,36.19,13.48,229.74,2
2265,36.2,17.6,162.88,2
2266,36.21,3.0,89.44,2
2267,36.23,-17.59,34.97,2
2268,36.24,-24.12,-22.8,2
2269,36.25,-11.84,-90.81,2
2270,36.27,4.3,-136.31,2
2271,36.28,6.25,-158.04,2
2272,36.29,-2.59,-175.17,2
2273,36.31,-6.15,-179.1,2
2274,36.32,-4.69,-163.1,2
2275,36.33,-6.57,-146.86,2
2276,36.35,-7.7,-143.8,2
2277,36.36,-9.19,-140.12,2
2278,36.37,-16.55,-119.21,2
2279,36.38,-15.57,-95.08,2
2280,36.4,-0.05,-87.46,2
2281,36.41,6.7,-83.92,2
2282,36.43,-5.88,-69.5,2
2283,36.44,-17.2,-48.8,2
2284,36.45,-6.73,-35.31,2
2285,36.47,13.99,-45.24,2
2286,36.48,18.43,-67.62,2
2287,36.49,8.79,-68.17,2
2288,36.51,-0.57,-47.34,2
2289,36.52,-9.86,-33.06,2
2290,36.53,-13.22,-32.44,2
2291,36.54,-7.08,-36.66,2
2292,36.56,-6.43,-35.87,1
2293,36.57,-12.82,-24.74,1
2294,36.59,-9.12,-16.46,1
2295,36.6,1.74,-19.28,1
2296,36.61,-0.24,-17.95,1
2297,36.63,-11.47,-7.1,1
2298,36.64,-8.68,2.9,1
2299,36.65,6.91,9.93,1
2300,36.67,10.96,15.07,1
2301,36.68,-0.49,17.56,1
2302,36.69,-7.21,16.16,1
2303,36.71,-2.18,10.93,1
2304,36.72,0.39,10.0,1
2305,36.73,-3.96,17.95,1
2306,36.75,-1.58,24.01,1
2307,36.76,8.38,23.83,1
2308,36.77,11.34,25.09,1
2309,36.79,5.12,28.36,1
2310,36.8,-1.41,28.17,1
2311,36.81,-5.11,27.16,1
2312,36.83,-5.42,28.25,1
2313,36.84,0.36,26.42,1
2314,36.85,7.03,19.97,1
2315,36.87,5.91,20.21,1
2316,36.88,-0.71,32.1,1
2317,36.89,-5.04,42.54,1
2318,36.9,-3.03,41.46,1
2319,36.92,6.2,36.68,1
2320,36.93,14.51,38.8,1
2321,36.95,10.13,41.54,1
2322,36.96,-2.19,35.74,1
2323,36.97,-8.22,27.37,1
2324,36.99,-7.62,21.46,1
2325,37.0,-5.77,20.26,1
2326,37.01,0.31,31.25,1
2327,37.03,6.68,44.37,1
2328,37.04,4.21,41.52,1
2329,37.05,-1.82,32.68,1
2330,37.06,-6.93,35.8,1
2331,37.08,-13.16,41.43,1
2332,37.09,-11.43,34.34,1
2333,37.11,-0.85,23.71,1
2334,37.12,3.34,21.75,1
2335,37.13,0.36,23.75,1
2336,37.15,1.98,25.49,1
2337,37.16,8.88,25.94,1
2338,37.17,10.19,22.53,1
2339,37.19,2.97,17.8,1
2340,37.2,-0.85,15.69,1
2341,37.21,4.23,12.98,1
2342,37.22,9.77,9.66,1
2343,37.24,6.63,9.97,1
2344,37.25,-4.84,9.33,1
2345,37.27,-9.32,3.22,1
2346,37.28,0.29,-0.87,1
2347,37.29,8.42,4.24,1
2348,37.31,7.07,16.71,1
2349,37.32,7.9,27.71,1
2350,37.33,15.56,22.47,1
2351,37.35,13.97,3.61,1
2352,37.36,-3.85,-2.3,1
2353,37.37,-13.87,6.5,1
2354,37.38,-1.56,2.52,1
2355,37.4,13.94,-13.4,1
2356,37.41,18.07,-16.28,1
2357,37.43,14.85,-7.79,1
2358,37.44,8.58,-1.18,1
2359,37.45,2.14,6.55,1
2360,37.47,-1.73,13.02,1
2361,37.48,-3.7,7.0,1
2362,37.49,-3.53,-7.73,1
2363,37.51,3.91,-14.43,1
2364,37.52,12.09,-10.46,1
2365,37.53,3.62,-7.12,1
2366,37.54,-16.25,-5.38,1
2367,37.56,-26.67,-3.4,1
2368,37.57,-24.75,-5.13,1
2369,37.59,-15.79,-7.23,1
2370,37.6,-2.8,-9.01,1
2371,37.61,5.59,-13.75,1
2372,37.63,6.7,-12.13,1
2373,37.64,8.59,-0.36,1
2374,37.65,10.21,6.72,1
2375,37.67,4.51,-0.25,1
2376,37.68,0.73,-12.91,1
2377,37.69,6.63,-18.01,1
2378,37.71,9.46,-14.51,1
2379,37.72,2.22,-11.21,1
2380,37.73,-7.86,-7.13,1
2381,37.75,-14.94,-0.4,1
2382,37.76,-14.05,-3.57,1
2383,37.77,-4.85,-15.6,1
2384,37.79,2.57,-19.96,1
2385,37.8,3.58,-21.99,1
2386,37.81,8.64,-30.64,1
2387,37.83,16.12,-26.41,1
2388,37.84,4.44,-2.67,1
2389,37.85,-18.64,6.28,1
2390,37.87,-21.92,-10.02,1
2391,37.88,-9.84,-17.95,1
2392,37.89,-2.64,-8.37,1
2393,37.9,1.47,-5.18,1
2394,37.92,4.19,-12.28,1
2395,37.93,-1.02,-14.07,1
2396,37.95,-8.06,-14.44,1
2397,37.96,-7.1,-24.96,1
2398,37.97,-1.02,-28.77,1
2399,37.99,5.68,-14.79,1
2400,38.0,8.41,-5.89,1
2401,38.01,2.39,-13.64,1
2402,38.03,-2.45,-20.84,1
2403,38.04,3.09,-16.44,1
2404,38.05,5.82,-7.75,1
2405,38.06,-6.04,-2.05,1
2406,38.08,-17.78,2.25,1
2407,38.09,-11.25,3.3,1
2408,38.11,4.25,-1.88,1
2409,38.12,9.9,-11.68,1
2410,38.13,6.23,-24.44,1
2411,38.15,4.66,-32.43,1
2412,38.16,2.35,-21.92,2
2413,38.17,-3.83,15.15,2
2414,38.19,1.75,74.86,2
2415,38.2,16.22,127.05,2
2416,38.21,19.28,129.04,2
2417,38.22,18.84,98.94,2
2418,38.24,18.75,107.05,2
2419,38.25,0.75,118.33,2
2420,38.27,-17.88,8.33,2
2421,38.28,-12.31,-187.97,2
2422,38.29,1.57,-292.45,2
2423,38.31,21.28,-205.97,2
2424,38.32,50.97,40.23,2
2425,38.33,51.85,260.08,2
2426,38.35,-3.42,265.05,2
2427,38.36,-68.15,137.62,2
2428,38.37,-69.77,67.77,2
2429,38.38,-22.06,79.5,2
2430,38.4,3.94,92.92,2
2431,38.41,5.41,49.49,2
2432,38.43,9.12,-40.13,2
2433,38.44,-3.06,-101.94,2
2434,38.45,-27.89,-94.96,2
2435,38.47,-27.0,-80.74,2
2436,38.48,-8.5,-121.06,2
2437,38.49,-8.74,-158.63,2
2438,38.51,-20.11,-119.05,2
2439,38.52,-17.28,-60.57,2
2440,38.53,-7.42,-79.3,2
2441,38.54,-6.85,-141.27,2
2442,38.56,-9.94,-157.71,1
2443,38.57,-4.67,-122.52,1
2444,38.59,6.23,-68.58,1
2445,38.6,12.98,-26.08,1
2446,38.61,12.61,-24.61,1
2447,38.63,7.43,-48.03,1
2448,38.64,4.01,-60.64,1
2449,38.65,4.88,-55.0,1
2450,38.67,5.94,-39.42,1
2451,38.68,10.92,-33.09,1
2452,38.69,16.29,-19.61,1
2453,38.71,12.78,30.77,1
2454,38.72,8.89,59.68,1
2455,38.73,9.13,27.63,1
2456,38.75,10.97,2.01,1
2457,38.76,13.81,12.61,1
2458,38.77,5.27,13.33,1
2459,38.79,-10.5,-13.83,1
2460,38.8,-9.44,-30.67,1
2461,38.81,0.02,-26.26,1
2462,38.83,-5.59,-33.71,1
2463,38.84,-6.12,-51.63,1
2464,38.85,15.64,-40.9,1
2465,38.87,25.07,5.31,1
2466,38.88,5.39,18.45,1
2467,38.89,-9.2,-20.51,1
2468,38.9,-0.54,-25.93,1
2469,38.92,11.1,4.49,1
2470,38.93,12.33,17.29,1
2471,38.95,9.94,45.56,1
2472,38.96,5.36,81.27,1
2473,38.97,-7.52,59.36,1
2474,38.99,-18.1,33.02,1
2475,39.0,-8.82,58.15,1
2476,39.01,4.64,56.04,1
2477,39.03,-2.96,9.82,1
2478,39.04,-11.5,5.73,1
2479,39.05,1.83,49.1,1
2480,39.06,7.84,76.83,1
2481,39.08,-14.47,49.51,1
2482,39.09,-30.57,-18.49,1
2483,39.11,-10.15,-49.38,1
2484,39.12,24.03,-19.63,1
2485,39.13,28.65,-12.24,1
2486,39.15,3.21,-33.33,1
2487,39.16,-10.27,-3.62,1
2488,39.17,1.65,47.0,1
2489,39.19,7.7,40.51,1
2490,39.2,-5.89,7.18,1
2491,39.21,-16.3,-11.73,1
2492,39.22,-8.36,-22.48,1
2493,39.24,3.41,3.8,1
2494,39.25,4.88,55.92,1
2495,39.27,2.08,65.81,1
2496,39.28,3.7,46.91,1
2497,39.29,3.86,41.88,1
2498,39.31,-1.0,43.47,1
2499,39.32,1.71,35.39,1
2500,39.33,10.26,6.48,1
2501,39.35,14.01,-19.41,1
2502,39.36,23.49,4.69,1
2503,39.37,34.42,46.51,1
2504,39.38,20.92,15.69,1
2505,39.4,-6.73,-51.34,1
2506,39.41,-16.02,-33.26,1
2507,39.43,-9.91,29.17,1
2508,39.44,-9.08,32.16,1
2509,39.45,-6.27,9.29,1
2510,39.47,7.34,7.61,1
2511,39.48,9.52,32.62,1
2512,39.49,-5.07,71.33,1
2513,39.51,-8.55,56.48,1
2514,39.52,2.78,-18.5,1
2515,39.53,8.23,-58.01,1
2516,39.54,3.18,-15.04,1
2517,39.56,-5.81,53.92,1
2518,39.57,-17.05,84.67,1
2519,39.59,-24.06,72.51,1
2520,39.6,-20.01,51.83,1
2521,39.61,-8.02,66.49,1
2522,39.63,5.03,100.78,1
2523,39.64,8.79,79.31,1
2524,39.65,0.98,19.3,1
2525,39.67,-3.09,2.12,1
2526,39.68,3.41,11.72,1
2527,39.69,7.61,3.25,1
2528,39.71,3.73,-7.55,1
2529,39.72,1.53,-16.14,1
2530,39.73,3.58,-32.34,1
2531,39.75,4.96,-25.27,1
2532,39.76,4.92,10.19,1
2533,39.77,-3.44,18.11,1
2534,39.79,-23.1,-19.94,1
2535,39.8,-33.43,-58.59,1
2536,39.81,-22.14,-54.99,1
2537,39.83,-12.09,-17.44,1
2538,39.84,-11.98,26.37,1
2539,39.85,-2.17,64.48,1
2540,39.87,6.72,58.4,1
2541,39.88,-8.05,-8.85,1
2542,39.89,-19.73,-69.14,1
2543,39.9,-2.39,-60.78,1
2544,39.92,17.77,-13.22,1
2545,39.93,17.12,11.12,1
2546,39.95,7.77,17.26,1
2547,39.96,5.01,26.02,1
2548,39.97,7.61,22.41,1
2549,39.99,2.64,29.74,1
2550,40.0,-11.21,49.77,1
2551,40.01,-16.86,24.4,1
2552,40.03,-11.63,-19.76,1
2553,40.04,-7.56,-21.31,1
2554,40.05,-8.61,-16.15,1
2555,40.06,-16.92,-33.38,1
2556,40.08,-24.39,-34.67,1
2557,40.09,-10.62,-14.05,1
2558,40.11,13.63,-5.94,1
2559,40.12,13.61,-21.45,1
2560,40.13,-1.63,-31.22,1
2561,40.15,4.11,-15.89,1
2562,40.16,20.54,-0.04,0
2563,40.17,14.24,2.33,0
2564,40.19,-3.39,-6.13,0
2565,40.2,-1.88,-33.63,0
2566,40.21,9.0,-49.54,0
2567,40.22,4.12,-21.31,0
2568,40.24,-6.62,0.37,0
2569,40.25,-8.93,-32.05,0
2570,40.27,-10.83,-91.49,0
2571,40.28,-5.69,-150.82,0
2572,40.29,16.11,-200.53,0
2573,40.31,31.85,-216.81,0
2574,40.32,28.95,-191.43,0
2575,40.33,28.87,-145.49,0
2576,40.35,34.74,-101.08,0
2577,40.36,22.56,-62.23,0
2578,40.37,-3.28,-26.94,0
2579,40.38,-9.17,0.7,0
2580,40.4,8.94,18.8,0
2581,40.41,21.99,36.0,0
2582,40.43,16.79,60.23,0
2583,40.44,3.77,80.56,0
2584,40.45,-3.35,83.3,0
2585,40.47,-1.37,78.57,0
2586,40.48,1.02,76.5,0
2587,40.49,0.22,69.61,0
2588,40.51,-1.95,61.56,0
2589,40.52,-8.47,64.28,0
2590,40.53,-14.51,70.14,0
2591,40.54,-10.83,62.27,0
2592,40.56,-6.84,45.21,1
2593,40.57,-10.58,39.46,1
2594,40.59,-10.57,42.49,1
2595,40.6,-4.54,35.57,1
2596,40.61,-0.52,28.31,1
2597,40.63,2.74,40.45,1
2598,40.64,0.05,59.06,1
2599,40.65,-14.49,56.32,1
2600,40.67,-25.93,33.99,1
2601,40.68,-18.66,19.53,1
2602,40.69,-2.34,24.08,1
2603,40.71,-0.14,32.99,1
2604,40.72,-15.22,32.96,1
2605,40.73,-22.85,28.18,1
2606,40.75,-6.85,29.59,1
2607,40.76,13.82,34.53,1
2608,40.77,13.24,32.01,1
2609,40.79,-4.01,29.18,1
2610,40.8,-11.84,31.14,1
2611,40.81,-3.01,24.89,1
2612,40.83,1.38,17.0,1
2613,40.84,-5.0,19.55,1
2614,40.85,1.07,18.58,1
2615,40.87,21.18,7.53,1
2616,40.88,27.44,-0.06,1
2617,40.89,16.37,2.11,1
2618,40.9,7.24,9.06,1
2619,40.92,1.27,13.88,1
2620,40.93,-1.13,7.59,1
2621,40.95,9.48,-5.82,1
2622,40.96,19.53,-6.6,1
2623,40.97,13.48,5.93,1
2624,40.99,1.85,11.68,1
2625,41.0,-7.52,4.7,1
2626,41.01,-12.75,-7.22,1
2627,41.03,-9.3,-21.04,1
2628,41.04,-4.4,-29.38,1
2629,41.05,-4.84,-18.2,1
2630,41.06,-7.87,0.08,1
2631,41.08,-12.71,-2.76,1
2632,41.09,-11.94,-17.61,1
2633,41.11,2.33,-16.94,1
2634,41.12,14.47,-8.87,1
2635,41.13,6.74,-14.7,1
2636,41.15,-7.98,-22.06,1
2637,41.16,-9.49,-15.03,1
2638,41.17,-2.46,-11.46,1
2639,41.19,-0.58,-25.51,1
2640,41.2,-2.7,-39.07,1
2641,41.21,-3.81,-29.9,1
2642,41.22,-6.47,-8.84,1
2643,41.24,-5.63,-8.27,1
2644,41.25,7.09,-28.04,1
2645,41.27,18.04,-40.91,1
2646,41.28,9.69,-43.81,1
2647,41.29,-4.4,-40.3,1
2648,41.31,-4.26,-24.05,1
2649,41.32,1.28,-11.04,1
2650,41.33,0.47,-14.58,1
2651,41.35,-2.01,-15.59,1
2652,41.36,-4.03,-8.45,1
2653,41.37,-2.33,-12.47,1
2654,41.38,5.64,-28.63,1
2655,41.4,5.54,-34.6,1
2656,41.41,-1.82,-21.68,1
2657,41.43,3.68,-8.25,1
2658,41.44,16.1,-8.42,1
2659,41.45,15.41,-16.05,1
2660,41.47,4.01,-19.91,1
2661,41.48,-4.55,-15.5,1
2662,41.49,-7.28,-11.41,1
2663,41.51,-9.73,-15.36,1
2664,41.52,-12.05,-18.33,1
2665,41.53,-7.53,-13.11,1
2666,41.54,2.3,-9.04,1
2667,41.56,4.08,-14.76,1
2668,41.57,-1.27,-21.78,1
2669,41.59,0.3,-17.23,1
2670,41.6,4.63,-8.93,1
2671,41.61,2.2,-10.38,1
2672,41.63,0.59,-9.82,1
2673,41.64,2.93,3.72,1
2674,41.65,3.1,10.19,1
2675,41.67,2.07,-1.56,1
2676,41.68,-0.15,-10.03,1
2677,41.69,-3.45,-6.13,1
2678,41.71,-2.28,-1.11,1
2679,41.72,-2.94,2.44,1
2680,41.73,-10.12,2.73,1
2681,41.75,-12.68,-2.28,1
2682,41.76,-10.89,-5.08,1
2683,41.77,-11.51,-6.32,1
2684,41.79,-3.94,-12.63,1
2685,41.8,10.73,-13.1,1
2686,41.81,10.23,-1.13,1
2687,41.83,-2.77,6.37,1
2688,41.84,-3.95,5.07,1
2689,41.85,6.15,7.38,1
2690,41.87,8.19,12.58,1
2691,41.88,2.77,10.85,1
2692,41.89,4.3,3.92,1
2693,41.9,10.89,4.38,1
2694,41.92,9.27,10.89,1
2695,41.93,-0.01,11.62,1
2696,41.95,-2.97,10.48,1
2697,41.96,-0.53,13.6,1
2698,41.97,-4.53,14.02,1
2699,41.99,-6.9,6.02,1
2700,42.0,-0.56,-7.73,1
2701,42.01,-1.95,-18.03,1
2702,42.03,-9.98,-17.59,1
2703,42.04,-5.06,-7.14,1
2704,42.05,2.57,4.15,1
2705,42.06,-3.21,3.59,1
2706,42.08,-9.23,-6.01,1
2707,42.09,-7.59,-7.09,1
2708,42.11,-3.64,1.79,1
2709,42.12,1.14,7.46,1
2710,42.13,2.07,8.08,1
2711,42.15,-1.21,9.4,1
2712,42.16,-1.01,7.25,0
2713,42.17,0.43,-13.23,0
2714,42.19,-1.49,-59.88,0
2715,42.2,3.69,-112.19,0
2716,42.21,16.76,-137.87,0
2717,42.22,20.84,-134.12,0
2718,42.24,19.04,-122.4,0
2719,42.25,27.14,-115.78,0
2720,42.27,34.88,-112.06,0
2721,42.28,21.92,-102.54,0
2722,42.29,-8.47,-83.88,0
2723,42.31,-29.85,-59.3,0
2724,42.32,-22.64,-34.23,0
2725,42.33,-2.31,-14.56,0
2726,42.35,6.47,2.19,0
2727,42.36,3.69,24.36,0
2728,42.37,-5.08,53.8,0
2729,42.38,-16.6,85.25,0
2730,42.4,-19.05,111.35,0
2731,42.41,-9.14,128.4,0
2732,42.43,1.17,139.62,0
2733,42.44,3.34,146.27,0
2734,42.45,-0.8,146.24,0
2735,42.47,-3.35,146.69,0
2736,42.48,0.68,155.39,0
2737,42.49,6.16,161.32,0
2738,42.51,6.7,150.36,0
2739,42.52,5.63,133.03,0
2740,42.53,4.91,128.81,0
2741,42.54,1.28,129.02,0
2742,42.56,-2.93,117.16,1
2743,42.57,-6.98,104.19,1
2744,42.59,-11.61,97.91,1
2745,42.6,-7.83,82.06,1
2746,42.61,3.98,56.79,1
2747,42.63,8.23,47.34,1
2748,42.64,-0.58,57.31,1
2749,42.65,-12.05,61.95,1
2750,42.66,-14.45,52.16,1
2751,42.68,-10.83,38.76,1
2752,42.69,-8.17,25.8,1
2753,42.71,0.21,13.43,1
2754,42.72,12.01,3.68,1
2755,42.73,11.06,-1.33,1
2756,42.75,2.4,-3.74,1
2757,42.76,0.4,-10.75,1
2758,42.77,0.53,-20.56,1
2759,42.79,-1.16,-25.97,1
2760,42.8,-4.04,-24.63,1
2761,42.81,-8.64,-16.52,1
2762,42.83,-6.4,-16.13,1
2763,42.84,-1.06,-35.31,1
2764,42.85,-9.26,-50.46,1
2765,42.87,-16.25,-43.1,1
2766,42.88,-1.43,-33.05,1
2767,42.89,13.3,-33.3,1
2768,42.9,8.13,-33.75,1
2769,42.92,-0.22,-33.96,1
2770,42.93,-1.8,-42.73,1
2771,42.95,-4.56,-55.47,1
2772,42.96,-3.1,-59.08,1
2773,42.97,7.64,-49.06,1
2774,42.99,9.1,-37.67,1
2775,43.0,-6.54,-42.27,1
2776,43.01,-12.34,-54.87,1
2777,43.03,7.93,-50.19,1
2778,43.04,27.45,-35.4,1
2779,43.05,20.03,-39.29,1
2780,43.06,-0.16,-56.69,1
2781,43.08,-10.11,-58.86,1
2782,43.09,-7.6,-45.53,1
2783,43.11,-0.29,-41.71,1
2784,43.12,4.99,-51.78,1
2785,43.13,7.4,-53.76,1
2786,43.15,9.23,-42.71,1
2787,43.16,7.53,-38.33,1
2788,43.17,2.98,-46.66,1
2789,43.19,3.29,-51.66,1
2790,43.2,4.39,-43.12,1
2791,43.21,-2.51,-32.58,1
2792,43.22,-7.45,-35.71,1
2793,43.24,-0.2,-45.67,1
2794,43.25,7.37,-44.6,1
2795,43.27,4.22,-33.41,1
2796,43.28,-5.21,-25.3,1
2797,43.29,-10.04,-24.77,1
2798,43.3,-5.1,-26.34,1
2799,43.32,3.23,-26.0,1
2800,43.33,7.48,-26.57,1
2801,43.35,4.24,-32.46,1
2802,43.36,-3.15,-38.13,1
2803,43.37,-4.19,-30.24,1
2804,43.38,2.06,-10.75,1
2805,43.4,5.75,-2.26,1
2806,43.41,2.12,-14.04,1
2807,43.43,-2.34,-23.44,1
2808,43.44,-2.6,-15.57,1
2809,43.45,-4.37,-8.07,1
2810,43.47,-6.83,-11.66,1
2811,43.48,-0.58,-13.4,1
2812,43.49,4.63,-7.84,1
2813,43.51,-3.82,-2.54,1
2814,43.52,-7.75,1.2,1
2815,43.53,3.07,6.78,1
2816,43.54,3.96,10.44,1
2817,43.56,-5.49,7.26,1
2818,43.57,-1.71,1.97,1
2819,43.59,5.02,2.44,1
2820,43.6,2.41,10.01,1
2821,43.61,1.66,18.32,1
2822,43.63,0.21,20.21,1
2823,43.64,-8.22,14.35,1
2824,43.65,-11.2,4.24,1
2825,43.67,-0.97,-0.52,1
2826,43.68,9.69,4.66,1
2827,43.69,7.67,7.51,1
2828,43.71,0.57,2.79,1
2829,43.72,1.32,5.15,1
2830,43.73,6.66,16.17,1
2831,43.75,8.64,19.12,1
2832,43.76,4.98,13.4,1
2833,43.77,-5.26,9.83,1
2834,43.79,-15.08,8.18,1
2835,43.8,-16.42,6.02,1
2836,43.81,-13.98,8.1,1
2837,43.83,-12.08,14.89,1
2838,43.84,-6.66,17.13,1
2839,43.85,2.27,15.83,1
2840,43.87,6.95,20.3,1
2841,43.88,4.62,21.31,1
2842,43.89,2.02,12.66,1
2843,43.9,0.87,10.82,1
2844,43.92,0.94,19.26,1
2845,43.93,4.16,23.79,1
2846,43.94,3.72,19.26,1
2847,43.96,-2.35,12.93,1
2848,43.97,-4.47,18.34,1
2849,43.99,-3.86,32.17,1
2850,44.0,-7.93,33.77,1
2851,44.01,-11.66,20.98,1
2852,44.03,-7.2,9.61,1
2853,44.04,1.42,11.13,1
2854,44.05,3.86,23.06,1
2855,44.06,2.0,27.74,1
2856,44.08,2.73,19.22,1
2857,44.09,3.81,14.68,1
2858,44.11,7.88,20.26,1
2859,44.12,10.56,29.72,1
2860,44.13,0.36,65.66,1
2861,44.15,-6.41,149.19,1
2862,44.16,3.17,235.92,2
2863,44.17,9.51,265.97,2
2864,44.19,3.64,244.62,2
2865,44.2,-3.8,208.13,2
2866,44.21,-10.11,162.8,2
2867,44.22,-13.48,101.14,2
2868,44.24,-10.66,39.32,2
2869,44.25,-8.73,-7.17,2
2870,44.27,-9.81,-52.32,2
2871,44.28,-6.49,-97.78,2
2872,44.29,1.55,-126.11,2
2873,44.31,12.34,-145.72,2
2874,44.32,20.71,-164.33,2
2875,44.33,16.76,-166.85,2
2876,44.35,5.15,-156.82,2
2877,44.36,-0.67,-147.82,2
2878,44.37,-0.82,-134.44,2
2879,44.38,-0.8,-117.2,2
2880,44.4,-2.31,-107.5,2
2881,44.41,-3.43,-100.26,2
2882,44.43,2.24,-87.69,2
2883,44.44,13.74,-79.28,2
2884,44.45,19.89,-78.12,2
2885,44.47,15.59,-75.05,2
2886,44.48,6.15,-64.23,2
2887,44.49,-0.13,-44.06,2
2888,44.51,1.78,-26.05,2
2889,44.52,11.44,-28.9,2
2890,44.53,23.03,-49.2,2
2891,44.54,25.45,-61.45,2
2892,44.56,16.77,-50.47,1
2893,44.57,5.09,-27.02,1
2894,44.58,-7.18,-9.77,1
2895,44.6,-12.69,-6.25,1
2896,44.61,-1.04,-10.77,1
2897,44.63,7.28,-13.0,1
2898,44.64,-10.97,-7.77,1
2899,44.65,-27.08,4.13,1
2900,44.67,-13.53,14.53,1
2901,44.68,1.04,14.18,1
2902,44.69,-2.12,6.16,1
2903,44.71,-3.18,1.81,1
2904,44.72,0.11,9.1,1
2905,44.73,-1.7,19.92,1
2906,44.75,-3.96,16.41,1
2907,44.76,-6.6,6.26,1
2908,44.77,-11.03,13.04,1
2909,44.79,-11.43,29.95,1
2910,44.8,-10.7,38.08,1
2911,44.81,-11.35,40.05,1
2912,44.83,-3.65,36.74,1
2913,44.84,6.51,20.49,1
2914,44.85,1.09,5.86,1
2915,44.87,-8.5,15.67,1
2916,44.88,0.4,40.34,1
2917,44.89,16.03,50.43,1
2918,44.9,16.84,39.09,1
2919,44.92,8.41,28.19,1
2920,44.93,1.04,32.89,1
2921,44.95,-6.36,38.79,1
2922,44.96,-8.53,35.91,1
2923,44.97,-2.61,37.68,1
2924,44.99,0.57,42.33,1
2925,45.0,-3.35,35.24,1
2926,45.01,-7.61,28.11,1
2927,45.03,-6.04,30.93,1
2928,45.04,1.71,27.71,1
2929,45.05,5.31,21.75,1
2930,45.06,-0.24,26.7,1
2931,45.08,-5.74,30.16,1
2932,45.09,-5.53,27.11,1
2933,45.11,-2.89,28.74,1
2934,45.12,-0.88,30.4,1
2935,45.13,-0.02,23.35,1
2936,45.15,-3.25,16.2,1
2937,45.16,-11.1,20.53,1
2938,45.17,-11.06,28.83,1
2939,45.19,4.22,24.18,1
2940,45.2,14.23,10.29,1
2941,45.21,3.98,5.49,1
2942,45.22,-7.96,14.17,1
2943,45.24,-7.62,23.38,1
2944,45.25,-6.68,20.67,1
2945,45.26,-10.95,12.31,1
2946,45.28,-8.44,9.6,1
2947,45.29,1.6,12.14,1
2948,45.31,2.71,17.46,1
2949,45.32,-4.76,21.33,1
2950,45.33,-4.48,15.71,1
2951,45.35,-1.02,5.79,1
2952,45.36,-3.45,2.04,1
2953,45.37,-0.01,-0.63,1
2954,45.38,10.19,-7.15,1
2955,45.4,6.75,-10.78,1
2956,45.41,-10.62,-7.43,1
2957,45.43,-15.07,-0.42,1
2958,45.44,-0.7,3.41,1
2959,45.45,7.2,2.77,1
2960,45.47,3.87,2.02,1
2961,45.48,8.58,2.07,1
2962,45.49,17.32,2.02,1
2963,45.51,11.72,2.25,1
2964,45.52,-1.44,3.85,1
2965,45.53,-3.1,3.51,1
2966,45.54,1.95,-5.22,1
2967,45.56,1.38,-15.0,1
2968,45.57,2.01,-9.94,1
2969,45.59,8.08,4.72,1
2970,45.6,10.95,9.46,1
2971,45.61,6.63,2.63,1
2972,45.63,0.07,-4.03,1
2973,45.64,-0.59,-7.41,1
2974,45.65,3.27,-13.86,1
2975,45.67,1.04,-22.41,1
2976,45.68,-4.04,-21.59,1
2977,45.69,-3.7,-11.97,1
2978,45.71,-4.17,-6.32,1
2979,45.72,-6.13,-7.36,1
2980,45.73,2.67,-12.17,1
2981,45.75,14.98,-16.62,1
2982,45.76,10.45,-13.78,1
2983,45.77,-3.8,-6.01,1
2984,45.79,-7.68,-3.34,1
2985,45.8,-4.57,-7.52,1
2986,45.81,-3.65,-14.75,1
2987,45.83,2.72,-22.49,1
2988,45.84,16.17,-27.48,1
2989,45.85,21.11,-29.14,1
2990,45.86,11.09,-28.26,1
2991,45.88,-0.61,-20.49,1
2992,45.89,-3.86,-8.32,1
2993,45.9,-4.76,-3.33,1
2994,45.92,-8.43,-6.33,1
2995,45.93,-7.1,-8.03,1
2996,45.95,1.71,-7.33,1
2997,45.96,4.11,-11.88,1
2998,45.97,-5.19,-22.78,1
2999,45.99,-13.2,-31.49,1
3000,46.0,-9.97,-31.19,1
3001,46.01,8.87,-22.84,1
3002,46.03,28.24,-15.52,1
3003,46.04,18.09,-16.4,1
3004,46.05,-10.84,-19.66,1
3005,46.06,-21.62,-17.48,1
3006,46.08,-15.4,-7.26,1
3007,46.09,-10.41,6.02,1
3008,46.11,-3.84,6.2,1
3009,46.12,5.17,-11.13,1
3010,46.13,3.86,-24.51,1
3011,46.15,-3.86,-20.37,1
3012,46.16,-2.8,-7.64,2
3013,46.17,1.42,19.9,2
3014,46.19,-0.4,79.5,2
3015,46.2,0.68,147.95,2
3016,46.21,6.63,167.73,2
3017,46.22,9.58,84.17,2
3018,46.24,18.89,-121.03,2
3019,46.25,36.19,-304.24,2
3020,46.27,30.52,-203.29,2
3021,46.28,-10.9,89.73,2
3022,46.29,-48.19,185.48,2
3023,46.31,-41.53,97.04,2
3024,46.32,-11.66,63.45,2
3025,46.33,-1.84,71.21,2
3026,46.35,-13.23,73.21,2
3027,46.36,-20.15,77.77,2
3028,46.37,-11.07,85.3,2
3029,46.38,-2.97,78.14,2
3030,46.4,-10.18,-11.69,2
3031,46.41,-13.11,-112.49,2
3032,46.43,0.78,-88.03,2
3033,46.44,7.5,-34.99,2
3034,46.45,-1.72,-73.72,2
3035,46.47,0.44,-97.21,2
3036,46.48,10.47,-13.4,2
3037,46.49,9.74,57.81,2
3038,46.5,19.82,10.47,2
3039,46.52,25.91,-41.36,2
3040,46.53,-8.61,-4.19,2
3041,46.54,-33.31,11.16,2
3042,46.56,-1.82,-40.73,1
3043,46.57,30.9,-36.15,1
3044,46.59,24.62,55.58,1
3045,46.6,19.68,97.71,1
3046,46.61,29.86,23.12,1
3047,46.63,16.23,-64.53,1
3048,46.64,-10.69,-103.25,1
3049,46.65,-12.83,-127.64,1
3050,46.67,-5.57,-122.06,1
3051,46.68,-2.4,-76.9,1
3052,46.69,7.17,-33.43,1
3053,46.71,8.98,6.95,1
3054,46.72,-0.35,24.17,1
3055,46.73,2.48,-47.33,1
3056,46.75,10.09,-137.43,1
3057,46.76,3.71,-123.25,1
3058,46.77,1.73,-90.38,1
3059,46.79,7.56,-122.3,1
3060,46.8,-6.05,-90.25,1
3061,46.81,-25.73,15.42,1
3062,46.83,-13.18,31.16,1
3063,46.84,18.89,-10.1,1
3064,46.85,29.92,1.73,1
3065,46.87,17.21,-12.55,1
3066,46.88,-1.33,-66.21,1
3067,46.89,-20.92,-32.59,1
3068,46.9,-33.04,30.84,1
3069,46.92,-25.47,-14.16,1
3070,46.93,-8.52,-45.63,1
3071,46.95,-3.21,46.06,1
3072,46.96,-4.87,77.46,1
3073,46.97,-0.97,-5.55,1
3074,46.99,-0.28,-20.61,1
3075,47.0,-5.98,37.59,1
3076,47.01,-7.5,58.78,1
3077,47.03,-3.74,62.59,1
3078,47.04,2.63,82.4,1
3079,47.05,9.48,68.64,1
3080,47.06,4.86,32.05,1
3081,47.08,-12.62,51.48,1
3082,47.09,-19.93,82.81,1
3083,47.11,-9.16,41.19,1
3084,47.12,7.17,-12.2,1
3085,47.13,19.54,-1.21,1
3086,47.14,9.45,21.45,1
3087,47.16,-18.7,6.97,1
3088,47.17,-24.24,-4.33,1
3089,47.18,3.66,-4.3,1
3090,47.2,28.1,1.48,1
3091,47.21,12.58,30.46,1
3092,47.22,-19.88,49.05,1
3093,47.24,-14.88,47.49,1
3094,47.25,15.84,47.06,1
3095,47.27,22.3,18.8,1
3096,47.28,2.28,-22.56,1
3097,47.29,-12.44,-10.05,1
3098,47.31,-4.44,33.56,1
3099,47.32,11.54,33.65,1
3100,47.33,13.07,0.87,1
3101,47.35,4.29,-1.41,1
3102,47.36,-2.8,35.57,1
3103,47.37,-4.23,60.33,1
3104,47.38,5.46,53.56,1
3105,47.4,18.9,34.59,1
3106,47.41,17.77,-7.45,1
3107,47.43,-1.29,-43.37,1
3108,47.44,-19.45,-6.05,1
3109,47.45,-15.77,53.88,1
3110,47.47,2.7,49.57,1
3111,47.48,14.78,19.4,1
3112,47.49,17.88,14.15,1
3113,47.51,19.22,14.22,1
3114,47.52,14.64,28.74,1
3115,47.53,2.4,63.41,1
3116,47.54,-5.12,65.6,1
3117,47.56,-4.04,15.55,1
3118,47.57,-7.32,-42.84,1
3119,47.59,-23.27,-51.15,1
3120,47.6,-31.69,0.61,1
3121,47.61,-9.11,41.31,1
3122,47.63,16.08,18.0,1
3123,47.64,6.93,-24.66,1
3124,47.65,-14.57,-39.21,1
3125,47.67,-12.86,-41.5,1
3126,47.68,5.42,-42.21,1
3127,47.69,14.63,-23.7,1
3128,47.71,9.21,13.03,1
3129,47.72,3.79,50.28,1
3130,47.73,7.72,53.04,1
3131,47.75,11.8,1.12,1
3132,47.76,2.6,-35.8,1
3133,47.77,-10.19,-4.43,1
3134,47.78,-14.51,8.74,1
3135,47.8,-19.3,-35.14,1
3136,47.81,-21.47,-35.05,1
3137,47.82,-7.82,8.19,1
3138,47.84,5.21,3.53,1
3139,47.85,-2.17,-16.74,1
3140,47.86,-10.72,9.07,1
3141,47.88,-2.62,38.67,1
3142,47.89,-0.14,20.8,1
3143,47.9,-18.24,-12.6,1
3144,47.92,-27.59,-11.07,1
3145,47.93,-9.51,11.81,1
3146,47.95,6.75,19.46,1
3147,47.96,4.06,-0.84,1
3148,47.97,0.45,-26.18,1
3149,47.99,-1.68,-13.35,1
3150,48.0,-3.68,35.39,1
3151,48.01,10.67,82.3,1
3152,48.03,29.31,76.24,1
3153,48.04,23.45,-10.01,1
3154,48.05,0.64,-85.72,1
3155,48.06,-8.78,-61.02,1
3156,48.08,-4.78,-12.98,1
3157,48.09,-9.67,-19.63,1
3158,48.11,-14.49,-15.74,1
3159,48.12,-4.54,22.22,1
3160,48.13,4.49,19.42,1
3161,48.15,5.67,-20.46,1
3162,48.16,8.08,-47.02,0
3163,48.17,10.81,-84.31,0
3164,48.19,10.98,-144.55,0
3165,48.2,7.39,-165.66,0
3166,48.21,-6.4,-112.03,0
3167,48.22,-18.64,-43.59,0
3168,48.24,-10.57,-38.12,0
3169,48.25,8.94,-86.12,0
3170,48.27,30.98,-119.25,0
3171,48.28,51.08,-103.62,0
3172,48.29,44.66,-58.42,0
3173,48.31,11.26,-10.93,0
3174,48.32,-10.13,27.64,0
3175,48.33,-5.85,54.9,0
3176,48.35,-0.69,70.59,0
3177,48.36,-5.87,73.71,0
3178,48.37,-11.13,66.17,0
3179,48.38,-10.25,60.44,0
3180,48.4,-3.06,61.43,0
3181,48.41,6.98,59.59,0
3182,48.42,10.1,59.64,0
3183,48.44,2.64,72.72,0
3184,48.45,-6.29,87.17,0
3185,48.46,-11.36,84.93,0
3186,48.48,-17.61,69.18,0
3187,48.49,-23.38,56.1,0
3188,48.5,-19.9,50.46,0
3189,48.52,-12.68,48.47,0
3190,48.53,-11.42,51.17,0
3191,48.54,-9.95,48.7,0
3192,48.56,-3.57,29.24,1
3193,48.57,1.99,8.48,1
3194,48.59,2.51,7.72,1
3195,48.6,-1.28,22.35,1
3196,48.61,-5.29,37.64,1
3197,48.63,-3.17,44.74,1
3198,48.64,5.89,36.97,1
3199,48.65,9.73,20.62,1
3200,48.67,3.86,13.61,1
3201,48.68,1.49,16.48,1
3202,48.69,5.37,12.91,1
3203,48.71,4.12,1.83,1
3204,48.72,-2.28,-0.54,1
3205,48.73,-4.49,8.82,1
3206,48.75,-3.61,16.13,1
3207,48.76,-5.33,13.43,1
3208,48.77,-6.69,-0.58,1
3209,48.79,-4.07,-18.17,1
3210,48.8,0.42,-18.42,1
3211,48.81,1.33,-1.21,1
3212,48.83,-3.01,6.42,1
3213,48.84,-1.93,0.23,1
3214,48.85,9.09,0.69,1
3215,48.87,11.79,7.46,1
3216,48.88,-0.27,2.42,1
3217,48.89,-7.43,-12.15,1
3218,48.9,-3.45,-16.65,1
3219,48.92,-1.96,-10.27,1
3220,48.93,-4.89,-8.48,1
3221,48.95,-3.91,-12.45,1
3222,48.96,2.05,-13.67,1
3223,48.97,9.2,-11.18,1
3224,48.99,13.95,-8.12,1
3225,49.0,12.1,-8.02,1
3226,49.01,3.41,-10.4,1
3227,49.03,-4.24,-11.57,1
3228,49.04,-1.24,-13.2,1
3229,49.05,9.01,-14.21,1
3230,49.06,12.19,-8.27,1
3231,49.08,6.3,-2.25,1
3232,49.09,1.31,-7.27,1
3233,49.1,-2.94,-15.71,1
3234,49.12,-6.68,-16.92,1
3235,49.13,-2.64,-14.86,1
3236,49.14,2.56,-14.25,1
3237,49.16,-3.02,-12.19,1
3238,49.17,-13.49,-7.84,1
3239,49.19,-13.65,-7.55,1
3240,49.2,-0.87,-14.86,1
3241,49.21,9.64,-22.78,1
3242,49.22,8.31,-23.02,1
3243,49.24,3.39,-19.4,1
3244,49.25,0.98,-19.48,1
3245,49.27,-1.6,-17.8,1
3246,49.28,-3.04,-9.98,1
3247,49.29,-1.56,-8.08,1
3248,49.31,0.82,-19.91,1
3249,49.32,5.01,-29.07,1
3250,49.33,7.96,-20.49,1
3251,49.35,3.86,-9.82,1
3252,49.36,-1.61,-13.99,1
3253,49.37,-4.29,-19.49,1
3254,49.38,-8.41,-15.38,1
3255,49.4,-4.82,-15.28,1
3256,49.41,9.91,-25.08,1
3257,49.43,13.36,-32.17,1
3258,49.44,1.31,-28.57,1
3259,49.45,-4.16,-16.23,1
3260,49.47,-1.01,-5.33,1
3261,49.48,-1.27,-6.14,1
3262,49.49,-0.96,-12.38,1
3263,49.51,4.34,-13.18,1
3264,49.52,5.22,-14.43,1
3265,49.53,-1.8,-22.42,1
3266,49.54,-4.58,-27.14,1
3267,49.56,2.08,-19.58,1
3268,49.57,9.09,-5.83,1
3269,49.59,8.12,-0.45,1
3270,49.6,2.7,-9.35,1
3271,49.61,3.44,-20.33,1
3272,49.63,7.78,-21.62,1
3273,49.64,5.09,-15.71,1
3274,49.65,1.64,-7.54,1
3275,49.67,3.41,-1.89,1
3276,49.68,0.13,-4.61,1
3277,49.69,-10.62,-12.99,1
3278,49.7,-15.06,-16.93,1
3279,49.72,-8.73,-13.06,1
3280,49.73,-3.02,-6.38,1
3281,49.74,0.26,-1.39,1
3282,49.76,8.07,-1.07,1
3283,49.77,11.54,-4.13,1
3284,49.78,1.88,-1.8,1
3285,49.8,-7.9,5.29,1
3286,49.81,-6.3,5.35,1
3287,49.83,1.92,-1.67,1
3288,49.84,5.57,-5.87,1
3289,49.85,1.26,-4.19,1
3290,49.87,-0.86,0.53,1
3291,49.88,2.99,4.85,1
3292,49.89,4.75,1.84,1
3293,49.9,-1.62,-7.59,1
3294,49.92,-14.29,-7.38,1
3295,49.93,-16.39,4.47,1
3296,49.95,-1.36,5.83,1
3297,49.96,7.96,-7.57,1
3298,49.97,4.41,-12.2,1
3299,49.99,6.09,-1.84,1
3300,50.0,9.84,2.0,1
3301,50.01,3.08,-5.95,1
3302,50.03,-3.58,-3.31,1
3303,50.04,-2.8,17.43,1
3304,50.05,-5.52,30.01,1
3305,50.06,-12.26,17.45,1
3306,50.08,-14.94,1.47,1
3307,50.09,-15.0,2.49,1
3308,50.11,-15.01,9.73,1
3309,50.12,-13.39,7.25,1
3310,50.13,-7.8,2.99,1
3311,50.15,0.88,14.28,1
3312,50.16,0.82,29.87,0
3313,50.17,-8.58,25.78,0
3314,50.19,-5.99,3.42,0
3315,50.2,9.47,-21.01,0
3316,50.21,16.6,-38.52,0
3317,50.22,15.35,-58.76,0
3318,50.24,24.59,-89.31,0
3319,50.25,40.09,-108.63,0
3320,50.27,40.23,-104.64,0
3321,50.28,32.74,-96.6,0
3322,50.29,32.04,-94.11,0
3323,50.31,23.09,-90.89,0
3324,50.32,2.19,-85.56,0
3325,50.33,-10.52,-76.5,0
3326,50.34,-8.72,-56.72,0
3327,50.36,-2.27,-27.14,0
3328,50.37,-3.77,0.24,0
3329,50.38,-16.72,17.45,0
3330,50.4,-23.21,28.81,0
3331,50.41,-14.89,44.41,0
3332,50.42,-12.93,65.67,0
3333,50.44,-20.2,80.77,0
3334,50.45,-13.95,86.12,0
3335,50.46,-5.56,92.3,0
3336,50.48,-17.49,102.77,0
3337,50.49,-28.76,109.58,0
3338,50.51,-21.73,111.35,0
3339,50.52,-16.39,117.38,0
3340,50.53,-27.36,126.81,0
3341,50.54,-39.35,124.85,0
3342,50.56,-30.32,115.68,1
3343,50.57,-6.82,121.88,1
3344,50.59,1.97,136.27,1
3345,50.6,-5.92,131.83,1
3346,50.61,-5.9,112.61,1
3347,50.63,5.25,95.89,1
3348,50.64,10.36,85.11,1
3349,50.65,7.68,80.09,1
3350,50.67,10.97,75.51,1
3351,50.68,20.76,66.15,1
3352,50.69,21.66,58.44,1
3353,50.71,9.12,53.81,1
3354,50.72,-5.65,43.9,1
3355,50.73,-9.46,33.77,1
3356,50.75,0.43,34.42,1
3357,50.76,10.83,34.94,1
3358,50.77,11.86,20.17,1
3359,50.79,7.77,2.02,1
3360,50.8,5.61,-4.85,1
3361,50.81,7.63,-6.78,1
3362,50.83,9.73,-6.95,1
3363,50.84,8.59,-4.17,1
3364,50.85,6.16,-10.86,1
3365,50.87,3.17,-29.02,1
3366,50.88,-2.23,-38.31,1
3367,50.89,-5.94,-30.84,1
3368,50.9,1.73,-21.93,1
3369,50.92,13.29,-24.62,1
3370,50.93,10.44,-35.0,1
3371,50.95,2.03,-40.86,1
3372,50.96,5.63,-37.65,1
3373,50.97,11.1,-36.62,1
3374,50.98,4.83,-46.8,1
3375,51.0,-3.85,-56.49,1
3376,51.01,-3.02,-53.76,1
3377,51.02,0.59,-44.3,1
3378,51.04,-1.83,-41.24,1
3379,51.05,-0.55,-49.87,1
3380,51.06,10.76,-60.5,1
3381,51.08,14.18,-63.67,1
3382,51.09,1.77,-61.54,1
3383,51.1,-7.23,-57.86,1
3384,51.12,-1.31,-51.33,1
3385,51.13,8.18,-42.76,1
3386,51.15,3.93,-40.28,1
3387,51.16,-8.7,-46.06,1
3388,51.17,-8.56,-49.02,1
3389,51.19,2.47,-42.84,1
3390,51.2,9.01,-33.6,1
3391,51.21,11.57,-32.4,1
3392,51.22,11.36,-41.79,1
3393,51.24,2.72,-48.34,1
3394,51.25,-4.38,-43.96,1
3395,51.27,3.15,-36.57,1
3396,51.28,11.58,-29.83,1
3397,51.29,7.0,-20.9,1
3398,51.31,-0.6,-16.95,1
3399,51.32,-1.19,-23.62,1
3400,51.33,-1.35,-28.31,1
3401,51.35,-9.25,-24.13,1
3402,51.36,-16.87,-22.98,1
3403,51.37,-10.75,-28.67,1
3404,51.38,2.42,-33.09,1
3405,51.4,6.99,-33.97,1
3406,51.41,1.01,-31.37,1
3407,51.43,-7.89,-25.83,1
3408,51.44,-9.04,-20.22,1
3409,51.45,1.0,-15.47,1
3410,51.47,7.81,-11.56,1
3411,51.48,4.1,-6.97,1
3412,51.49,0.08,-2.39,1
3413,51.51,-2.31,-5.45,1
3414,51.52,-5.76,-14.79,1
3415,51.53,-7.74,-15.56,1
3416,51.54,-9.83,-5.63,1
3417,51.56,-9.51,-2.44,1
3418,51.57,-4.61,-10.13,1
3419,51.59,-4.19,-11.43,1
3420,51.6,-8.97,-4.9,1
3421,51.61,-4.12,-4.06,1
3422,51.62,10.71,-0.4,1
3423,51.64,14.57,14.89,1
3424,51.65,1.07,20.65,1
3425,51.66,-7.65,5.49,1
3426,51.68,0.11,-7.34,1
3427,51.69,5.28,-0.74,1
3428,51.7,-1.69,12.67,1
3429,51.72,-6.25,15.85,1
3430,51.73,-5.97,8.45,1
3431,51.74,-9.6,3.44,1
3432,51.76,-8.22,6.37,1
3433,51.77,1.63,8.61,1
3434,51.79,0.92,9.52,1
3435,51.8,-9.39,13.68,1
3436,51.81,-7.43,14.49,1
3437,51.83,0.35,11.41,1
3438,51.84,-2.47,11.61,1
3439,51.85,-5.49,15.33,1
3440,51.87,1.53,20.9,1
3441,51.88,9.71,25.11,1
3442,51.89,11.53,21.26,1
3443,51.9,7.55,9.64,1
3444,51.92,2.68,1.8,1
3445,51.93,3.55,6.41,1
3446,51.95,9.67,15.77,1
3447,51.96,10.89,19.13,1
3448,51.97,3.56,18.47,1
3449,51.99,-0.52,16.79,1
3450,52.0,0.34,12.95,1
3451,52.01,-2.89,11.58,1
3452,52.03,-7.02,14.48,1
3453,52.04,-7.76,17.2,1
3454,52.05,-7.46,20.59,1
3455,52.06,-6.66,24.19,1
3456,52.08,-5.53,18.8,1
3457,52.09,-4.36,7.51,1
3458,52.11,-3.59,7.13,1
3459,52.12,-2.12,18.19,1
3460,52.13,0.74,31.6,1
3461,52.15,-1.27,59.1,1
3462,52.16,-8.15,118.81,2
3463,52.17,-7.65,200.3,2
3464,52.19,0.98,263.97,2
3465,52.2,7.99,278.69,2
3466,52.21,12.4,250.07,2
3467,52.22,17.47,198.18,2
3468,52.24,21.26,132.81,2
3469,52.25,19.95,65.02,2
3470,52.26,12.53,11.54,2
3471,52.28,0.59,-26.19,2
3472,52.29,-11.01,-66.78,2
3473,52.3,-12.3,-115.89,2
3474,52.32,-1.53,-152.66,2
3475,52.33,4.25,-162.79,2
3476,52.34,-4.55,-157.07,2
3477,52.36,-14.23,-150.82,2
3478,52.37,-16.69,-142.87,2
3479,52.38,-15.04,-131.85,2
3480,52.4,-9.1,-127.5,2
3481,52.41,-3.8,-126.54,2
3482,52.43,-5.87,-116.25,2
3483,52.44,-10.62,-102.58,2
3484,52.45,-7.64,-96.21,2
3485,52.47,-0.27,-91.49,2
3486,52.48,-0.0,-83.23,2
3487,52.49,-0.06,-75.95,2
3488,52.51,7.89,-71.54,2
3489,52.52,8.18,-65.77,2
3490,52.53,-4.06,-55.71,2
3491,52.54,-6.79,-43.65,2
3492,52.56,2.17,-34.72,1
3493,52.57,5.51,-30.57,1
3494,52.59,2.17,-30.28,1
3495,52.6,-3.07,-32.63,1
3496,52.61,-5.98,-31.85,1
3497,52.63,-1.14,-22.13,1
3498,52.64,1.36,-10.86,1
3499,52.65,-5.9,-6.57,1
3500,52.67,-9.3,-3.72,1
3501,52.68,-1.62,3.43,1
3502,52.69,7.53,8.64,1
3503,52.71,9.69,6.2,1
3504,52.72,5.51,4.92,1
3505,52.73,-0.57,15.73,1
3506,52.75,-1.79,28.94,1
3507,52.76,6.58,28.59,1
3508,52.77,14.51,22.99,1
3509,52.79,10.24,26.83,1
3510,52.8,5.3,31.91,1
3511,52.81,11.29,30.69,1
3512,52.83,13.01,33.42,1
3513,52.84,1.9,39.48,1
3514,52.85,-2.71,39.81,1
3515,52.87,5.73,39.94,1
3516,52.88,7.56,41.08,1
3517,52.89,-1.5,32.22,1
3518,52.9,-5.14,20.07,1
3519,52.92,-1.14,25.98,1
3520,52.93,2.93,44.72,1
3521,52.94,7.03,50.06,1
3522,52.96,6.17,37.96,1
3523,52.97,-4.64,25.73,1
3524,52.98,-12.51,24.7,1
3525,53.0,-2.59,29.85,1
3526,53.01,13.16,32.36,1
3527,53.02,13.71,30.91,1
3528,53.04,5.06,27.83,1
3529,53.05,3.92,27.21,1
3530,53.06,6.03,34.3,1
3531,53.08,0.94,44.31,1
3532,53.09,-4.96,43.18,1
3533,53.11,-4.4,31.67,1
3534,53.12,-3.5,28.7,1
3535,53.13,-1.9,35.65,1
3536,53.15,8.36,35.98,1
3537,53.16,17.71,27.71,1
3538,53.17,12.36,20.39,1
3539,53.19,2.63,20.04,1
3540,53.2,-1.75,25.27,1
3541,53.21,-7.55,29.63,1
3542,53.22,-10.73,29.77,1
3543,53.24,-5.32,23.89,1
3544,53.25,-3.94,14.65,1
3545,53.27,-8.29,9.76,1
3546,53.28,-4.36,11.59,1
3547,53.29,4.21,15.42,1
3548,53.31,4.94,14.25,1
3549,53.32,0.33,6.85,1
3550,53.33,-3.33,2.97,1
3551,53.35,-3.31,9.92,1
3552,53.36,-0.84,16.93,1
3553,53.37,-1.58,9.1,1
3554,53.38,-4.28,-5.95,1
3555,53.4,-5.72,-8.33,1
3556,53.41,-7.53,-0.23,1
3557,53.43,-7.84,1.04,1
3558,53.44,-5.06,-3.99,1
3559,53.45,-0.61,-3.51,1
3560,53.47,4.89,4.34,1
3561,53.48,5.16,12.53,1
3562,53.49,-5.78,12.26,1
3563,53.51,-17.66,4.82,1
3564,53.52,-14.14,-3.36,1
3565,53.53,4.04,-16.39,1
3566,53.54,15.29,-23.61,1
3567,53.56,7.13,-7.25,1
3568,53.57,-4.22,13.14,1
3569,53.58,-7.26,10.23,1
3570,53.6,-8.56,-4.48,1
3571,53.61,-7.74,-8.26,1
3572,53.62,-2.88,-5.82,1
3573,53.64,0.44,-15.04,1
3574,53.65,6.62,-29.76,1
3575,53.66,17.73,-28.42,1
3576,53.68,16.34,-16.25,1
3577,53.69,1.58,-18.9,1
3578,53.7,-4.19,-31.62,1
3579,53.72,-1.96,-25.34,1
3580,53.73,-2.11,-5.26,1
3581,53.75,2.68,0.43,1
3582,53.76,5.23,-6.0,1
3583,53.77,-5.99,-6.59,1
3584,53.79,-15.02,-3.44,1
3585,53.8,-8.24,-8.03,1
3586,53.81,2.12,-16.49,1
3587,53.83,3.48,-15.17,1
3588,53.84,1.38,-4.84,1
3589,53.85,1.15,-0.65,1
3590,53.87,-4.91,-6.06,1
3591,53.88,-15.16,-12.61,1
3592,53.89,-15.22,-14.62,1
3593,53.9,-7.06,-10.14,1
3594,53.92,-3.67,-8.46,1
3595,53.93,-3.63,-19.04,1
3596,53.95,-3.12,-29.64,1
3597,53.96,-3.99,-28.11,1
3598,53.97,-0.73,-18.83,1
3599,53.99,8.92,-11.08,1
3600,54.0,10.96,-10.61,1
3601,54.01,2.41,-10.7,1
3602,54.03,6.09,-4.99,1
3603,54.04,22.89,-1.23,1
3604,54.05,20.2,-4.7,1
3605,54.06,-7.97,-13.25,1
3606,54.08,-26.48,-21.6,1
3607,54.09,-14.16,-26.19,1
3608,54.11,9.18,-26.29,1
3609,54.12,13.82,-18.65,1
3610,54.13,-0.17,-6.08,1
3611,54.15,-4.9,6.33,1
3612,54.16,5.76,29.07,2
3613,54.17,4.04,64.56,2
3614,54.18,-8.63,92.31,2
3615,54.2,0.57,91.03,2
3616,54.21,30.36,41.9,2
3617,54.22,50.78,-30.85,2
3618,54.24,45.27,-32.17,2
3619,54.25,17.25,32.81,2
3620,54.26,-17.66,-7.02,2
3621,54.28,-42.27,-121.31,2
3622,54.29,-42.34,-21.4,2
3623,54.3,-23.09,239.16,2
3624,54.32,-21.13,275.63,2
3625,54.33,-39.08,88.66,2
3626,54.34,-23.4,1.04,2
3627,54.36,21.49,51.8,2
3628,54.37,24.78,46.34,2
3629,54.38,-11.85,-55.61,2
3630,54.4,-24.59,-128.41,2
3631,54.41,-9.18,-113.19,2
3632,54.43,-5.32,-72.24,2
3633,54.44,-14.32,-50.61,2
3634,54.45,-12.14,-54.55,2
3635,54.47,2.05,-87.64,2
3636,54.48,15.65,-118.01,2
3637,54.49,23.53,-114.68,2
3638,54.51,18.68,-77.88,2
3639,54.52,-1.55,-25.44,2
3640,54.53,-16.62,-26.54,2
3641,54.54,-6.05,-112.05,2
3642,54.56,17.24,-157.19,1
3643,54.57,20.6,-86.13,1
3644,54.59,2.03,-25.39,1
3645,54.6,-2.74,-35.09,1
3646,54.61,12.41,-33.96,1
3647,54.63,13.86,-23.27,1
3648,54.64,-0.63,-30.1,1
3649,54.65,-2.53,-27.03,1
3650,54.67,7.39,-26.57,1
3651,54.68,4.34,-29.33,1
3652,54.69,-10.44,-3.21,1
3653,54.71,-12.03,17.5,1
3654,54.72,4.11,-6.62,1
3655,54.73,16.62,-18.8,1
3656,54.75,7.09,25.43,1
3657,54.76,-12.91,46.1,1
3658,54.77,-12.24,-18.95,1
3659,54.79,9.37,-74.12,1
3660,54.8,22.36,-38.69,1
3661,54.81,15.54,6.35,1
3662,54.82,-2.1,-0.17,1
3663,54.84,-14.45,-4.17,1
3664,54.85,-4.77,22.62,1
3665,54.86,11.69,41.33,1
3666,54.88,6.81,26.95,1
3667,54.89,-4.74,12.75,1
3668,54.9,1.0,22.46,1
3669,54.92,8.76,13.12,1
3670,54.93,2.88,-14.27,1
3671,54.94,3.12,-3.49,1
3672,54.96,17.79,32.66,1
3673,54.97,18.22,36.67,1
3674,54.98,1.92,2.31,1
3675,55.0,1.87,-0.6,1
3676,55.01,10.91,49.74,1
3677,55.03,2.9,68.46,1
3678,55.04,-6.93,45.88,1
3679,55.05,-2.94,52.01,1
3680,55.06,2.27,74.33,1
3681,55.08,1.32,56.8,1
3682,55.09,-2.05,3.28,1
3683,55.11,-5.8,-21.33,1
3684,55.12,-6.75,15.91,1
3685,55.13,-4.53,48.52,1
3686,55.15,-8.55,14.14,1
3687,55.16,-19.34,-41.44,1
3688,55.17,-17.62,-43.14,1
3689,55.19,2.62,14.47,1
3690,55.2,15.79,71.29,1
3691,55.21,8.6,68.53,1
3692,55.22,-2.23,34.54,1
3693,55.24,-6.67,25.79,1
3694,55.25,-2.02,20.82,1
3695,55.27,11.37,8.4,1
3696,55.28,13.01,29.94,1
3697,55.29,-1.7,66.37,1
3698,55.31,-5.3,42.25,1
3699,55.32,2.53,-27.3,1
3700,55.33,-0.88,-48.33,1
3701,55.35,-9.75,-5.87,1
3702,55.36,-11.77,47.67,1
3703,55.37,-10.33,69.32,1
3704,55.38,-4.91,31.01,1
3705,55.4,4.28,-25.16,1
3706,55.41,10.65,-26.08,1
3707,55.43,16.28,1.37,1
3708,55.44,20.58,0.11,1
3709,55.45,10.28,-14.83,1
3710,55.46,-9.6,-16.88,1
3711,55.48,-16.42,3.1,1
3712,55.49,-10.31,28.36,1
3713,55.5,-6.43,14.96,1
3714,55.52,-7.1,-18.06,1
3715,55.53,-12.58,-1.4,1
3716,55.54,-19.18,52.61,1
3717,55.56,-12.8,66.51,1
3718,55.57,2.75,35.3,1
3719,55.58,9.11,11.46,1
3720,55.6,5.31,-0.21,1
3721,55.61,-1.87,-5.23,1
3722,55.62,-11.84,14.75,1
3723,55.64,-17.82,30.53,1
3724,55.65,-13.58,5.33,1
3725,55.66,-7.24,-15.44,1
3726,55.68,-3.29,6.79,1
3727,55.69,4.04,33.58,1
3728,55.71,11.45,24.46,1
3729,55.72,10.52,-15.99,1
3730,55.73,8.6,-35.64,1
3731,55.75,13.07,-6.87,1
3732,55.76,7.94,21.81,1
3733,55.77,-11.83,18.32,1
3734,55.79,-19.85,12.5,1
3735,55.8,-5.77,33.39,1
3736,55.81,7.82,48.03,1
3737,55.83,8.36,20.26,1
3738,55.84,5.21,-8.98,1
3739,55.85,2.15,-24.77,1
3740,55.87,-3.2,-56.22,1
3741,55.88,-6.88,-53.86,1
3742,55.89,-8.33,10.43,1
3743,55.9,-5.8,41.88,1
3744,55.92,3.86,-6.58,1
3745,55.93,10.68,-41.01,1
3746,55.95,11.78,-9.72,1
3747,55.96,14.07,9.63,1
3748,55.97,11.24,-12.25,1
3749,55.99,1.97,-16.23,1
3750,56.0,-5.02,-6.61,1
3751,56.01,-8.53,-19.1,1
3752,56.03,-5.17,-20.16,1
3753,56.04,3.91,5.99,1
3754,56.05,3.85,16.09,1
3755,56.06,-5.89,2.66,1
3756,56.08,-11.17,3.14,1
3757,56.09,-8.27,22.19,1
3758,56.1,-2.91,18.18,1
3759,56.12,1.23,-8.05,1
3760,56.13,5.86,-4.69,1
3761,56.14,11.94,16.46,1
3762,56.16,10.65,5.68,0
3763,56.17,0.32,-24.84,0
3764,56.18,-2.07,-34.28,0
3765,56.2,4.96,-15.1,0
3766,56.21,5.55,4.4,0
3767,56.22,-0.14,-0.96,0
3768,56.24,-0.49,-18.59,0
3769,56.25,7.72,-23.53,0
3770,56.26,12.99,-11.45,0
3771,56.28,2.94,4.3,0
3772,56.29,-12.37,-0.91,0
3773,56.3,-12.18,-17.48,0
3774,56.32,1.4,-8.83,0
3775,56.33,7.71,-3.78,0
3776,56.35,1.88,-35.59,0
3777,56.36,-1.15,-54.23,0
3778,56.37,1.57,-40.97,0
3779,56.38,-2.48,-49.25,0
3780,56.4,-8.34,-94.2,0
3781,56.41,0.93,-148.1,0
3782,56.43,15.19,-188.28,0
3783,56.44,11.9,-189.99,0
3784,56.45,-4.59,-148.16,0
3785,56.47,-16.2,-95.54,0
3786,56.48,-21.11,-58.56,0
3787,56.49,-20.39,-30.3,0
3788,56.51,-8.53,5.62,0
3789,56.52,0.53,43.99,0
3790,56.53,-8.8,65.08,0
3791,56.54,-20.02,69.65,0
3792,56.56,-17.89,68.72,1
3793,56.57,-8.67,65.63,1
3794,56.59,1.03,69.27,1
3795,56.6,5.08,74.53,1
3796,56.61,2.98,64.67,1
3797,56.63,4.34,54.74,1
3798,56.64,10.65,60.55,1
3799,56.65,12.18,60.98,1
3800,56.67,3.65,49.81,1
3801,56.68,-5.72,45.35,1
3802,56.69,-4.36,46.65,1
3803,56.71,-0.38,43.25,1
3804,56.72,-6.45,37.15,1
3805,56.73,-9.01,36.75,1
3806,56.74,6.61,41.32,1
3807,56.76,24.68,40.06,1
3808,56.77,24.22,30.04,1
3809,56.78,9.01,22.75,1
3810,56.8,-2.91,26.69,1
3811,56.81,-3.7,30.76,1
3812,56.82,1.75,25.12,1
3813,56.84,7.56,20.22,1
3814,56.85,9.63,18.9,1
3815,56.86,4.61,14.48,1
3816,56.88,-3.17,14.98,1
3817,56.89,-3.02,26.49,1
3818,56.9,2.13,34.24,1
3819,56.92,-2.69,25.27,1
3820,56.93,-11.73,10.13,1
3821,56.94,-5.89,6.02,1
3822,56.96,8.45,9.73,1
3823,56.97,13.46,9.66,1
3824,56.99,10.53,9.89,1
3825,57.0,8.43,11.59,1
3826,57.01,8.35,8.32,1
3827,57.03,4.57,6.33,1
3828,57.04,-7.01,6.68,1
3829,57.05,-14.69,1.43,1
3830,57.06,-7.14,-4.04,1
3831,57.08,5.91,-7.95,1
3832,57.09,9.7,-17.35,1
3833,57.11,2.27,-23.23,1
3834,57.12,-5.22,-14.67,1
3835,57.13,-1.94,-4.71,1
3836,57.15,4.93,-6.14,1
3837,57.16,3.42,-10.38,1
3838,57.17,-2.57,-13.78,1
3839,57.19,-5.5,-22.14,1
3840,57.2,-4.43,-27.02,1
3841,57.21,-0.82,-19.87,1
3842,57.22,2.09,-9.57,1
3843,57.24,2.74,-8.0,1
3844,57.25,6.56,-16.56,1
3845,57.27,14.38,-20.2,1
3846,57.28,13.25,-7.89,1
3847,57.29,-0.5,0.69,1
3848,57.31,-9.05,-9.2,1
3849,57.32,-4.25,-16.86,1
3850,57.33,0.78,-8.75,1
3851,57.35,-5.5,-1.51,1
3852,57.36,-18.95,-6.72,1
3853,57.37,-24.21,-15.21,1
3854,57.38,-12.08,-18.73,1
3855,57.4,6.2,-19.69,1
3856,57.41,13.07,-22.53,1
3857,57.42,7.64,-23.05,1
3858,57.44,0.61,-14.95,1
3859,57.45,-2.64,-9.22,1
3860,57.46,-3.94,-15.05,1
3861,57.48,-5.75,-20.7,1
3862,57.49,-4.88,-19.24,1
3863,57.5,-0.02,-15.98,1
3864,57.52,2.75,-14.35,1
3865,57.53,0.8,-12.51,1
3866,57.54,0.79,-2.63,1
3867,57.56,5.09,9.94,1
3868,57.57,6.37,2.72,1
3869,57.58,0.73,-20.48,1
3870,57.6,-5.18,-29.07,1
3871,57.61,-1.99,-18.87,1
3872,57.625,5.29,-12.91,1
3873,57.64,2.9,-15.5,1
3874,57.65,-0.35,-13.11,1
3875,57.67,10.02,-8.5,1
3876,57.68,18.56,-11.29,1
3877,57.69,7.37,-13.39,1
3878,57.71,-10.31,-8.65,1
3879,57.72,-11.36,-7.02,1
3880,57.73,-0.86,-13.48,1
3881,57.75,-0.75,-18.91,1
3882,57.76,-8.47,-14.8,1
3883,57.77,-6.95,-3.42,1
3884,57.79,0.94,4.54,1
3885,57.8,1.34,4.13,1
3886,57.81,-2.8,0.14,1
3887,57.83,0.25,-6.32,1
3888,57.84,2.48,-9.92,1
3889,57.85,-6.57,-1.57,1
3890,57.87,-10.28,6.17,1
3891,57.88,-2.69,1.86,1
3892,57.89,-1.46,-0.91,1
3893,57.9,-0.89,3.22,1
3894,57.92,11.54,0.3,1
3895,57.93,17.41,-8.93,1
3896,57.95,7.45,-7.08,1
3897,57.96,2.43,7.07,1
3898,57.97,9.19,12.59,1
3899,57.99,10.11,2.01,1
3900,58.0,-1.68,-0.61,1
3901,58.01,-8.8,14.59,1
3902,58.02,-1.55,17.75,1
3903,58.04,0.88,0.08,1
3904,58.05,-11.36,-8.46,1
3905,58.06,-18.26,-0.76,1
3906,58.08,-11.42,2.26,1
3907,58.09,-4.49,-2.11,1
3908,58.1,0.8,1.81,1
3909,58.12,7.79,13.51,1
3910,58.13,10.82,18.59,1
3911,58.14,8.79,15.25,1
3912,58.16,3.81,13.74,0
3913,58.17,-4.9,18.1,0
3914,58.18,-11.43,15.43,0
3915,58.2,-4.61,0.65,0
3916,58.21,11.81,-5.26,0
3917,58.22,16.78,-0.48,0
3918,58.24,5.79,-21.35,0
3919,58.25,-0.57,-76.04,0
3920,58.26,2.58,-121.73,0
3921,58.28,0.54,-133.01,0
3922,58.29,0.06,-123.15,0
3923,58.31,8.71,-107.59,0
3924,58.32,3.97,-100.83,0
3925,58.33,-14.58,-107.28,0
3926,58.35,-12.03,-109.2,0
3927,58.36,10.3,-94.78,0
3928,58.37,21.62,-72.55,0
3929,58.38,18.06,-50.2,0
3930,58.4,12.23,-24.81,0
3931,58.41,7.52,5.16,0
3932,58.43,0.63,34.78,0
3933,58.44,-11.39,62.55,0
3934,58.45,-23.02,86.93,0
3935,58.47,-26.82,100.54,0
3936,58.48,-26.04,105.62,0
3937,58.49,-23.38,113.01,0
3938,58.51,-16.44,125.65,0
3939,58.52,-10.55,141.58,0
3940,58.53,-9.8,158.1,0
3941,58.54,-6.43,165.98,0
3942,58.56,0.59,159.49,1
3943,58.57,0.28,146.67,1
3944,58.59,-6.84,132.91,1
3945,58.6,-12.85,118.31,1
3946,58.61,-17.06,107.59,1
3947,58.63,-14.05,99.67,1
3948,58.64,-2.02,90.74,1
3949,58.65,6.4,86.23,1
3950,58.66,7.9,82.81,1
3951,58.68,9.65,68.88,1
3952,58.69,11.54,52.18,1
3953,58.7,9.23,46.11,1
3954,58.72,2.04,46.97,1
3955,58.73,1.45,44.25,1
3956,58.74,14.83,32.92,1
3957,58.76,21.09,17.42,1
3958,58.77,7.41,9.44,1
3959,58.78,-3.78,13.64,1
3960,58.8,-0.96,15.44,1
3961,58.81,3.53,1.39,1
3962,58.82,4.56,-16.2,1
3963,58.84,4.64,-21.02,1
3964,58.85,0.28,-18.36,1
3965,58.86,-10.76,-17.61,1
3966,58.88,-15.64,-19.86,1
3967,58.89,-1.96,-27.09,1
3968,58.9,17.18,-36.55,1
3969,58.92,16.76,-37.13,1
3970,58.93,-0.3,-25.12,1
3971,58.95,-10.71,-13.67,1
3972,58.96,-13.15,-18.22,1
3973,58.97,-11.69,-36.02,1
3974,58.99,3.31,-49.71,1
3975,59.0,21.41,-50.54,1
3976,59.01,20.35,-46.77,1
3977,59.03,5.45,-47.01,1
3978,59.04,-1.0,-47.25,1
3979,59.05,2.3,-42.03,1
3980,59.06,1.19,-37.97,1
3981,59.08,-0.73,-44.05,1
3982,59.09,5.25,-56.69,1
3983,59.11,13.41,-60.82,1
3984,59.12,18.27,-53.61,1
3985,59.13,12.38,-51.97,1
3986,59.15,-5.81,-59.38,1
3987,59.16,-17.94,-62.02,1
3988,59.17,-16.63,-56.88,1
3989,59.19,-15.27,-48.64,1
3990,59.2,-16.49,-39.47,1
3991,59.21,-11.64,-32.93,1
3992,59.22,0.29,-34.38,1
3993,59.24,11.05,-39.5,1
3994,59.25,11.24,-36.01,1
3995,59.27,3.35,-29.75,1
3996,59.28,-4.03,-34.34,1
3997,59.29,-10.55,-40.77,1
3998,59.3,-11.86,-35.02,1
3999,59.32,-4.54,-24.68,1
4000,59.33,0.57,-23.02,1
4001,59.34,2.95,-28.57,1
4002,59.36,8.1,-30.6,1
4003,59.37,6.51,-23.35,1
4004,59.38,-0.03,-14.56,1
4005,59.4,1.4,-16.61,1
4006,59.41,7.35,-24.6,1
4007,59.42,6.36,-27.2,1
4008,59.44,-1.87,-27.31,1
4009,59.45,-6.75,-23.47,1
4010,59.46,-0.99,-9.21,1
4011,59.48,8.96,0.05,1
4012,59.49,12.19,-9.52,1
4013,59.5,8.29,-19.76,1
4014,59.52,4.29,-14.51,1
4015,59.53,1.58,-7.2,1
4016,59.54,0.18,-10.15,1
4017,59.56,4.5,-13.73,1
4018,59.57,10.53,-8.7,1
4019,59.59,9.1,-2.64,1
4020,59.6,4.46,-2.57,1
4021,59.61,3.57,-2.07,1
4022,59.63,-0.92,0.69,1
4023,59.64,-11.52,-1.44,1
4024,59.65,-15.22,-4.7,1
4025,59.67,-7.15,-1.56,1
4026,59.68,1.34,1.93,1
4027,59.69,1.63,0.91,1
4028,59.71,0.98,2.67,1
4029,59.72,5.02,9.29,1
4030,59.73,3.72,12.66,1
4031,59.75,-1.92,13.45,1
4032,59.76,2.29,17.09,1
4033,59.77,11.75,18.33,1
4034,59.79,12.15,14.3,1
4035,59.8,3.02,10.81,1
4036,59.81,-7.03,8.56,1
4037,59.83,-9.13,4.29,1
4038,59.84,-3.24,3.4,1
4039,59.85,0.19,13.01,1
4040,59.87,-0.17,25.8,1
4041,59.88,4.1,28.16,1
4042,59.89,7.42,21.74,1
4043,59.9,0.47,17.39,1
4044,59.92,-7.39,14.16,1
4045,59.93,-3.87,10.48,1
4046,59.94,3.04,12.77,1
4047,59.96,-5.76,17.98,1
4048,59.97,-26.06,22.3,1
4049,59.98,-27.57,26.75,1
4050,60.0,-2.11,26.6,1
4051,60.01,17.07,21.78,1
4052,60.02,10.17,14.89,1
4053,60.04,0.09,9.68,1
4054,60.05,2.0,16.36,1
4055,60.06,2.91,29.12,1
4056,60.08,1.23,27.16,1
4057,60.09,3.81,10.93,1
4058,60.1,1.65,2.31,1
4059,60.12,-12.44,8.82,1
4060,60.13,-20.58,24.96,1
4061,60.14,-8.47,59.21,1
4062,60.16,4.17,125.72,2
4063,60.17,3.72,211.41,2
4064,60.18,5.65,269.41,2
4065,60.2,10.76,265.76,2
4066,60.21,6.42,222.26,2
4067,60.22,3.7,173.7,2
4068,60.24,9.62,120.23,2
4069,60.25,7.15,61.23,2
4070,60.27,0.37,10.71,2
4071,60.28,4.77,-36.38,2
4072,60.29,7.77,-89.39,2
4073,60.31,3.29,-130.94,2
4074,60.32,2.98,-149.64,2
4075,60.33,-2.05,-159.47,2
4076,60.35,-17.36,-161.07,2
4077,60.36,-23.36,-146.4,2
4078,60.37,-15.38,-129.24,2
4079,60.38,-8.62,-120.09,2
4080,60.4,-6.42,-110.14,2
4081,60.41,-5.41,-100.71,2
4082,60.43,-6.95,-98.21,2
4083,60.44,-8.68,-92.3,2
4084,60.45,-4.63,-78.84,2
4085,60.47,2.44,-75.23,2
4086,60.48,6.19,-87.75,2
4087,60.49,4.5,-94.26,2
4088,60.51,-0.77,-80.72,2
4089,60.52,-2.88,-61.33,2
4090,60.53,3.68,-48.68,2
4091,60.54,9.97,-43.99,2
4092,60.56,1.82,-42.21,1
4093,60.57,-10.76,-36.16,1
4094,60.58,-3.56,-27.07,1
4095,60.6,12.67,-20.35,1
4096,60.61,6.57,-15.13,1
4097,60.62,-8.42,-9.83,1
4098,60.64,-1.46,-4.02,1
4099,60.65,11.88,6.55,1
4100,60.66,6.79,20.23,1
4101,60.68,-5.72,24.17,1
4102,60.69,-7.71,14.23,1
4103,60.7,-3.22,3.73,1
4104,60.72,-2.12,4.42,1
4105,60.73,-1.32,12.29,1
4106,60.74,1.02,19.06,1
4107,60.76,-0.84,23.69,1
4108,60.77,-5.08,26.66,1
4109,60.78,-5.5,26.49,1
4110,60.8,-7.76,23.41,1
4111,60.81,-17.14,20.75,1
4112,60.82,-21.69,22.49,1
4113,60.84,-11.97,28.54,1
4114,60.85,3.37,33.69,1
4115,60.865,16.12,34.88,1
4116,60.88,20.6,33.67,1
4117,60.89,13.72,36.11,1
4118,60.9,6.63,45.17,1
4119,60.92,4.61,46.96,1
4120,60.93,-0.51,26.5,1
4121,60.95,-6.66,9.89,1
4122,60.96,-7.83,25.12,1
4123,60.97,-3.85,44.35,1
4124,60.99,7.35,37.77,1
4125,61.0,16.51,25.46,1
4126,61.01,6.8,30.92,1
4127,61.03,-13.66,41.85,1
4128,61.04,-15.24,38.37,1
4129,61.05,6.06,25.92,1
4130,61.06,19.69,21.91,1
4131,61.08,11.5,26.73,1
4132,61.09,-0.42,28.27,1
4133,61.11,-2.99,23.71,1
4134,61.12,-2.65,21.8,1
4135,61.13,-5.57,26.36,1
4136,61.15,-0.8,27.98,1
4137,61.16,16.23,21.25,1
4138,61.17,21.71,18.57,1
4139,61.19,6.49,27.0,1
4140,61.2,-4.28,31.28,1
4141,61.21,-1.61,23.15,1
4142,61.22,-2.03,14.3,1
4143,61.24,-6.68,11.63,1
4144,61.25,-0.92,12.64,1
4145,61.26,11.59,15.2,1
4146,61.28,15.18,17.62,1
4147,61.29,8.03,18.44,1
4148,61.3,-2.85,15.63,1
4149,61.32,-9.92,9.42,1
4150,61.33,-4.92,3.79,1
4151,61.34,6.97,1.07,1
4152,61.36,6.46,3.12,1
4153,61.37,-8.71,9.07,1
4154,61.38,-18.71,6.26,1
4155,61.4,-12.62,-6.0,1
4156,61.41,-0.01,-8.79,1
4157,61.42,6.99,0.47,1
4158,61.44,5.99,6.44,1
4159,61.45,-1.4,3.49,1
4160,61.46,-7.87,-1.34,1
4161,61.48,-4.09,-4.89,1
4162,61.49,4.91,-10.39,1
4163,61.5,7.04,-13.76,1
4164,61.52,3.87,-4.88,1
4165,61.53,4.36,11.89,1
4166,61.54,5.57,15.69,1
4167,61.56,1.55,6.65,1
4168,61.57,-0.66,1.95,1
4169,61.59,1.5,-1.83,1
4170,61.6,-3.08,-9.19,1
4171,61.61,-11.84,-12.48,1
4172,61.63,-10.87,-17.47,1
4173,61.64,-2.91,-22.84,1
4174,61.65,2.85,-12.12,1
4175,61.67,4.79,4.22,1
4176,61.68,2.7,2.93,1
4177,61.69,-4.2,-9.2,1
4178,61.71,-11.14,-15.19,1
4179,61.72,-11.66,-14.41,1
4180,61.73,-5.42,-12.6,1
4181,61.75,3.14,-9.63,1
4182,61.76,7.64,-6.93,1
4183,61.77,2.25,-14.04,1
4184,61.79,-7.23,-25.13,1
4185,61.8,-7.48,-23.97,1
4186,61.81,2.27,-15.82,1
4187,61.83,12.78,-11.72,1
4188,61.84,18.25,-7.65,1
4189,61.85,15.96,-6.48,1
4190,61.86,8.75,-14.8,1
4191,61.88,4.93,-22.28,1
4192,61.89,2.72,-19.36,1
4193,61.9,-3.12,-13.91,1
4194,61.92,-8.18,-14.54,1
4195,61.93,-11.97,-19.46,1
4196,61.94,-19.07,-22.77,1
4197,61.96,-20.22,-19.65,1
4198,61.97,-5.65,-12.47,1
4199,61.98,11.51,-10.95,1
4200,62.0,17.88,-12.65,1
4201,62.01,17.99,-3.43,1
4202,62.02,12.06,6.63,1
4203,62.04,-0.57,-3.24,1
4204,62.05,-6.36,-21.75,1
4205,62.06,2.27,-24.25,1
4206,62.08,11.0,-14.37,1
4207,62.09,6.76,-12.06,1
4208,62.1,-2.87,-14.86,1
4209,62.12,-6.19,-5.73,1
4210,62.13,-1.84,8.22,1
4211,62.14,4.79,4.85,1
4212,62.16,4.8,-12.86,2
4213,62.17,-3.51,-18.91,2
4214,62.19,-7.38,-0.34,2
4215,62.2,3.11,22.08,2
4216,62.21,11.21,24.95,2
4217,62.22,-2.71,46.44,2
4218,62.24,-15.17,95.19,2
4219,62.25,1.84,79.28,2
4220,62.27,21.58,17.16,2
4221,62.28,12.74,-4.18,2
4222,62.29,0.3,-46.52,2
4223,62.31,10.34,-92.47,2
4224,62.32,4.11,-21.8,2
4225,62.33,-38.58,40.16,2
4226,62.35,-49.0,-50.45,2
4227,62.36,-4.85,-115.64,2
4228,62.37,10.26,-10.37,2
4229,62.38,-26.51,109.57,2
4230,62.4,-38.02,87.38,2
4231,62.41,-4.89,-26.99,2
4232,62.43,15.23,-88.44,2
4233,62.44,9.53,-43.28,2
4234,62.45,8.6,5.88,2
4235,62.47,11.41,-10.86,2
4236,62.48,4.68,-31.93,2
4237,62.49,2.39,-38.06,2
4238,62.5,13.17,-55.18,2
4239,62.52,15.78,-44.9,2
4240,62.53,1.79,10.27,2
4241,62.54,-0.22,76.36,2
4242,62.56,18.62,121.28,1
4243,62.57,25.47,105.56,1
4244,62.58,17.25,39.19,1
4245,62.6,14.76,-3.83,1
4246,62.61,9.1,-5.84,1
4247,62.62,2.28,-25.28,1
4248,62.64,6.17,-67.55,1
4249,62.65,-0.54,-73.09,1
4250,62.66,-21.86,-46.71,1
4251,62.68,-25.17,-34.52,1
4252,62.69,-9.46,-37.31,1
4253,62.7,-2.37,-34.69,1
4254,62.72,-5.37,-22.09,1
4255,62.73,-7.65,-24.5,1
4256,62.74,-6.52,-41.54,1
4257,62.76,-0.43,-28.3,1
4258,62.77,-0.64,-8.48,1
4259,62.78,-13.97,-44.62,1
4260,62.8,-22.93,-83.33,1
4261,62.81,-16.89,-51.27,1
4262,62.82,-5.38,-10.38,1
4263,62.84,-1.83,-24.61,1
4264,62.85,-7.89,-33.6,1
4265,62.87,-8.32,16.49,1
4266,62.88,4.63,63.64,1
4267,62.89,13.17,40.67,1
4268,62.9,3.21,-15.2,1
4269,62.92,-8.52,-44.05,1
4270,62.93,-6.93,-37.47,1
4271,62.95,-4.82,-4.64,1
4272,62.96,-5.48,31.02,1
4273,62.97,2.89,40.48,1
4274,62.99,10.52,28.45,1
4275,63.0,5.0,25.37,1
4276,63.01,0.02,35.21,1
4277,63.03,7.74,24.84,1
4278,63.04,16.16,15.16,1
4279,63.05,10.88,47.87,1
4280,63.06,-0.94,56.3,1
4281,63.08,-6.46,-1.31,1
4282,63.09,-10.67,-28.52,1
4283,63.11,-10.55,1.46,1
4284,63.12,5.81,7.43,1
4285,63.13,15.87,3.07,1
4286,63.14,0.09,38.35,1
4287,63.16,-12.51,60.91,1
4288,63.17,-3.17,46.2,1
4289,63.18,4.85,41.15,1
4290,63.2,-4.44,36.09,1
4291,63.21,-18.72,8.87,1
4292,63.22,-22.6,-11.6,1
4293,63.24,-11.84,-17.7,1
4294,63.25,5.07,-14.52,1
4295,63.26,14.61,8.28,1
4296,63.28,16.78,36.9,1
4297,63.29,17.09,50.95,1
4298,63.3,11.03,46.6,1
4299,63.32,-3.88,25.62,1
4300,63.33,-18.44,8.3,1
4301,63.34,-19.89,5.02,1
4302,63.36,-6.84,-15.91,1
4303,63.37,9.96,-41.23,1
4304,63.38,20.97,-5.55,1
4305,63.4,17.17,53.39,1
4306,63.41,-0.73,49.62,1
4307,63.42,-9.04,12.93,1
4308,63.44,4.97,4.61,1
4309,63.45,14.89,12.21,1
4310,63.46,0.54,5.25,1
4311,63.48,-15.9,-15.63,1
4312,63.49,-14.93,-22.41,1
4313,63.51,-11.93,6.75,1
4314,63.52,-15.01,37.94,1
4315,63.53,-9.9,21.23,1
4316,63.54,3.75,-14.51,1
4317,63.56,13.58,-4.31,1
4318,63.57,16.51,26.53,1
4319,63.59,13.7,9.62,1
4320,63.6,6.11,-24.51,1
4321,63.61,0.59,-12.95,1
4322,63.63,2.14,1.65,1
4323,63.64,1.64,-37.8,1
4324,63.65,-5.88,-64.06,1
4325,63.67,-6.56,-8.28,1
4326,63.68,1.88,37.15,1
4327,63.69,1.56,1.21,1
4328,63.71,-4.69,-18.06,1
4329,63.72,6.82,21.97,1
4330,63.73,26.81,31.96,1
4331,63.75,22.02,-6.48,1
4332,63.76,2.33,-6.97,1
4333,63.77,0.93,47.53,1
4334,63.78,11.2,56.99,1
4335,63.8,10.88,-2.56,1
4336,63.81,-0.1,-26.47,1
4337,63.82,-11.12,4.34,1
4338,63.84,-10.25,9.23,1
4339,63.85,-0.2,-11.55,1
4340,63.86,1.63,-10.92,1
4341,63.88,1.78,4.21,1
4342,63.89,15.79,15.0,1
4343,63.9,23.35,20.92,1
4344,63.92,7.7,21.04,1
4345,63.93,-7.05,11.58,1
4346,63.94,-5.27,-2.98,1
4347,63.96,-2.06,-10.03,1
4348,63.97,-4.52,-1.22,1
4349,63.98,-4.64,5.63,1
4350,64.0,-2.06,-14.82,1
4351,64.01,-4.18,-39.57,1
4352,64.02,-9.58,-33.86,1
4353,64.04,-10.35,-8.51,1
4354,64.05,-7.64,7.85,1
4355,64.06,-5.04,-5.93,1
4356,64.08,-0.32,-25.34,1
4357,64.09,2.13,0.93,1
4358,64.1,-0.24,39.54,1
4359,64.12,4.48,20.99,1
4360,64.13,13.65,-23.74,1
4361,64.14,8.24,-34.44,1
4362,64.16,-5.87,-23.52,0
4363,64.17,-9.2,-13.03,0
4364,64.18,-2.31,3.66,0
4365,64.2,5.9,19.96,0
4366,64.21,7.2,19.85,0
4367,64.22,-0.06,11.31,0
4368,64.24,0.06,15.0,0
4369,64.25,10.93,16.37,0
4370,64.26,10.01,-20.55,0
4371,64.28,-1.66,-97.46,0
4372,64.29,-1.08,-173.4,0
4373,64.3,1.07,-206.77,0
4374,64.32,-10.85,-196.83,0
4375,64.33,-17.54,-173.56,0
4376,64.34,-8.64,-149.26,0
4377,64.36,1.33,-111.61,0
4378,64.37,7.82,-58.04,0
4379,64.38,16.87,-5.29,0
4380,64.4,25.52,33.88,0
4381,64.41,23.42,55.1,0
4382,64.42,11.75,61.98,0
4383,64.44,0.11,73.42,0
4384,64.45,-7.49,88.79,0
4385,64.46,-13.44,82.02,0
4386,64.48,-22.46,66.52,0
4387,64.49,-27.85,75.96,0
4388,64.5,-19.59,87.29,0
4389,64.52,-9.77,73.84,0
4390,64.53,-11.17,60.32,0
4391,64.54,-13.08,59.75,0
4392,64.56,-8.65,56.7,1
4393,64.57,-4.27,50.03,1
4394,64.58,1.91,45.37,1
4395,64.6,8.34,41.22,1
4396,64.61,2.8,35.38,1
4397,64.62,-12.16,27.68,1
4398,64.64,-20.99,24.18,1
4399,64.65,-19.01,29.18,1
4400,64.66,-9.09,36.99,1
4401,64.68,5.01,42.85,1
4402,64.69,11.55,48.04,1
4403,64.7,5.08,50.24,1
4404,64.72,-1.1,45.15,1
4405,64.73,0.97,38.02,1
4406,64.74,4.38,31.31,1
4407,64.76,3.65,22.0,1
4408,64.77,-2.97,15.58,1
4409,64.79,-10.01,16.34,1
4410,64.8,-9.25,19.38,1
4411,64.81,-9.53,21.84,1
4412,64.82,-14.76,17.8,1
4413,64.84,-6.51,2.0,1
4414,64.85,12.99,-7.56,1
4415,64.86,18.56,3.95,1
4416,64.88,10.55,15.91,1
4417,64.89,6.39,10.49,1
4418,64.9,4.22,4.33,1
4419,64.92,-2.29,12.32,1
4420,64.93,-4.69,18.59,1
4421,64.94,0.83,8.27,1
4422,64.96,4.84,-6.85,1
4423,64.97,2.18,-11.59,1
4424,64.98,-3.3,-4.21,1
4425,65.0,-2.36,2.39,1
4426,65.01,8.46,-8.18,1
4427,65.02,13.9,-21.27,1
4428,65.04,5.78,-14.87,1
4429,65.05,0.4,-11.28,1
4430,65.06,5.87,-28.61,1
4431,65.08,11.78,-40.25,1
4432,65.09,13.03,-33.05,1
4433,65.1,11.62,-25.14,1
4434,65.12,6.04,-22.32,1
4435,65.13,-4.5,-16.6,1
4436,65.14,-9.3,-14.42,1
4437,65.16,-0.66,-22.5,1
4438,65.17,8.16,-26.95,1
4439,65.18,7.88,-23.76,1
4440,65.2,4.75,-23.71,1
4441,65.21,1.02,-19.64,1
4442,65.22,-1.38,-8.18,1
4443,65.24,1.65,-7.91,1
4444,65.25,7.13,-21.25,1
4445,65.26,8.69,-28.96,1
4446,65.28,0.78,-22.28,1
4447,65.29,-8.95,-11.81,1
4448,65.3,-5.03,-11.32,1
4449,65.32,5.66,-17.07,1
4450,65.33,6.33,-17.58,1
4451,65.34,2.93,-17.19,1
4452,65.36,6.88,-21.23,1
4453,65.37,11.44,-21.37,1
4454,65.38,7.29,-14.93,1
4455,65.4,0.19,-12.32,1
4456,65.41,-1.2,-20.84,1
4457,65.42500000000001,-2.42,-29.74,1
4458,65.44,-6.03,-27.14,1
4459,65.45,-2.77,-23.58,1
4460,65.46,3.68,-24.41,1
4461,65.48,1.73,-16.46,1
4462,65.49,-3.35,-5.62,1
4463,65.5,-1.58,-12.91,1
4464,65.52,0.24,-30.14,1
4465,65.53,-5.0,-31.06,1
4466,65.54,-10.08,-18.7,1
4467,65.56,-9.51,-11.38,1
4468,65.57,-5.19,-7.03,1
4469,65.58,1.82,-2.48,1
4470,65.6,4.23,-5.08,1
4471,65.61,-6.28,-11.1,1
4472,65.62,-18.21,-8.49,1
4473,65.64,-13.95,-2.89,1
4474,65.65,-2.81,-7.51,1
4475,65.66,-3.81,-13.84,1
4476,65.68,-9.97,-11.09,1
4477,65.69,-7.01,-10.1,1
4478,65.7,0.43,-13.77,1
4479,65.72,4.49,-6.89,1
4480,65.73,3.6,6.61,1
4481,65.74,-2.39,5.6,1
4482,65.76,-8.63,-4.57,1
4483,65.77,-7.13,-2.94,1
4484,65.78,2.8,4.26,1
4485,65.8,8.45,3.3,1
4486,65.81,0.67,2.98,1
4487,65.82,-6.82,8.89,1
4488,65.84,-0.9,7.56,1
4489,65.85,10.3,-2.5,1
4490,65.86,16.01,-5.65,1
4491,65.88,13.93,-0.1,1
4492,65.89,5.52,6.79,1
4493,65.9,-4.78,14.57,1
4494,65.92,-8.93,16.85,1
4495,65.93,-3.98,10.17,1
4496,65.94,-1.86,5.79,1
4497,65.96,-10.42,8.51,1
4498,65.97,-13.14,8.35,1
4499,65.98,-0.41,5.31,1
4500,66.0,7.24,11.23,1
4501,66.01,-2.23,20.86,1
4502,66.02,-11.47,22.03,1
4503,66.04,-9.94,17.58,1
4504,66.05,-7.87,8.68,1
4505,66.06,-5.23,-2.06,1
4506,66.08,3.9,1.57,1
4507,66.09,5.5,16.42,1
4508,66.11,-6.4,16.7,1
4509,66.12,-10.24,5.62,1
4510,66.13,0.94,7.43,1
4511,66.14,8.73,18.15,1
4512,66.16,6.4,20.86,0
4513,66.17,5.04,14.75,0
4514,66.18,6.99,6.26,0
4515,66.2,3.46,0.85,0
4516,66.21,-1.94,1.09,0
4517,66.22,1.77,3.5,0
4518,66.24,7.96,3.69,0
4519,66.25,5.67,4.39,0
4520,66.26,0.52,7.5,0
4521,66.28,-1.53,-4.01,0
4522,66.29,-3.32,-45.03,0
4523,66.3,-2.27,-95.28,0
4524,66.32,1.24,-125.07,0
4525,66.33,-1.78,-132.65,0
4526,66.34,-6.28,-127.13,0
4527,66.36,2.62,-111.35,0
4528,66.37,15.84,-94.31,0
4529,66.38,16.47,-81.28,0
4530,66.4,11.93,-64.81,0
4531,66.41,9.82,-46.17,0
4532,66.42,4.82,-32.83,0
4533,66.44,-1.98,-16.74,0
4534,66.45,-4.87,10.4,0
4535,66.46,-1.86,37.17,0
4536,66.48,6.66,53.03,0
4537,66.49,13.84,63.89,0
4538,66.5,12.28,74.81,0
4539,66.52,5.69,85.54,0
4540,66.53,-2.84,97.98,0
4541,66.54,-15.79,108.56,0
4542,66.56,-21.76,112.46,1
4543,66.57,-13.43,115.11,1
4544,66.58,-8.1,121.11,1
4545,66.6,-10.16,127.66,1
4546,66.61,-11.95,131.79,1
4547,66.62,-19.14,129.84,1
4548,66.64,-24.0,122.23,1
4549,66.65,-10.15,110.92,1
4550,66.66,9.7,97.7,1
4551,66.68,12.21,92.21,1
4552,66.69,-1.63,96.71,1
4553,66.7,-9.83,96.56,1
4554,66.72,-0.16,83.18,1
4555,66.73,12.71,64.79,1
4556,66.75,14.04,49.72,1
4557,66.76,8.31,35.72,1
4558,66.77,5.61,22.55,1
4559,66.79,7.55,17.23,1
4560,66.8,5.22,21.06,1
4561,66.81,-5.76,23.16,1
4562,66.82,-13.14,12.3,1
4563,66.84,-7.84,-4.89,1
4564,66.85,1.63,-11.24,1
4565,66.86,5.08,-8.21,1
4566,66.88,3.17,-9.73,1
4567,66.89,1.69,-14.46,1
4568,66.9,2.25,-15.9,1
4569,66.92,5.23,-18.88,1
4570,66.93,10.36,-23.74,1
4571,66.94,9.37,-26.48,1
4572,66.96,1.27,-31.7,1
4573,66.97,0.14,-38.02,1
4574,66.98,5.42,-37.83,1
4575,67.0,3.3,-36.69,1
4576,67.01,-2.94,-40.76,1
4577,67.02,-2.45,-41.03,1
4578,67.04,1.65,-32.26,1
4579,67.05,2.43,-27.96,1
4580,67.06,5.82,-41.35,1
4581,67.08,16.43,-59.6,1
4582,67.09,16.03,-56.31,1
4583,67.1,-4.11,-36.7,1
4584,67.12,-12.8,-35.49,1
4585,67.13,5.45,-51.79,1
4586,67.14,16.53,-50.43,1
4587,67.16,4.69,-34.47,1
4588,67.17,-4.12,-34.77,1
4589,67.18,-6.52,-48.09,1
4590,67.2,-12.36,-52.73,1
4591,67.21,-8.85,-49.97,1
4592,67.22,4.44,-48.04,1
4593,67.24,11.32,-44.26,1
4594,67.25,9.68,-39.71,1
4595,67.26,3.49,-37.86,1
4596,67.28,-5.96,-34.72,1
4597,67.29,-9.83,-31.23,1
4598,67.3,-1.56,-32.84,1
4599,67.32,9.46,-37.35,1
4600,67.33,10.43,-38.74,1
4601,67.34,2.49,-36.08,1
4602,67.36,-6.16,-35.66,1
4603,67.37,-13.09,-38.82,1
4604,67.38,-14.1,-37.92,1
4605,67.4,-1.8,-29.96,1
4606,67.41,14.06,-21.27,1
4607,67.43,13.09,-19.71,1
4608,67.44,0.01,-23.6,1
4609,67.45,-4.11,-24.64,1
4610,67.46,-1.03,-24.33,1
4611,67.48,-2.11,-27.57,1
4612,67.49,-1.52,-27.78,1
4613,67.5,2.2,-20.87,1
4614,67.52,-3.38,-14.15,1
4615,67.53,-15.47,-10.31,1
4616,67.54,-12.97,-7.05,1
4617,67.56,4.0,-8.82,1
4618,67.57,8.51,-16.06,1
4619,67.58,-3.26,-17.64,1
4620,67.6,-3.86,-8.42,1
4621,67.61,7.92,2.06,1
4622,67.62,8.39,3.5,1
4623,67.64,-0.52,0.26,1
4624,67.65,-5.5,0.64,1
4625,67.66,-9.19,-0.72,1
4626,67.68,-11.16,-5.84,1
4627,67.69,-10.3,-4.49,1
4628,67.7,-11.54,2.73,1
4629,67.72,-7.56,6.98,1
4630,67.73,3.96,7.09,1
4631,67.74,6.9,4.6,1
4632,67.76,0.43,4.38,1
4633,67.77,-2.22,9.18,1
4634,67.78,-2.47,12.11,1
4635,67.8,-4.15,12.09,1
4636,67.81,-1.64,12.76,1
4637,67.82,3.07,12.47,1
4638,67.84,2.14,10.66,1
4639,67.85,0.1,7.05,1
4640,67.86,2.94,2.73,1
4641,67.88,1.37,6.04,1
4642,67.89,-5.77,16.89,1
4643,67.9,-2.37,21.04,1
4644,67.92,8.23,15.35,1
4645,67.93,5.5,11.34,1
4646,67.94,-10.25,12.9,1
4647,67.96,-20.78,15.64,1
4648,67.97,-15.64,18.21,1
4649,67.98,-1.75,20.17,1
4650,68.0,4.99,21.71,1
4651,68.01,0.93,23.77,1
4652,68.02,-1.08,23.82,1
4653,68.04,3.36,20.66,1
4654,68.05,3.05,16.95,1
4655,68.06,-2.81,17.41,1
4656,68.08,-2.42,23.11,1
4657,68.09,5.77,26.99,1
4658,68.11,13.11,23.87,1
4659,68.12,13.42,14.4,1
4660,68.13,7.13,7.19,1
4661,68.14,-2.45,10.57,1
4662,68.16,-10.6,20.16,2
4663,68.17,-8.8,50.31,2
4664,68.18,-0.29,125.12,2
4665,68.2,0.87,210.21,2
4666,68.21,-2.79,246.07,2
4667,68.22,4.58,235.81,2
4668,68.24,23.21,217.48,2
4669,68.25,38.66,190.93,2
4670,68.26,44.86,137.76,2
4671,68.28,42.63,72.8,2
4672,68.29,25.95,24.1,2
4673,68.3,-0.07,-10.45,2
4674,68.32,-14.04,-52.39,2
4675,68.33,-14.81,-102.71,2
4676,68.34,-21.37,-142.05,2
4677,68.36,-34.6,-161.98,2
4678,68.37,-38.55,-162.25,2
4679,68.38,-26.81,-144.11,2
4680,68.4,-10.8,-127.16,2
4681,68.41,-7.6,-131.09,2
4682,68.42,-14.17,-140.26,2
4683,68.44,-12.23,-129.48,2
4684,68.45,-2.68,-107.57,2
4685,68.46,-0.97,-96.31,2
4686,68.48,-4.35,-92.45,2
4687,68.49,-2.37,-84.29,2
4688,68.5,2.25,-77.48,2
4689,68.52,5.31,-74.84,2
4690,68.53,5.36,-64.25,2
4691,68.54,2.47,-48.74,2
4692,68.56,2.56,-44.19,1
4693,68.57,3.74,-45.73,1
4694,68.58,-3.12,-42.98,1
4695,68.6,-9.98,-37.97,1
4696,68.61,-4.56,-32.1,1
4697,68.62,1.87,-22.83,1
4698,68.64,-3.66,-12.83,1
4699,68.65,-10.17,-7.18,1
4700,68.66,-4.08,-4.72,1
4701,68.68,8.86,-0.55,1
4702,68.69,12.82,7.93,1
4703,68.7,5.08,15.49,1
4704,68.72,1.94,13.12,1
4705,68.73,8.83,7.34,1
4706,68.75,7.9,11.13,1
4707,68.76,-5.77,19.07,1
4708,68.77,-12.07,21.91,1
4709,68.79,-1.72,23.23,1
4710,68.8,9.89,27.65,1
4711,68.81,7.68,30.82,1
4712,68.82,-2.42,24.47,1
4713,68.84,-4.48,14.93,1
4714,68.85,4.6,16.5,1
4715,68.86,14.29,23.89,1
4716,68.88,18.6,24.86,1
4717,68.89,18.99,28.39,1
4718,68.9,15.68,39.6,1
4719,68.92,10.73,39.27,1
4720,68.93,5.88,28.01,1
4721,68.94,-2.24,30.64,1
4722,68.96,-11.1,43.44,1
4723,68.97,-10.74,45.84,1
4724,68.98,-0.18,39.65,1
4725,69.0,6.18,33.3,1
4726,69.01,2.05,28.46,1
4727,69.02,-3.7,28.22,1
4728,69.04,-8.93,30.87,1
4729,69.05,-11.1,29.27,1
4730,69.06,-2.16,23.54,1
4731,69.08,9.44,22.13,1
4732,69.09,13.62,26.91,1
4733,69.1,15.73,30.53,1
4734,69.12,14.01,28.73,1
4735,69.13,1.31,26.16,1
4736,69.14,-12.16,31.94,1
4737,69.16,-11.23,40.42,1
4738,69.17,-0.55,35.47,1
4739,69.18,6.3,21.65,1
4740,69.2,9.52,16.83,1
4741,69.21,7.44,20.86,1
4742,69.22,-6.06,20.5,1
4743,69.24,-13.6,13.25,1
4744,69.25,-1.58,11.6,1
4745,69.26,6.83,20.48,1
4746,69.28,-3.18,28.02,1
4747,69.29,-11.73,27.1,1
4748,69.3,-8.25,20.62,1
4749,69.32,-3.82,12.56,1
4750,69.33,-0.59,7.0,1
4751,69.34,5.04,3.35,1
4752,69.36,6.15,1.71,1
4753,69.37,-2.16,7.06,1
4754,69.38,-10.0,11.58,1
4755,69.4,-9.6,5.75,1
4756,69.41,-6.24,3.12,1
4757,69.43,1.38,10.31,1
4758,69.44,12.6,12.8,1
4759,69.45,9.56,7.5,1
4760,69.46,-5.76,2.16,1
4761,69.48,-6.47,-1.58,1
4762,69.49,2.04,-3.88,1
4763,69.5,-3.62,-3.93,1
4764,69.52,-12.35,-2.93,1
4765,69.53,-8.66,-7.47,1
4766,69.54,-3.14,-21.25,1
4767,69.56,-3.25,-30.32,1
4768,69.57,-1.94,-24.91,1
4769,69.58,2.33,-13.5,1
4770,69.6,2.71,-3.78,1
4771,69.61,-1.79,-0.42,1
4772,69.62,-2.97,-1.26,1
4773,69.64,1.55,1.71,1
4774,69.65,2.27,3.4,1
4775,69.66,-1.72,0.29,1
4776,69.68,0.16,0.36,1
4777,69.69,6.39,-0.91,1
4778,69.7,5.33,-10.24,1
4779,69.72,-3.15,-16.14,1
4780,69.73,-9.55,-13.55,1
4781,69.74,-9.52,-12.26,1
4782,69.76,-3.41,-13.37,1
4783,69.77,3.46,-10.04,1
4784,69.78,1.36,-3.61,1
4785,69.8,-5.21,-4.94,1
4786,69.81,-3.57,-15.28,1
4787,69.82,1.56,-18.77,1
4788,69.84,2.4,-11.6,1
4789,69.85,1.03,-12.65,1
4790,69.86,-2.5,-26.71,1
4791,69.88,-5.75,-33.67,1
4792,69.89,-1.77,-24.14,1
4793,69.9,2.13,-9.14,1
4794,69.92,-4.54,-4.58,1
4795,69.93,-10.87,-16.85,1
4796,69.94,-5.3,-28.39,1
4797,69.96,1.52,-19.6,1
4798,69.97,0.93,-1.91,1
4799,69.98,5.15,3.45,1
4800,70.0,17.47,-3.16,1
4801,70.01,18.45,-9.89,1
4802,70.02,5.49,-10.14,1
4803,70.04,-3.48,-9.27,1
4804,70.05,-5.36,-15.44,1
4805,70.06,-5.55,-21.27,1
4806,70.08,-2.29,-16.63,1
4807,70.09,3.47,-7.89,1
4808,70.11,6.55,-1.84,1
4809,70.12,5.33,-0.03,1
4810,70.13,-0.85,-9.35,1
4811,70.14,-9.76,-23.48,1
4812,70.16,-8.43,-24.96,2
4813,70.17,6.99,-16.59,2
4814,70.18,16.24,-17.27,2
4815,70.2,9.25,-29.17,2
4816,70.21,2.01,-15.41,2
4817,70.22,2.55,52.55,2
4818,70.24,2.95,113.83,2
4819,70.25,3.58,105.53,2
4820,70.26,5.0,79.59,2
4821,70.28,-2.76,77.59,2
4822,70.29,-16.28,53.07,2
4823,70.3,-16.57,-0.16,2
4824,70.32,-1.64,-44.86,2
4825,70.33,8.15,-71.67,2
4826,70.34,2.19,-62.93,2
4827,70.36,-7.62,-22.54,2
4828,70.37,-6.44,-4.6,2
4829,70.38,7.91,-5.96,2
4830,70.4,23.25,13.65,2
4831,70.41,24.1,26.5,2
4832,70.42,11.6,-1.65,2
4833,70.44,3.47,-53.46,2
4834,70.45,4.11,-88.03,2
4835,70.46,1.63,-67.2,2
4836,70.48,-2.99,-19.76,2
4837,70.49,-4.72,-11.59,2
4838,70.5,-8.32,-21.71,2
4839,70.52,-13.92,-0.17,2
4840,70.53,-20.58,12.43,2
4841,70.54,-24.12,-31.94,2
4842,70.56,-13.61,-77.05,1
4843,70.57,2.42,-48.65,1
4844,70.58,5.17,-0.93,1
4845,70.6,-0.98,-16.68,1
4846,70.61,-4.63,-44.6,1
4847,70.62,-6.63,-34.4,1
4848,70.64,-7.16,-33.71,1
4849,70.65,1.16,-46.22,1
4850,70.66,22.54,-32.75,1
4851,70.68,39.38,-13.75,1
4852,70.69,28.25,-11.96,1
4853,70.7,2.73,-2.4,1
4854,70.72,-9.82,10.87,1
4855,70.73,-8.85,-0.47,1
4856,70.75,-3.89,-12.12,1
4857,70.76,-0.51,1.55,1
4858,70.77,-1.05,14.36,1
4859,70.79,-3.07,16.37,1
4860,70.8,-10.77,18.99,1
4861,70.81,-22.85,12.55,1
4862,70.82,-15.67,4.1,1
4863,70.84,9.88,19.59,1
4864,70.85,13.13,48.13,1
4865,70.86,-8.05,49.93,1
4866,70.88,-9.73,13.62,1
4867,70.89,6.13,-21.1,1
4868,70.9,-5.7,-16.28,1
4869,70.92,-33.65,13.48,1
4870,70.93,-25.41,28.09,1
4871,70.94,8.79,5.26,1
4872,70.96,18.17,-25.25,1
4873,70.97,0.97,-15.84,1
4874,70.98,-7.79,13.06,1
4875,71.0,2.99,14.35,1
4876,71.01,14.46,-5.79,1
4877,71.02,10.05,-25.14,1
4878,71.04,-1.62,-30.61,1
