,Timestamp,Data1,Data2,Label
0,6.0,2.58,-28.32,1
1,6.01,-0.32,42.77,1
2,6.03,19.5,2.92,1
3,6.04,-13.49,-33.41,1
4,6.05,-48.06,26.69,1
5,6.07,-14.11,-8.04,1
6,6.08,0.79,-32.25,1
7,6.09,-22.28,29.77,1
8,6.11,-10.71,-15.69,1
9,6.12,-0.05,-44.73,1
10,6.13,-14.68,23.52,1
11,6.15,-9.97,-21.19,2
12,6.16,1.06,-53.86,2
13,6.17,24.31,24.56,2
14,6.19,56.8,7.76,2
15,6.2,36.45,40.52,2
16,6.21,19.1,213.83,2
17,6.23,45.87,210.2,2
18,6.24,24.89,129.72,2
19,6.25,-2.73,241.3,2
20,6.27,42.8,328.72,2
21,6.28,66.25,276.92,2
22,6.29,23.36,264.22,2
23,6.31,-9.7,286.13,2
24,6.32,-28.22,244.25,2
25,6.33,-45.53,178.01,2
26,6.35,-42.24,144.56,2
27,6.36,-65.65,123.53,2
28,6.37,-106.3,90.34,2
29,6.39,-69.92,56.85,2
30,6.4,-1.1,32.29,2
31,6.41,-3.76,9.98,2
32,6.43,-44.9,-13.62,2
33,6.44,-39.19,-35.32,2
34,6.45,26.0,-54.32,2
35,6.47,67.02,-71.9,2
36,6.48,14.11,-87.96,2
37,6.49,-33.83,-101.74,2
38,6.51,11.63,-114.0,2
39,6.52,25.18,-125.49,2
40,6.53,-42.55,-135.66,2
41,6.55,-57.43,-144.2,2
42,6.56,-5.36,-151.28,1
43,6.57,32.26,-157.45,1
44,6.59,20.85,-162.8,1
45,6.6,-26.27,-166.83,1
46,6.61,-26.97,-170.11,1
47,6.63,9.78,-172.98,1
48,6.64,-16.0,-174.62,1
49,6.65,-53.67,-174.69,1
50,6.67,-19.41,-174.58,1
51,6.68,32.78,-174.53,1
52,6.69,55.37,-173.23,1
53,6.71,44.92,-170.39,1
54,6.72,5.77,-167.27,1
55,6.73,2.69,-164.34,1
56,6.75,47.45,-160.76,1
57,6.76,51.19,-156.57,1
58,6.77,19.61,-151.95,1
59,6.79,18.42,-147.49,1
60,6.8,11.62,-142.55,1
61,6.81,-6.13,-136.59,1
62,6.82,13.06,-130.01,1
63,6.84,18.98,-123.81,1
64,6.85,-14.12,-118.25,1
65,6.86,-36.81,-112.21,1
66,6.88,-58.87,-105.09,1
67,6.89,-65.34,-97.66,1
68,6.91,-4.43,-90.6,1
69,6.92,58.44,-83.8,1
70,6.93,60.46,-76.86,1
71,6.95,50.62,-70.22,1
72,6.96,20.5,-63.73,1
73,6.97,-35.86,-57.02,1
74,6.99,-17.24,-50.02,1
75,7.0,53.65,-42.85,1
76,7.01,52.15,-35.95,1
77,7.03,-0.52,-29.57,1
78,7.04,-33.61,-23.18,1
79,7.05,-34.0,-16.75,1
80,7.07,10.44,-10.72,1
81,7.08,48.93,-4.29,1
82,7.09,27.24,1.99,1
83,7.11,2.62,7.66,1
84,7.12,3.24,13.02,1
85,7.13,-3.91,18.44,1
86,7.15,-12.96,23.73,1
87,7.16,-19.78,29.28,1
88,7.17,-19.78,34.36,1
89,7.19,4.56,38.73,1
90,7.2,14.02,43.2,1
91,7.21,-13.46,47.78,1
92,7.23,-28.45,51.66,1
93,7.24,-27.55,55.27,1
94,7.25,-29.63,59.3,1
95,7.27,-6.63,63.54,1
96,7.28,25.86,66.82,1
97,7.29,34.26,69.17,1
98,7.31,30.39,71.03,1
99,7.32,2.38,73.6,1
100,7.33,-32.29,76.73,1
101,7.35,-21.33,78.99,1
102,7.36,-10.23,80.41,1
103,7.37,-25.65,81.55,1
104,7.39,-11.67,83.01,1
105,7.4,11.28,84.63,1
106,7.41,8.94,85.7,1
107,7.43,-5.38,85.91,1
108,7.44,-26.46,85.84,1
109,7.45,-5.67,85.93,1
110,7.47,41.0,86.11,1
111,7.48,10.07,86.52,1
112,7.49,-33.15,87.02,1
113,7.51,9.39,86.74,1
114,7.52,29.36,86.24,1
115,7.53,-7.39,86.07,1
116,7.55,-0.6,85.44,1
117,7.56,9.92,84.18,1
118,7.57,-5.78,83.35,1
119,7.59,15.71,82.66,1
120,7.6,24.85,80.93,1
121,7.61,-0.52,78.73,1
122,7.63,10.33,77.12,1
123,7.64,22.88,75.39,1
124,7.65,0.33,73.74,1
125,7.67,-22.66,72.67,1
126,7.68,-46.46,70.37,1
127,7.69,-34.46,48.1,1
128,7.71,25.24,-10.03,1
129,7.72,27.03,-43.91,1
130,7.73,-9.0,-30.12,1
131,7.75,24.97,-90.25,1
132,7.76,60.29,-169.96,1
133,7.77,29.32,-128.29,1
134,7.79,-17.59,-170.99,1
135,7.8,-49.53,-312.2,1
136,7.81,-27.4,-222.98,1
137,7.83,26.41,-57.26,1
138,7.84,5.55,-102.02,1
139,7.85,-42.02,-176.08,1
140,7.87,-16.06,-189.53,1
141,7.88,20.6,-160.73,1
142,7.89,14.95,10.68,1
143,7.91,-13.59,85.29,1
144,7.92,-49.57,-63.76,1
145,7.93,-33.77,-46.94,1
146,7.95,20.01,98.45,1
147,7.96,3.23,21.11,1
148,7.97,-32.7,-73.26,1
149,7.99,9.6,51.31,1
150,8.0,38.89,204.58,1
151,8.01,5.35,213.45,1
152,8.03,-15.55,81.57,1
153,8.04,-25.1,-5.77,1
154,8.05,-31.53,101.38,1
155,8.07,-5.43,164.46,1
156,8.08,-0.27,76.61,1
157,8.09,-31.02,98.01,1
158,8.1,-20.33,171.26,1
159,8.12,10.9,145.7,1
160,8.13,4.88,201.37,1
161,8.15,6.86,325.81,0
162,8.16,33.8,336.87,0
163,8.17,40.23,265.06,0
164,8.19,18.58,151.94,0
165,8.2,-10.87,87.06,0
166,8.21,-11.55,192.76,0
167,8.23,20.21,256.24,0
168,8.24,21.51,146.7,0
169,8.25,-4.34,115.87,0
170,8.27,-0.27,147.84,0
171,8.28,13.26,68.7,0
172,8.29,20.08,12.62,0
173,8.31,36.69,-13.09,0
174,8.32,28.03,-124.39,0
175,8.33,-3.88,-193.52,0
176,8.35,-4.72,-200.7,0
177,8.36,2.54,-254.89,0
178,8.37,-7.8,-257.05,0
179,8.39,-0.15,-170.72,0
180,8.4,12.56,-106.84,0
181,8.41,11.55,-52.38,0
182,8.43,7.86,-6.57,0
183,8.44,-15.32,14.36,0
184,8.45,-27.61,99.18,0
185,8.47,-2.85,165.9,0
186,8.48,-2.91,130.27,0
187,8.49,-12.49,170.19,0
188,8.51,21.16,251.11,0
189,8.52,27.38,210.06,0
190,8.53,-8.25,189.42,0
191,8.55,-5.47,203.15,1
192,8.56,4.49,124.83,1
193,8.57,-17.39,105.91,1
194,8.59,-12.08,155.75,1
195,8.6,6.5,111.62,1
196,8.61,-11.43,87.26,1
197,8.63,-21.49,106.15,1
198,8.64,-6.83,55.16,1
199,8.65,-2.44,62.72,1
200,8.67,-6.13,106.2,1
201,8.68,-19.25,32.71,1
202,8.69,-22.44,8.24,1
203,8.71,9.58,59.71,1
204,8.72,12.37,4.84,1
205,8.73,-26.6,-29.53,1
206,8.75,-26.29,12.69,1
207,8.76,-6.7,-16.8,1
208,8.77,-14.92,-13.42,1
209,8.78,-13.45,32.48,1
210,8.8,-6.66,-35.06,1
211,8.81,-13.69,-64.2,1
212,8.82,-3.55,-10.07,1
213,8.84,6.61,-52.97,1
214,8.85,-5.78,-74.85,1
215,8.87,-4.66,-29.9,1
216,8.88,1.85,-82.12,1
217,8.89,-11.54,-100.62,1
218,8.91,-11.9,-44.56,1
219,8.92,-1.35,-92.31,1
220,8.93,-6.4,-110.42,1
221,8.95,-6.29,-50.52,1
222,8.96,-11.55,-94.96,1
223,8.97,-30.81,-110.23,1
224,8.99,-15.84,-46.76,1
225,9.0,11.71,-98.36,1
226,9.01,3.57,-133.23,1
227,9.03,-0.69,-82.16,1
228,9.04,9.77,-127.77,1
229,9.05,2.89,-145.21,1
230,9.07,-3.59,-81.64,1
231,9.08,-9.15,-132.22,1
232,9.09,-22.97,-156.28,1
233,9.11,-10.94,-81.25,1
234,9.12,12.08,-118.91,1
235,9.13,10.16,-149.27,1
236,9.15,9.28,-86.69,1
237,9.16,11.34,-124.18,1
238,9.17,0.89,-147.3,1
239,9.19,7.25,-86.98,1
240,9.2,18.53,-134.16,1
241,9.21,9.62,-152.57,1
242,9.23,12.4,-70.28,1
243,9.24,15.08,-107.14,1
244,9.25,-5.23,-137.82,1
245,9.27,-3.4,-64.0,1
246,9.28,8.53,-94.02,1
247,9.29,-5.14,-120.68,1
248,9.31,8.25,-55.52,1
249,9.32,44.08,-100.97,1
250,9.33,34.15,-138.37,1
251,9.35,5.83,-71.46,1
252,9.36,-4.37,-103.84,1
253,9.37,-10.26,-118.12,1
254,9.39,0.06,-31.96,1
255,9.4,10.77,-70.65,1
256,9.41,2.58,-106.87,1
257,9.43,8.19,-29.73,1
258,9.44,10.34,-67.07,1
259,9.45,-7.16,-108.17,1
260,9.47,1.32,-33.3,1
261,9.48,8.55,-61.56,1
262,9.49,-13.78,-93.68,1
263,9.51,-1.64,-11.64,1
264,9.52,28.66,-33.97,1
265,9.53,20.1,-73.27,1
266,9.55,12.83,-9.77,1
267,9.56,8.82,-39.56,1
268,9.57,-15.04,-64.86,1
269,9.59,-8.28,15.78,1
270,9.6,14.24,-18.87,1
271,9.61,5.59,-64.54,1
272,9.63,6.61,9.14,1
273,9.64,13.84,-13.75,1
274,9.65,-0.58,-42.93,1
275,9.67,11.12,41.4,1
276,9.68,28.29,10.19,1
277,9.69,2.3,-37.37,1
278,9.71,-9.19,49.6,1
279,9.72,6.0,31.76,1
280,9.73,4.1,-27.05,1
281,9.75,9.12,39.96,1
282,9.76,12.84,33.72,1
283,9.77,-8.35,0.51,1
284,9.79,-6.63,57.45,1
285,9.8,4.27,16.5,1
286,9.81,-14.86,-22.41,1
287,9.83,-8.98,63.71,1
288,9.84,16.59,40.14,1
289,9.85,4.41,-15.37,1
290,9.87,-4.53,53.72,1
291,9.88,0.21,40.83,1
292,9.89,-15.09,3.63,1
293,9.91,-10.16,68.92,1
294,9.92,5.21,35.59,1
295,9.93,-9.49,-6.8,1
296,9.95,-6.36,79.49,1
297,9.96,2.45,65.66,1
298,9.97,-25.28,15.56,1
299,9.99,-20.23,81.18,1
300,10.0,16.26,59.34,1
301,10.01,7.35,13.59,1
302,10.02,-6.05,88.38,1
303,10.04,5.57,75.78,1
304,10.05,0.7,26.27,1
305,10.06,3.47,80.88,1
306,10.08,9.97,51.62,1
307,10.09,-15.53,7.52,1
308,10.1,-16.6,80.17,1
309,10.12,2.83,57.27,1
310,10.13,-20.37,6.69,1
311,10.15,-28.19,81.12,0
312,10.16,-2.42,62.52,0
313,10.17,-8.87,2.49,0
314,10.19,-10.42,74.95,0
315,10.2,10.53,69.01,0
316,10.21,2.01,-4.03,0
317,10.23,-0.62,17.87,0
318,10.24,23.7,-30.21,0
319,10.25,38.11,-101.27,0
320,10.27,46.04,-46.36,0
321,10.28,24.89,-64.37,0
322,10.29,-12.43,-131.04,0
323,10.31,14.61,-76.58,0
324,10.32,41.23,-56.03,0
325,10.33,-2.23,-68.37,0
326,10.35,-7.38,-5.59,0
327,10.36,21.1,-6.44,0
328,10.37,-12.67,-8.99,0
329,10.39,-34.0,82.38,0
330,10.4,-13.65,59.0,0
331,10.41,-30.22,-5.98,0
332,10.43,-42.91,90.17,0
333,10.44,-24.32,151.05,0
334,10.45,-29.89,123.49,0
335,10.47,-18.27,160.42,0
336,10.48,24.84,154.25,0
337,10.49,22.4,118.44,0
338,10.51,1.37,177.2,0
339,10.52,-3.11,176.79,0
340,10.53,-26.7,127.24,0
341,10.55,-25.98,166.22,1
342,10.56,0.5,146.96,1
343,10.57,-17.86,88.92,1
344,10.59,-21.06,135.51,1
345,10.6,20.28,126.04,1
346,10.61,9.26,61.18,1
347,10.63,-22.64,94.4,1
348,10.64,-2.67,75.15,1
349,10.65,1.13,-0.59,1
350,10.67,-23.87,42.76,1
351,10.68,-23.01,70.36,1
352,10.69,-26.85,33.82,1
353,10.71,-31.9,69.16,1
354,10.72,-5.96,63.59,1
355,10.73,8.26,2.62,1
356,10.75,14.56,33.45,1
357,10.76,28.23,45.01,1
358,10.77,4.81,1.78,1
359,10.78,-13.36,23.77,1
360,10.8,19.63,11.76,1
361,10.81,30.86,-37.73,1
362,10.83,8.48,-3.25,1
363,10.84,2.79,-10.16,1
364,10.85,-5.5,-66.75,1
365,10.87,-11.12,-29.5,1
366,10.88,5.13,-24.59,1
367,10.89,2.32,-79.74,1
368,10.91,0.61,-45.38,1
369,10.92,29.68,-35.69,1
370,10.93,24.75,-85.04,1
371,10.95,-6.21,-42.38,1
372,10.96,-0.64,-23.5,1
373,10.97,0.88,-82.31,1
374,10.99,-16.64,-62.05,1
375,11.0,-13.85,-51.62,1
376,11.01,-15.12,-99.62,1
377,11.03,-16.76,-57.05,1
378,11.04,4.87,-26.13,1
379,11.05,5.98,-78.01,1
380,11.07,-3.21,-61.28,1
381,11.08,14.3,-46.75,1
382,11.09,15.31,-90.91,1
383,11.11,1.54,-54.42,1
384,11.12,8.66,-29.63,1
385,11.13,3.27,-85.69,1
386,11.15,-1.77,-64.56,1
387,11.16,23.81,-33.19,1
388,11.17,23.34,-74.45,1
389,11.19,-2.02,-52.38,1
390,11.2,-1.11,-30.84,1
391,11.21,-1.88,-81.6,1
392,11.23,-5.74,-54.86,1
393,11.24,9.4,-13.8,1
394,11.25,5.81,-56.43,1
395,11.27,-2.06,-38.83,1
396,11.28,13.07,-2.84,1
397,11.29,3.58,-47.7,1
398,11.31,-11.4,-37.31,1
399,11.32,12.73,-2.85,1
400,11.33,20.78,-43.66,1
401,11.35,4.67,-35.64,1
402,11.36,6.32,-7.54,1
403,11.37,-4.89,-45.89,1
404,11.39,-20.51,-24.4,1
405,11.4,-5.42,12.38,1
406,11.41,-2.34,-36.52,1
407,11.43,-3.77,-28.95,1
408,11.44,22.98,12.76,1
409,11.45,22.37,-21.27,1
410,11.47,-3.44,-9.03,1
411,11.48,-2.12,20.24,1
412,11.49,-0.92,-34.84,1
413,11.51,-0.58,-25.49,1
414,11.52,18.57,23.31,1
415,11.53,7.79,-24.85,1
416,11.55,-17.15,-30.88,1
417,11.56,1.15,8.29,1
418,11.57,18.2,-30.78,1
419,11.59,10.82,-16.23,1
420,11.6,14.83,36.01,1
421,11.61,11.5,-16.46,1
422,11.63,-1.27,-22.15,1
423,11.64,-3.15,36.75,1
424,11.65,-15.87,1.55,1
425,11.67,-12.05,-9.7,1
426,11.68,24.33,28.23,1
427,11.69,16.99,-15.03,1
428,11.71,-20.56,-12.03,1
429,11.72,-16.86,43.23,1
430,11.73,-15.12,0.33,1
431,11.75,-30.66,-4.61,1
432,11.76,-14.51,48.02,1
433,11.77,0.89,2.99,1
434,11.79,-1.75,-5.13,1
435,11.8,7.32,50.14,1
436,11.81,-2.21,6.73,1
437,11.83,-20.83,-8.1,1
438,11.84,-1.2,38.43,1
439,11.85,8.0,-5.38,1
440,11.87,-14.99,-8.11,1
441,11.88,-13.25,44.91,1
442,11.89,2.36,-16.42,1
443,11.91,7.58,-31.84,1
444,11.92,11.89,49.84,1
445,11.93,-5.0,28.84,1
446,11.94,-19.01,10.52,1
447,11.96,1.85,48.24,1
448,11.97,3.75,-8.28,1
449,11.98,-19.85,-18.28,1
450,12.0,-19.29,55.02,1
451,12.01,-15.9,17.29,1
452,12.02,-18.65,-3.13,1
453,12.04,-2.28,52.04,1
454,12.05,6.32,4.44,1
455,12.06,5.26,-11.15,1
456,12.08,16.07,60.7,1
457,12.09,7.26,19.23,1
458,12.1,-9.28,-13.45,1
459,12.12,2.51,38.78,1
460,12.13,7.72,-2.63,1
461,12.15,5.57,-14.44,2
462,12.16,22.78,59.57,2
463,12.17,16.4,20.04,2
464,12.19,-10.07,11.55,2
465,12.2,-3.64,130.9,2
466,12.21,7.78,163.26,2
467,12.23,1.34,181.17,2
468,12.24,-3.03,244.37,2
469,12.25,-23.58,181.41,2
470,12.27,-41.14,129.12,2
471,12.28,-17.21,164.54,2
472,12.29,0.19,85.18,2
473,12.31,-9.62,10.61,2
474,12.32,-7.61,28.03,2
475,12.33,-5.19,-65.47,2
476,12.35,-0.08,-149.39,2
477,12.36,28.12,-122.93,2
478,12.37,37.04,-183.4,2
479,12.39,23.61,-214.51,2
480,12.4,27.06,-132.96,2
481,12.41,16.79,-161.74,2
482,12.43,-7.44,-184.77,2
483,12.44,1.64,-92.55,2
484,12.45,15.6,-104.99,2
485,12.47,14.67,-125.61,2
486,12.48,26.15,-43.35,2
487,12.49,26.26,-67.7,2
488,12.51,8.16,-102.96,2
489,12.52,5.23,-34.84,2
490,12.53,1.73,-66.21,2
491,12.55,-8.7,-97.33,1
492,12.56,-4.61,-12.74,1
493,12.57,-5.2,-25.02,1
494,12.59,-8.2,-48.33,1
495,12.6,6.34,30.65,1
496,12.61,4.93,2.04,1
497,12.63,-9.92,-41.07,1
498,12.64,0.39,29.09,1
499,12.65,6.58,5.75,1
500,12.67,-3.1,-31.05,1
501,12.68,4.94,36.32,1
502,12.69,8.16,6.3,1
503,12.71,-4.86,-28.38,1
504,12.72,-9.01,51.64,1
505,12.73,-20.38,30.69,1
506,12.75,-27.44,-6.37,1
507,12.76,-1.79,67.55,1
508,12.77,10.26,35.28,1
509,12.79,-5.45,-20.04,1
510,12.8,-3.58,49.34,1
511,12.81,4.25,33.91,1
512,12.83,2.82,-10.31,1
513,12.84,10.31,46.0,1
514,12.85,6.4,15.06,1
515,12.87,-8.57,-20.41,1
516,12.88,-4.68,58.13,1
517,12.89,-6.72,34.93,1
518,12.91,-17.62,-10.98,1
519,12.92,-6.62,55.79,1
520,12.93,-0.51,24.09,1
521,12.95,-6.53,-30.87,1
522,12.96,3.43,40.71,1
523,12.97,5.52,32.76,1
524,12.99,-6.72,-6.92,1
525,13.0,-5.82,53.44,1
526,13.01,-6.09,25.38,1
527,13.03,-6.25,-17.67,1
528,13.04,8.51,56.89,1
529,13.05,3.24,39.24,1
530,13.07,-18.56,-6.85,1
531,13.08,-16.19,62.4,1
532,13.09,-9.2,38.88,1
533,13.11,-7.98,-18.8,1
534,13.12,5.4,46.19,1
535,13.13,4.59,32.71,1
536,13.15,-8.46,-17.57,1
537,13.16,-2.07,41.84,1
538,13.17,-2.99,17.8,1
539,13.19,-11.15,-34.05,1
540,13.2,9.57,43.1,1
541,13.21,20.24,43.56,1
542,13.23,0.48,-8.98,1
543,13.24,-2.67,44.38,1
544,13.25,0.94,33.61,1
545,13.27,-8.16,-16.31,1
546,13.28,-4.78,28.08,1
547,13.29,-4.12,1.62,1
548,13.31,-12.94,-44.96,1
549,13.32,-2.85,27.01,1
550,13.33,3.16,26.12,1
551,13.35,-5.14,-25.81,1
552,13.36,2.19,20.57,1
553,13.37,2.58,6.34,1
554,13.39,-15.08,-40.05,1
555,13.4,-12.48,18.77,1
556,13.41,0.74,17.83,1
557,13.43,3.21,-18.73,1
558,13.44,8.89,34.43,1
559,13.45,10.5,6.57,1
560,13.47,8.51,-54.33,1
561,13.48,20.19,12.31,1
562,13.49,16.13,21.67,1
563,13.51,-10.2,-30.24,1
564,13.52,-11.68,14.62,1
565,13.53,0.25,15.95,1
566,13.55,-4.87,-24.77,1
567,13.56,-2.3,20.32,1
568,13.57,3.27,4.34,1
569,13.59,-5.29,-51.92,1
570,13.6,0.75,-2.17,1
571,13.61,11.9,-0.61,1
572,13.63,3.42,-51.99,1
573,13.64,1.66,-8.07,1
574,13.65,4.38,-1.63,1
575,13.67,-4.64,-40.6,1
576,13.68,-2.16,10.03,1
577,13.69,0.22,16.91,1
578,13.71,-10.07,-26.85,1
579,13.72,0.73,17.47,1
580,13.73,16.44,18.63,1
581,13.75,3.73,-34.65,1
582,13.76,-5.62,0.21,1
583,13.77,-1.27,0.03,1
584,13.79,-3.55,-46.1,1
585,13.8,0.99,5.01,1
586,13.81,8.84,20.36,1
587,13.83,4.7,-34.4,1
588,13.84,3.91,-6.78,1
589,13.85,-1.43,6.28,1
590,13.86,-14.48,-32.53,1
591,13.88,-2.36,2.02,1
592,13.89,13.87,12.91,1
593,13.9,1.86,-28.5,1
594,13.92,1.14,2.47,1
595,13.93,18.83,11.7,1
596,13.94,16.09,-27.5,1
597,13.96,7.82,1.62,1
598,13.97,9.94,3.0,1
599,13.98,6.02,-35.26,1
600,14.0,0.88,13.17,1
601,14.01,-7.81,26.88,1
602,14.02,-19.88,-33.57,1
603,14.04,-7.89,-13.95,1
604,14.05,6.72,7.66,1
605,14.07,-6.98,-24.48,1
606,14.08,-6.56,2.15,1
607,14.09,14.99,8.0,1
608,14.11,8.51,-34.13,1
609,14.12,-8.51,3.51,1
610,14.13,-9.12,18.81,1
611,14.15,-11.32,-38.84,2
612,14.16,-5.05,-9.52,2
613,14.17,9.53,35.2,2
614,14.19,8.96,13.66,2
615,14.2,13.48,61.59,2
616,14.21,26.06,112.75,2
617,14.23,22.15,29.28,2
618,14.24,16.6,-88.66,2
619,14.25,0.16,-174.92,2
620,14.27,-32.37,-243.36,2
621,14.28,-20.31,-164.19,2
622,14.29,9.38,129.31,2
623,14.31,-14.14,427.22,2
624,14.32,-18.79,529.51,2
625,14.33,31.9,464.54,2
626,14.35,40.6,367.2,2
627,14.36,10.99,318.67,2
628,14.37,8.68,292.14,2
629,14.39,-2.14,246.79,2
630,14.4,-35.0,196.93,2
631,14.41,-45.16,159.98,2
632,14.43,-32.9,128.19,2
633,14.44,-16.4,94.63,2
634,14.45,-4.28,63.16,2
635,14.47,-3.47,35.07,2
636,14.48,-5.89,8.4,2
637,14.49,-5.04,-16.64,2
638,14.51,3.54,-38.8,2
639,14.52,23.01,-58.99,2
640,14.53,35.66,-78.0,2
641,14.55,34.6,-94.96,1
642,14.56,20.96,-109.37,1
643,14.57,-23.21,-122.46,1
644,14.59,-49.36,-134.9,1
645,14.6,-6.5,-146.25,1
646,14.61,15.72,-155.76,1
647,14.63,-18.74,-163.38,1
648,14.64,-17.17,-169.96,1
649,14.65,6.19,-176.01,1
650,14.67,-3.34,-180.62,1
651,14.68,2.03,-184.53,1
652,14.69,18.92,-190.87,1
653,14.71,-1.93,-194.56,1
654,14.72,-20.95,-189.01,1
655,14.73,-11.57,-189.21,1
656,14.75,-0.33,-207.64,1
657,14.76,18.84,-248.67,1
658,14.77,17.68,-328.35,1
659,14.79,-26.67,-362.96,1
660,14.8,-32.11,-292.87,1
661,14.81,3.93,-318.72,1
662,14.83,-3.65,-421.2,1
663,14.84,-10.93,-302.67,1
664,14.85,21.38,-147.91,1
665,14.87,19.88,-213.45,1
666,14.88,-6.14,-243.45,1
667,14.89,0.83,-174.97,1
668,14.91,16.37,-214.14,1
669,14.92,21.5,-277.27,1
670,14.93,10.31,-231.96,1
671,14.95,-26.27,-95.74,1
672,14.96,-37.56,46.91,1
673,14.97,-6.13,-6.34,1
674,14.99,0.19,-182.01,1
675,15.0,-28.18,-118.72,1
676,15.01,-35.38,53.78,1
677,15.03,-13.02,-2.99,1
678,15.04,11.81,-81.04,1
679,15.05,16.91,-10.62,1
680,15.07,9.15,12.7,1
681,15.08,21.54,7.58,1
682,15.09,30.39,28.24,1
683,15.11,3.91,-11.85,1
684,15.12,-1.32,11.22,1
685,15.13,25.48,88.78,1
686,15.15,18.58,41.4,1
687,15.16,-0.96,38.87,1
688,15.17,8.38,165.56,1
689,15.19,10.11,210.96,1
690,15.2,2.05,196.48,1
691,15.21,12.48,137.96,1
692,15.23,24.92,-35.52,1
693,15.24,29.18,-67.73,1
694,15.25,19.92,98.4,1
695,15.27,0.18,132.76,1
696,15.28,13.49,87.8,1
697,15.29,34.93,145.38,1
698,15.31,10.0,166.94,1
699,15.32,-0.22,155.02,1
700,15.33,24.43,151.46,1
701,15.35,8.7,98.64,1
702,15.36,-22.07,163.81,1
703,15.37,-18.79,293.09,1
704,15.39,-14.96,212.16,1
705,15.4,1.69,106.98,1
706,15.41,31.51,139.98,1
707,15.43,3.36,119.34,1
708,15.44,-44.18,109.42,1
709,15.45,-34.99,176.24,1
710,15.47,-22.34,122.88,1
711,15.48,-27.36,63.16,1
712,15.49,-13.42,132.91,1
713,15.51,-8.51,118.68,1
714,15.52,-9.48,75.63,1
715,15.53,7.03,133.55,1
716,15.55,4.36,95.79,1
717,15.56,-7.86,59.64,1
718,15.57,-9.56,163.87,1
719,15.59,-30.32,148.95,1
720,15.6,-30.51,95.45,1
721,15.61,11.13,197.11,1
722,15.63,19.36,231.88,1
723,15.64,0.17,192.34,1
724,15.65,2.04,170.36,1
725,15.67,-0.46,29.23,1
726,15.68,-2.26,-71.83,1
727,15.69,14.4,45.33,1
728,15.71,19.59,123.52,1
729,15.72,23.93,75.8,1
730,15.73,34.16,59.96,1
731,15.75,6.67,63.82,1
732,15.76,-28.8,121.73,1
733,15.77,-22.5,191.49,1
734,15.78,-7.24,136.03,1
735,15.8,9.23,131.38,1
736,15.81,29.05,168.11,1
737,15.82,14.77,14.66,1
738,15.84,-2.63,-58.88,1
739,15.85,5.05,82.16,1
740,15.86,-3.09,75.29,1
741,15.88,-12.65,-0.7,1
742,15.89,-6.18,66.43,1
743,15.9,-16.84,43.64,1
744,15.92,-17.64,-34.9,1
745,15.93,5.05,0.09,1
746,15.94,-0.05,-16.22,1
747,15.96,-9.69,-26.84,1
748,15.97,7.39,60.88,1
749,15.98,1.94,38.88,1
750,16.0,-15.64,-1.6,1
751,16.01,-8.89,56.87,1
752,16.03,-8.34,10.22,1
753,16.04,-8.1,-18.32,1
754,16.05,2.14,86.47,1
755,16.07,-8.37,23.56,1
756,16.08,-13.85,-127.68,1
757,16.09,-4.34,-104.72,1
758,16.11,-13.66,-101.27,1
759,16.12,-10.09,-135.98,1
760,16.13,2.93,-24.1,1
761,16.15,-20.65,49.14,1
762,16.16,-18.0,9.42,0
763,16.17,30.57,-0.72,0
764,16.19,28.78,-42.43,0
765,16.2,-2.62,-73.0,0
766,16.21,10.53,-26.06,0
767,16.23,30.42,-49.84,0
768,16.24,29.49,-66.64,0
769,16.25,12.23,-8.4,0
770,16.27,-15.59,-88.69,0
771,16.28,-6.97,-211.51,0
772,16.29,11.56,-213.64,0
773,16.31,-13.44,-295.61,0
774,16.32,-18.9,-419.04,0
775,16.33,3.06,-389.69,0
776,16.35,-9.31,-335.23,0
777,16.36,-9.35,-301.21,0
778,16.37,12.09,-228.64,0
779,16.39,-4.77,-201.43,0
780,16.4,-13.32,-156.95,0
781,16.41,4.23,-54.69,0
782,16.42,-2.3,-49.59,0
783,16.44,2.75,-44.75,0
784,16.45,13.45,57.71,0
785,16.46,-18.64,50.27,0
786,16.48,-27.27,-5.44,0
787,16.49,-1.53,56.36,0
788,16.5,-7.33,55.13,0
789,16.52,-4.81,4.44,0
790,16.53,11.05,55.42,0
791,16.54,-10.6,49.36,0
792,16.56,-9.13,1.51,1
793,16.57,26.13,57.23,1
794,16.58,17.79,56.57,1
795,16.6,-0.8,9.26,1
796,16.61,0.88,66.0,1
797,16.62,-13.97,74.37,1
798,16.64,-6.96,32.6,1
799,16.65,17.87,81.65,1
800,16.67,1.17,75.66,1
801,16.68,2.44,21.38,1
802,16.69,33.35,69.5,1
803,16.71,13.14,75.18,1
804,16.72,-9.92,24.5,1
805,16.73,-1.12,59.18,1
806,16.75,-16.85,58.39,1
807,16.76,-15.62,18.58,1
808,16.77,11.22,62.7,1
809,16.79,-2.91,59.28,1
810,16.8,-6.1,12.88,1
811,16.81,16.57,61.07,1
812,16.83,-6.8,67.77,1
813,16.84,-24.75,12.51,1
814,16.85,-3.36,36.99,1
815,16.87,-3.11,39.26,1
816,16.88,5.19,6.21,1
817,16.89,26.48,52.45,1
818,16.91,1.47,50.22,1
819,16.92,-12.74,-7.45,1
820,16.93,7.26,29.58,1
821,16.95,-3.17,44.28,1
822,16.96,-3.04,0.64,1
823,16.97,19.51,36.67,1
824,16.99,-0.8,48.19,1
825,17.0,-14.67,-1.86,1
826,17.01,2.38,19.4,1
827,17.03,-11.6,19.64,1
828,17.04,-15.69,-24.95,1
829,17.05,8.5,17.04,1
830,17.06,-5.95,33.57,1
831,17.08,-16.12,-17.34,1
832,17.09,10.47,9.43,1
833,17.1,7.18,19.49,1
834,17.12,-5.22,-40.95,1
835,17.13,-3.48,-24.38,1
836,17.14,-25.47,-1.0,1
837,17.16,-20.4,-35.87,1
838,17.17,16.49,-13.28,1
839,17.18,8.59,0.03,1
840,17.2,-0.64,-39.87,1
841,17.21,16.76,-15.09,1
842,17.22,4.15,-0.37,1
843,17.24,0.18,-41.07,1
844,17.25,15.01,-15.25,1
845,17.26,-7.98,-6.18,1
846,17.28,-10.25,-64.32,1
847,17.29,20.44,-39.32,1
848,17.3,3.16,-5.03,1
849,17.32,-10.51,-49.71,1
850,17.33,15.63,-35.4,1
851,17.35,12.82,-8.4,1
852,17.36,12.23,-48.64,1
853,17.37,29.61,-31.44,1
854,17.39,1.96,-8.84,1
855,17.4,-15.71,-54.57,1
856,17.41,8.27,-32.78,1
857,17.43,-1.15,0.35,1
858,17.44,-13.34,-46.81,1
859,17.45,0.96,-37.04,1
860,17.47,-9.86,-12.31,1
861,17.48,-3.28,-60.55,1
862,17.49,25.14,-40.82,1
863,17.51,1.42,-1.54,1
864,17.52,-13.44,-52.47,1
865,17.53,11.55,-43.54,1
866,17.55,-1.41,1.87,1
867,17.56,-6.62,-37.49,1
868,17.57,26.84,-33.93,1
869,17.59,19.36,-5.76,1
870,17.6,3.25,-55.32,1
871,17.61,10.73,-42.98,1
872,17.63,-17.73,4.69,1
873,17.64,-34.28,-40.8,1
874,17.65,-6.33,-43.17,1
875,17.67,-9.98,-3.03,1
876,17.68,-16.62,-42.14,1
877,17.69,6.04,-34.26,1
878,17.7,-7.64,13.43,1
879,17.72,-16.13,-33.29,1
880,17.73,19.54,-42.99,1
881,17.75,18.96,-0.95,1
882,17.76,3.11,-37.65,1
883,17.77,12.24,-32.8,1
884,17.78,-11.24,15.39,1
885,17.8,-24.17,-26.82,1
886,17.81,7.62,-26.53,1
887,17.82,0.18,23.44,1
888,17.84,-14.07,-21.69,1
889,17.85,11.2,-30.44,1
890,17.86,2.09,14.87,1
891,17.88,-12.75,-31.49,1
892,17.89,8.17,-41.66,1
893,17.9,-1.88,10.72,1
894,17.92,-10.62,-20.6,1
895,17.93,14.68,-19.73,1
896,17.94,1.62,30.89,1
897,17.96,-9.77,-14.81,1
898,17.97,19.09,-24.81,1
899,17.99,8.43,26.73,1
900,18.0,-7.82,-16.09,1
901,18.01,15.19,-20.23,1
902,18.03,1.22,43.03,1
903,18.04,-22.54,4.34,1
904,18.05,-6.51,-6.7,1
905,18.07,-10.14,50.63,1
906,18.08,-11.8,6.47,1
907,18.09,14.99,-11.39,1
908,18.11,6.24,43.61,1
909,18.12,-1.75,-5.02,1
910,18.13,17.67,-29.57,1
911,18.15,-7.42,32.58,1
912,18.16,-20.23,6.5,0
913,18.17,18.15,0.78,0
914,18.19,7.63,58.25,0
915,18.2,-15.09,8.1,0
916,18.21,9.39,-13.74,0
917,18.23,5.13,38.04,0
918,18.24,-1.82,-37.55,0
919,18.25,26.08,-103.4,0
920,18.27,22.35,-69.88,0
921,18.28,24.54,-120.87,0
922,18.29,45.72,-150.78,0
923,18.31,7.98,-94.97,0
924,18.32,-14.43,-129.46,0
925,18.33,16.71,-134.14,0
926,18.34,-3.72,-47.84,0
927,18.36,-30.7,-60.47,0
928,18.37,-8.18,-50.62,0
929,18.38,-20.59,52.27,0
930,18.4,-34.46,44.21,0
931,18.41,2.82,36.43,0
932,18.42,7.57,126.1,0
933,18.44,-11.55,127.79,0
934,18.45,-10.38,130.86,0
935,18.46,-35.01,202.54,0
936,18.48,-37.57,154.11,0
937,18.49,13.29,111.9,0
938,18.5,18.66,179.02,0
939,18.52,2.28,149.27,0
940,18.53,26.08,112.53,0
941,18.54,25.35,165.37,0
942,18.56,12.45,124.71,1
943,18.57,24.92,102.64,1
944,18.58,5.71,174.04,1
945,18.6,-13.76,111.37,1
946,18.61,3.89,41.95,1
947,18.63,-11.88,106.14,1
948,18.64,-28.96,82.29,1
949,18.65,-0.69,33.59,1
950,18.67,-6.71,77.85,1
951,18.68,-23.51,40.46,1
952,18.69,10.18,12.73,1
953,18.71,17.57,80.99,1
954,18.72,-6.48,39.1,1
955,18.73,-2.57,-7.12,1
956,18.75,-0.89,58.64,1
957,18.76,3.98,24.71,1
958,18.77,15.51,-24.96,1
959,18.79,-16.81,30.47,1
960,18.8,-28.29,-6.55,1
961,18.81,17.56,-48.61,1
962,18.83,18.98,22.08,1
963,18.84,-4.96,-5.05,1
964,18.85,9.4,-51.77,1
965,18.87,2.81,9.47,1
966,18.88,-12.53,-19.36,1
967,18.89,2.57,-58.63,1
968,18.91,-8.74,12.54,1
969,18.92,-19.06,-14.99,1
970,18.93,10.84,-65.19,1
971,18.95,3.78,-3.74,1
972,18.96,-21.01,-31.41,1
973,18.97,-2.25,-77.78,1
974,18.98,-1.45,-12.17,1
975,19.0,-15.31,-39.2,1
976,19.01,-2.45,-90.02,1
977,19.02,-10.45,-18.91,1
978,19.04,-14.74,-25.06,1
979,19.05,9.94,-64.05,1
980,19.06,-5.69,-5.98,1
981,19.08,-23.18,-29.78,1
982,19.09,7.6,-69.21,1
983,19.1,11.61,-5.08,1
984,19.12,-2.52,-35.0,1
985,19.13,9.13,-82.5,1
986,19.14,-3.72,-9.42,1
987,19.16,-15.6,-24.72,1
988,19.17,6.68,-74.37,1
989,19.18,-3.07,-11.72,1
990,19.2,-14.64,-25.97,1
991,19.21,17.01,-69.19,1
992,19.22,11.07,-6.94,1
993,19.24,-17.59,-24.96,1
994,19.25,0.73,-71.97,1
995,19.26,13.2,-13.65,1
996,19.28,12.71,-35.13,1
997,19.29,33.08,-79.62,1
998,19.31,25.11,-2.83,1
999,19.32,5.04,-2.49,1
1000,19.33,12.82,-52.58,1
1001,19.35,-4.7,-2.64,1
1002,19.36,-24.95,-15.05,1
1003,19.37,-3.56,-57.35,1
1004,19.39,-5.02,4.11,1
1005,19.4,-18.42,1.56,1
1006,19.41,1.28,-37.66,1
1007,19.43,-1.22,10.56,1
1008,19.44,-9.32,-7.61,1
1009,19.45,12.64,-42.66,1
1010,19.47,-0.15,21.22,1
1011,19.48,-14.86,0.52,1
1012,19.49,21.16,-57.3,1
1013,19.51,19.94,1.98,1
1014,19.52,-13.93,7.13,1
1015,19.53,-3.58,-32.69,1
1016,19.55,2.83,19.97,1
1017,19.56,-9.71,15.83,1
1018,19.57,-0.91,-28.91,1
1019,19.59,1.99,13.61,1
1020,19.6,2.15,2.1,1
1021,19.61,12.11,-31.86,1
1022,19.62,-4.6,30.43,1
1023,19.64,-11.79,17.79,1
1024,19.65,14.3,-44.33,1
1025,19.67,5.49,2.59,1
1026,19.68,-10.58,13.36,1
1027,19.69,16.7,-21.05,1
1028,19.7,15.67,22.46,1
1029,19.72,-8.78,16.17,1
1030,19.73,4.09,-19.34,1
1031,19.75,4.43,37.34,1
1032,19.76,-11.58,32.27,1
1033,19.77,-0.22,-25.7,1
1034,19.78,-1.95,14.33,1
1035,19.8,-8.27,21.43,1
1036,19.81,12.54,-20.55,1
1037,19.82,4.51,19.77,1
1038,19.84,-22.72,23.73,1
1039,19.85,-17.7,-20.3,1
1040,19.86,-14.55,15.43,1
1041,19.88,-8.85,17.81,1
1042,19.89,18.25,-21.24,1
1043,19.9,8.3,21.32,1
1044,19.92,-20.38,27.07,1
1045,19.93,-9.97,-12.39,1
1046,19.95,-2.6,27.67,1
1047,19.96,-4.37,26.85,1
1048,19.97,15.43,-21.16,1
1049,19.99,14.09,22.47,1
1050,20.0,-5.01,35.45,1
1051,20.01,0.98,-12.27,1
1052,20.03,4.73,21.33,1
1053,20.04,4.23,37.84,1
1054,20.05,14.76,0.86,1
1055,20.07,-2.55,31.8,1
1056,20.08,-21.83,33.18,1
1057,20.09,3.09,-17.01,1
1058,20.11,18.86,12.74,1
1059,20.12,11.42,25.5,1
1060,20.13,17.57,-10.37,1
1061,20.15,13.0,27.31,1
1062,20.16,3.74,41.25,2
1063,20.17,13.75,18.41,2
1064,20.19,4.65,110.69,2
1065,20.2,-11.31,194.13,2
1066,20.21,-4.31,174.66,2
1067,20.23,-21.59,190.38,2
1068,20.24,-45.02,187.36,2
1069,20.25,-22.4,113.77,2
1070,20.26,-11.15,98.04,2
1071,20.28,-26.26,78.18,2
1072,20.29,-16.4,-4.44,2
1073,20.3,-14.62,-29.83,2
1074,20.32,-22.3,-51.1,2
1075,20.33,15.82,-120.92,2
1076,20.34,44.24,-125.51,2
1077,20.36,16.15,-117.87,2
1078,20.37,5.33,-145.66,2
1079,20.38,22.4,-103.56,2
1080,20.4,11.63,-79.89,2
1081,20.41,-2.09,-131.46,2
1082,20.42,9.81,-102.53,2
1083,20.44,27.38,-62.22,2
1084,20.45,36.5,-107.6,2
1085,20.46,18.33,-89.92,2
1086,20.48,-0.59,-43.14,2
1087,20.49,10.91,-66.71,2
1088,20.5,5.67,-48.97,2
1089,20.52,-0.15,-27.6,2
1090,20.53,34.22,-70.27,2
1091,20.54,35.41,-45.67,2
1092,20.56,3.66,-11.62,1
1093,20.57,10.47,-63.34,1
1094,20.59,11.24,-48.49,1
1095,20.6,-11.22,2.93,1
1096,20.61,-8.57,-31.43,1
1097,20.63,-9.86,-24.95,1
1098,20.64,-17.59,11.55,1
1099,20.65,1.79,-29.14,1
1100,20.67,3.95,-23.38,1
1101,20.68,-13.22,18.43,1
1102,20.69,-5.3,-12.95,1
1103,20.71,-6.8,1.19,1
1104,20.72,-21.25,41.89,1
1105,20.73,-7.5,-6.54,1
1106,20.75,-0.06,-9.28,1
1107,20.76,-7.92,36.1,1
1108,20.77,4.23,4.03,1
1109,20.79,1.63,5.44,1
1110,20.8,-19.9,39.1,1
1111,20.81,-12.48,-2.46,1
1112,20.83,-1.02,9.29,1
1113,20.84,-2.19,58.14,1
1114,20.85,10.56,7.57,1
1115,20.87,7.46,-2.09,1
1116,20.88,-15.4,43.65,1
1117,20.89,-13.23,2.34,1
1118,20.9,-7.84,-0.98,1
1119,20.92,-13.3,52.49,1
1120,20.93,-4.34,18.35,1
1121,20.94,-8.78,14.38,1
1122,20.96,-20.44,62.35,1
1123,20.97,2.48,19.28,1
1124,20.98,13.72,5.74,1
1125,21.0,-4.59,53.42,1
1126,21.01,-0.36,19.86,1
1127,21.02,2.17,13.51,1
1128,21.04,-14.88,53.83,1
1129,21.05,-2.06,4.32,1
1130,21.06,16.27,-1.56,1
1131,21.08,1.45,56.82,1
1132,21.09,-6.39,13.23,1
1133,21.1,-1.92,-0.41,1
1134,21.12,-2.64,53.43,1
1135,21.13,8.57,2.43,1
1136,21.14,12.8,-16.13,1
1137,21.16,2.75,53.75,1
1138,21.17,8.19,19.83,1
1139,21.18,3.99,-10.34,1
1140,21.2,-12.38,36.22,1
1141,21.21,-0.29,2.57,1
1142,21.23,3.81,-2.21,1
1143,21.24,-14.44,61.72,1
1144,21.25,-0.11,13.99,1
1145,21.27,18.13,-14.74,1
1146,21.28,0.27,47.47,1
1147,21.29,-9.25,14.69,1
1148,21.31,-4.56,-5.92,1
1149,21.32,-1.98,46.86,1
1150,21.33,12.97,-3.57,1
1151,21.35,11.93,-27.18,1
1152,21.36,-4.34,41.88,1
1153,21.37,8.83,3.43,1
1154,21.39,6.39,-22.4,1
1155,21.4,-33.61,47.88,1
1156,21.41,-33.7,14.7,1
1157,21.43,-3.57,-20.27,1
1158,21.44,-0.2,27.71,1
1159,21.45,3.44,-18.95,1
1160,21.47,10.53,-42.9,1
1161,21.48,-0.9,31.93,1
1162,21.49,-7.42,2.79,1
1163,21.51,-13.29,-27.15,1
1164,21.52,-17.26,29.18,1
1165,21.53,9.47,-12.04,1
1166,21.54,23.97,-34.92,1
1167,21.56,0.29,41.31,1
1168,21.57,-7.69,3.06,1
1169,21.58,-2.11,-40.54,1
1170,21.6,-5.81,25.94,1
1171,21.61,4.26,3.35,1
1172,21.62,6.83,-26.37,1
1173,21.64,-10.75,31.52,1
1174,21.65,-7.65,-14.01,1
1175,21.67,-3.22,-55.0,1
1176,21.68,-14.96,16.37,1
1177,21.69,-6.0,-12.04,1
1178,21.7,-6.05,-54.25,1
1179,21.72,-25.81,9.49,1
1180,21.73,0.21,-13.55,1
1181,21.75,30.99,-46.51,1
1182,21.76,8.36,13.14,1
1183,21.77,2.14,-16.93,1
1184,21.78,21.16,-39.23,1
1185,21.8,10.19,40.53,1
1186,21.81,-1.05,12.36,1
1187,21.82,0.36,-30.52,1
1188,21.84,-3.93,29.68,1
1189,21.85,3.89,-5.05,1
1190,21.87,-0.78,-47.85,1
1191,21.88,-20.81,17.61,1
1192,21.89,-0.07,-6.25,1
1193,21.91,19.41,-38.77,1
1194,21.92,0.86,29.43,1
1195,21.93,16.65,-7.82,1
1196,21.95,41.15,-59.02,1
1197,21.96,8.86,15.65,1
1198,21.97,-15.33,5.66,1
1199,21.99,-5.01,-41.01,1
1200,22.0,-2.18,7.58,1
1201,22.01,6.85,-15.71,1
1202,22.03,8.31,-46.35,1
1203,22.04,-13.82,17.15,1
1204,22.05,-7.81,-8.2,1
1205,22.07,10.02,-36.94,1
1206,22.08,-0.26,38.88,1
1207,22.09,6.23,7.22,1
1208,22.11,12.49,-48.89,1
1209,22.12,-19.44,19.18,1
1210,22.13,-18.36,17.01,1
1211,22.15,13.13,-6.75,1
1212,22.16,2.17,73.91,2
1213,22.17,-9.66,80.73,2
1214,22.18,2.71,72.75,2
1215,22.2,2.6,162.83,2
1216,22.21,15.96,116.27,2
1217,22.22,23.82,-24.69,2
1218,22.24,-16.91,11.91,2
1219,22.25,-37.87,122.82,2
1220,22.26,-19.27,201.25,2
1221,22.28,-7.06,300.33,2
1222,22.29,17.23,279.32,2
1223,22.3,22.59,128.89,2
1224,22.32,-0.32,119.64,2
1225,22.33,28.2,247.99,2
1226,22.34,43.66,258.82,2
1227,22.36,-20.73,152.52,2
1228,22.37,-32.96,98.34,2
1229,22.38,24.18,100.34,2
1230,22.4,24.93,77.91,2
1231,22.41,16.8,34.85,2
1232,22.42,67.74,8.13,2
1233,22.44,81.75,-7.24,2
1234,22.45,20.34,-28.44,2
1235,22.46,-65.04,-51.89,2
1236,22.48,-129.65,-69.54,2
1237,22.49,-99.87,-83.58,2
1238,22.5,-9.51,-97.68,2
1239,22.52,11.41,-111.29,2
1240,22.53,-7.87,-123.59,2
1241,22.55,2.71,-145.43,1
1242,22.56,4.42,-187.8,1
1243,22.57,11.08,-212.05,1
1244,22.59,39.64,-175.13,1
1245,22.6,28.13,-157.82,1
1246,22.61,-12.86,-264.5,1
1247,22.63,-28.7,-384.23,1
1248,22.64,-19.18,-372.16,1
1249,22.65,17.7,-340.43,1
1250,22.67,35.51,-336.33,1
1251,22.68,-18.29,-221.86,1
1252,22.69,-48.09,-104.77,1
1253,22.71,-2.33,-126.95,1
1254,22.72,16.31,-160.05,1
1255,22.73,-4.65,-163.6,1
1256,22.75,-9.64,-167.23,1
1257,22.76,-13.34,-177.07,1
1258,22.77,-12.22,-304.75,1
1259,22.79,-13.86,-414.32,1
1260,22.8,-37.68,-306.53,1
1261,22.81,-16.82,-167.16,1
1262,22.82,32.68,-79.56,1
1263,22.84,10.25,20.63,1
1264,22.85,-28.44,-25.02,1
1265,22.86,-11.39,-182.0,1
1266,22.88,6.02,-172.83,1
1267,22.89,4.37,-37.44,1
1268,22.9,-6.91,1.62,1
1269,22.92,-19.94,-45.88,1
1270,22.93,10.39,-59.49,1
1271,22.94,25.15,6.7,1
1272,22.96,-29.37,53.91,1
1273,22.97,-27.97,-32.26,1
1274,22.98,29.33,-70.61,1
1275,23.0,11.33,49.96,1
1276,23.01,-12.64,50.56,1
1277,23.02,18.14,-66.16,1
1278,23.04,25.42,-14.72,1
1279,23.05,37.93,85.45,1
1280,23.06,57.37,66.33,1
1281,23.08,5.33,54.41,1
1282,23.09,-29.75,61.56,1
1283,23.1,8.86,62.96,1
1284,23.12,14.9,108.42,1
1285,23.13,3.57,106.76,1
1286,23.14,22.7,102.82,1
1287,23.16,13.02,196.84,1
1288,23.17,2.12,180.52,1
1289,23.19,18.48,66.0,1
1290,23.2,3.81,103.0,1
1291,23.21,2.34,163.01,1
1292,23.23,33.09,119.07,1
1293,23.24,8.59,103.72,1
1294,23.25,-28.36,87.93,1
1295,23.27,-26.66,42.73,1
1296,23.28,-40.44,77.53,1
1297,23.29,-26.4,121.46,1
1298,23.31,27.59,93.55,1
1299,23.32,21.91,79.43,1
1300,23.33,-6.92,88.23,1
1301,23.35,-0.54,122.61,1
1302,23.36,-6.63,185.56,1
1303,23.37,7.35,155.72,1
1304,23.39,45.82,95.89,1
1305,23.4,24.7,136.52,1
1306,23.41,3.42,120.41,1
1307,23.43,34.98,62.37,1
1308,23.44,27.45,169.6,1
1309,23.45,-6.08,243.27,1
1310,23.46,-7.55,127.48,1
1311,23.48,-23.36,73.21,1
1312,23.49,-28.8,101.62,1
1313,23.5,9.38,85.56,1
1314,23.52,14.27,113.84,1
1315,23.53,-2.97,126.71,1
1316,23.54,8.66,49.39,1
1317,23.56,1.2,62.52,1
1318,23.57,-11.09,136.38,1
1319,23.58,3.89,117.97,1
1320,23.6,-1.23,116.49,1
1321,23.61,-6.96,122.81,1
1322,23.62,1.55,50.68,1
1323,23.64,-16.73,52.43,1
1324,23.65,-11.23,93.81,1
1325,23.67,21.4,54.26,1
1326,23.68,1.05,90.27,1
1327,23.69,-21.8,137.51,1
1328,23.7,-3.84,15.82,1
1329,23.72,-0.44,-50.33,1
1330,23.73,10.37,25.42,1
1331,23.75,22.54,21.53,1
1332,23.76,-18.73,-34.39,1
1333,23.77,-29.45,-57.49,1
1334,23.78,20.33,-48.07,1
1335,23.8,18.18,83.87,1
1336,23.81,-12.41,181.43,1
1337,23.83,-9.69,68.46,1
1338,23.84,-22.98,-0.29,1
1339,23.85,-20.95,54.75,1
1340,23.87,9.87,57.02,1
1341,23.88,-11.02,89.3,1
1342,23.89,-25.69,138.69,1
1343,23.91,3.2,67.28,1
1344,23.92,-19.21,-26.89,1
1345,23.93,-36.18,-91.66,1
1346,23.95,17.37,-95.88,1
1347,23.96,27.62,34.48,1
1348,23.97,-5.14,79.0,1
1349,23.99,3.64,-42.76,1
1350,24.0,7.92,-29.66,1
1351,24.01,1.63,35.16,1
1352,24.03,14.08,-108.1,1
1353,24.04,0.82,-158.68,1
1354,24.05,-12.51,48.03,1
1355,24.07,-9.34,111.85,1
1356,24.08,-42.79,-50.57,1
1357,24.09,-47.67,-125.09,1
1358,24.1,5.81,-42.69,1
1359,24.12,7.08,52.69,1
1360,24.13,-27.23,3.75,1
1361,24.14,-26.98,-149.58,1
1362,24.16,-23.56,-129.51,0
1363,24.17,-6.02,-8.95,0
1364,24.18,17.71,-73.01,0
1365,24.2,-2.56,-146.98,0
1366,24.21,-2.77,-109.73,0
1367,24.22,24.21,-147.16,0
1368,24.24,-7.82,-161.06,0
1369,24.25,-29.93,-103.37,0
1370,24.26,0.91,-165.8,0
1371,24.28,-7.78,-242.88,0
1372,24.29,-11.79,-252.19,0
1373,24.3,28.59,-318.44,0
1374,24.32,16.03,-315.63,0
1375,24.33,-7.58,-213.57,0
1376,24.34,22.64,-199.15,0
1377,24.36,18.33,-158.94,0
1378,24.37,-8.13,-50.88,0
1379,24.38,4.05,-57.92,0
1380,24.4,0.63,-43.48,0
1381,24.41,-1.06,55.62,0
1382,24.42,26.61,23.52,0
1383,24.44,19.42,-26.45,0
1384,24.45,12.64,22.13,0
1385,24.465,37.08,2.81,0
1386,24.48,18.04,-2.46,0
1387,24.49,-6.07,67.44,0
1388,24.51,14.57,38.01,0
1389,24.52,13.02,15.92,0
1390,24.53,9.22,70.23,0
1391,24.55,28.04,22.88,1
1392,24.56,2.12,-6.28,1
1393,24.57,-16.7,57.75,1
1394,24.59,16.14,15.58,1
1395,24.6,8.89,-22.95,1
1396,24.61,-12.02,35.72,1
1397,24.63,10.6,5.07,1
1398,24.64,5.38,-11.71,1
1399,24.65,-9.38,64.03,1
1400,24.67,12.71,30.84,1
1401,24.68,6.98,-1.4,1
1402,24.69,-8.32,69.23,1
1403,24.71,6.81,42.6,1
1404,24.72,-4.03,14.87,1
1405,24.73,-13.16,85.57,1
1406,24.75,7.35,52.48,1
1407,24.76,-9.9,8.74,1
1408,24.77,-23.98,67.9,1
1409,24.78,4.45,44.1,1
1410,24.8,-0.73,25.63,1
1411,24.81,-10.93,103.01,1
1412,24.82,11.52,70.14,1
1413,24.84,-4.28,24.26,1
1414,24.85,-20.61,85.97,1
1415,24.86,5.24,60.94,1
1416,24.88,-4.45,30.3,1
1417,24.89,-18.84,96.47,1
1418,24.9,10.56,59.75,1
1419,24.92,6.88,9.15,1
1420,24.93,-13.64,69.41,1
1421,24.94,-4.37,49.77,1
1422,24.96,-17.33,17.34,1
1423,24.97,-20.29,78.46,1
1424,24.98,9.66,48.57,1
1425,25.0,-6.86,8.69,1
1426,25.01,-23.86,68.51,1
1427,25.02,11.13,35.29,1
1428,25.04,12.26,-10.61,1
1429,25.05,-3.98,50.42,1
1430,25.06,14.53,24.25,1
1431,25.08,3.76,-15.7,1
1432,25.09,-16.63,48.93,1
1433,25.1,3.4,18.47,1
1434,25.12,7.73,-33.69,1
1435,25.13,6.61,27.29,1
1436,25.15,21.33,9.63,1
1437,25.16,-7.38,-32.34,1
1438,25.17,-30.7,24.13,1
1439,25.19,0.13,5.32,1
1440,25.2,0.26,-26.56,1
1441,25.21,-15.05,30.03,1
1442,25.23,5.13,-11.33,1
1443,25.24,-3.06,-61.75,1
1444,25.25,-15.56,11.0,1
1445,25.27,13.32,3.34,1
1446,25.28,6.91,-34.36,1
1447,25.29,-19.24,20.07,1
1448,25.31,-7.07,-12.31,1
1449,25.32,-12.19,-51.17,1
1450,25.33,-23.94,21.09,1
1451,25.35,-3.29,-9.59,1
1452,25.36,-2.77,-72.08,1
1453,25.37,-0.83,-10.34,1
1454,25.38,28.81,-19.12,1
1455,25.4,15.43,-62.24,1
1456,25.41,-9.63,-4.39,1
1457,25.42,7.22,-21.46,1
1458,25.44,2.72,-63.05,1
1459,25.45,-11.2,5.96,1
1460,25.46,5.48,-2.34,1
1461,25.48,-2.21,-57.44,1
1462,25.49,-11.59,-14.31,1
1463,25.5,11.87,-27.37,1
1464,25.52,1.86,-66.18,1
1465,25.53,-14.4,-14.79,1
1466,25.54,9.99,-31.95,1
1467,25.56,3.21,-68.31,1
1468,25.57,-18.94,-4.97,1
1469,25.58,1.91,-17.74,1
1470,25.6,6.18,-64.23,1
1471,25.61,-8.01,-10.13,1
1472,25.62,0.13,-24.68,1
1473,25.64,-8.35,-73.07,1
1474,25.65,-8.19,-17.28,1
1475,25.67,25.67,-26.2,1
1476,25.68,19.85,-73.14,1
1477,25.69,-1.57,-10.74,1
1478,25.7,12.11,-4.75,1
1479,25.72,0.4,-51.85,1
1480,25.73,-19.79,-6.88,1
1481,25.75,0.43,-9.15,1
1482,25.76,3.71,-54.66,1
1483,25.77,-3.24,-13.14,1
1484,25.79,14.84,-18.31,1
1485,25.8,10.71,-56.87,1
1486,25.81,5.63,-4.01,1
1487,25.83,23.89,-4.7,1
1488,25.84,5.98,-49.87,1
1489,25.85,-11.42,-5.26,1
1490,25.87,11.66,-7.01,1
1491,25.88,1.9,-51.97,1
1492,25.89,-18.13,-7.17,1
1493,25.91,7.64,-2.0,1
1494,25.92,17.73,-43.67,1
1495,25.93,11.42,-5.55,1
1496,25.95,19.41,-0.12,1
1497,25.96,-8.51,-29.84,1
1498,25.97,-32.93,13.28,1
1499,25.99,0.62,1.09,1
1500,26.0,14.85,-55.68,1
1501,26.01,5.3,-14.56,1
1502,26.02,23.79,2.13,1
1503,26.04,20.33,-26.07,1
1504,26.05,1.22,25.84,1
1505,26.06,11.98,35.94,1
1506,26.08,0.69,-16.81,1
1507,26.09,-19.68,12.13,1
1508,26.1,0.66,26.5,1
1509,26.12,0.26,-7.99,1
1510,26.13,-18.51,21.58,1
1511,26.14,3.55,5.84,1
1512,26.16,12.3,-72.64,0
1513,26.17,-5.42,-67.46,0
1514,26.18,6.97,-78.25,0
1515,26.2,20.09,-142.78,0
1516,26.21,21.46,-121.34,0
1517,26.22,29.04,-100.71,0
1518,26.24,8.08,-130.93,0
1519,26.25,-7.94,-95.46,0
1520,26.26,14.05,-75.14,0
1521,26.28,12.34,-101.87,0
1522,26.29,2.84,-47.52,0
1523,26.3,14.82,3.96,0
1524,26.32,-12.03,1.75,0
1525,26.33,-44.62,59.02,0
1526,26.34,-22.65,87.7,0
1527,26.36,-11.02,52.23,0
1528,26.37,-22.48,97.87,0
1529,26.38,-6.71,140.71,0
1530,26.4,-4.04,111.35,0
1531,26.41,-26.59,138.03,0
1532,26.43,-27.53,155.2,0
1533,26.44,-24.53,112.75,0
1534,26.45,-22.32,145.77,0
1535,26.47,-6.42,175.06,0
1536,26.48,-12.87,122.13,0
1537,26.49,-17.01,125.4,0
1538,26.51,11.76,138.27,0
1539,26.52,9.44,90.49,0
1540,26.53,-9.82,105.59,0
1541,26.55,10.61,121.38,1
1542,26.56,17.81,62.49,1
1543,26.57,2.63,68.94,1
1544,26.59,8.28,93.68,1
1545,26.6,3.22,47.49,1
1546,26.61,-1.6,53.97,1
1547,26.63,19.42,72.84,1
1548,26.64,6.79,26.2,1
1549,26.65,-18.94,40.21,1
1550,26.67,1.6,67.09,1
1551,26.68,7.88,17.56,1
1552,26.69,-14.08,24.78,1
1553,26.7,-9.71,48.65,1
1554,26.72,-6.22,-9.29,1
1555,26.73,-3.94,-7.36,1
1556,26.75,25.24,29.24,1
1557,26.76,26.55,-13.98,1
1558,26.77,2.64,-11.08,1
1559,26.78,7.78,23.87,1
1560,26.8,-0.26,-16.22,1
1561,26.81,-28.8,-13.75,1
1562,26.82,-20.69,11.45,1
1563,26.84,-4.99,-42.56,1
1564,26.85,-0.72,-40.12,1
1565,26.86,22.53,4.61,1
1566,26.88,25.39,-38.86,1
1567,26.89,1.48,-52.28,1
1568,26.9,7.12,-26.3,1
1569,26.92,12.6,-64.35,1
1570,26.93,-4.98,-48.57,1
1571,26.94,-0.43,-0.92,1
1572,26.96,9.12,-51.52,1
1573,26.97,7.32,-61.85,1
1574,26.98,14.1,-20.55,1
1575,27.0,1.15,-60.67,1
1576,27.01,-14.1,-56.6,1
1577,27.02,4.65,-2.33,1
1578,27.04,3.66,-46.31,1
1579,27.05,-10.5,-66.29,1
1580,27.065,8.64,-28.24,1
1581,27.08,2.14,-63.3,1
1582,27.09,-28.12,-62.74,1
1583,27.11,-12.26,-11.77,1
1584,27.12,4.71,-45.2,1
1585,27.13,-1.39,-42.32,1
1586,27.15,14.42,14.0,1
1587,27.16,15.04,-26.72,1
1588,27.17,-5.8,-41.71,1
1589,27.19,7.17,3.14,1
1590,27.2,13.95,-39.35,1
1591,27.21,-4.32,-47.65,1
1592,27.23,2.7,10.58,1
1593,27.24,3.34,-25.56,1
1594,27.25,-14.26,-41.94,1
1595,27.27,-1.92,3.96,1
1596,27.28,3.7,-38.11,1
1597,27.29,-10.74,-46.53,1
1598,27.3,6.67,16.91,1
1599,27.32,17.02,-20.45,1
1600,27.33,-2.97,-40.14,1
1601,27.34,4.91,17.08,1
1602,27.36,17.47,-19.81,1
1603,27.37,2.94,-45.16,1
1604,27.38,5.49,0.23,1
1605,27.4,10.03,-40.6,1
1606,27.41,-4.44,-47.45,1
1607,27.42,-0.71,25.43,1
1608,27.44,-0.65,-10.77,1
1609,27.45,-18.84,-32.84,1
1610,27.46,-14.85,32.95,1
1611,27.48,-11.26,-6.38,1
1612,27.49,-19.33,-42.41,1
1613,27.5,-4.4,15.76,1
1614,27.52,-2.39,-10.31,1
1615,27.53,-21.87,-28.16,1
1616,27.54,-3.13,34.26,1
1617,27.56,25.83,-1.47,1
1618,27.57,18.67,-29.83,1
1619,27.58,5.38,30.02,1
1620,27.6,-10.14,-2.99,1
1621,27.61,-23.31,-29.46,1
1622,27.62,-7.27,31.29,1
1623,27.64,-1.48,-0.9,1
1624,27.65,-13.62,-26.42,1
1625,27.67,7.17,35.69,1
1626,27.68,20.06,1.26,1
1627,27.69,-6.88,-27.87,1
1628,27.7,-10.49,38.33,1
1629,27.72,-1.72,14.1,1
1630,27.73,-21.78,-6.06,1
1631,27.75,-26.5,56.57,1
1632,27.76,-12.96,10.19,1
1633,27.77,-9.88,-28.88,1
1634,27.79,2.5,41.42,1
1635,27.8,5.74,14.46,1
1636,27.81,-6.56,-19.76,1
1637,27.83,9.97,42.87,1
1638,27.84,19.12,10.79,1
1639,27.85,-6.41,-20.8,1
1640,27.87,-3.09,51.55,1
1641,27.88,11.64,25.93,1
1642,27.89,-6.14,-12.55,1
1643,27.91,-7.23,45.59,1
1644,27.92,9.25,10.44,1
1645,27.93,7.46,-27.44,1
1646,27.94,12.37,39.02,1
1647,27.96,12.17,13.63,1
1648,27.97,-11.39,-16.63,1
1649,27.98,-13.64,55.27,1
1650,28.0,-5.02,27.86,1
1651,28.01,-13.47,-12.85,1
1652,28.02,-0.76,54.24,1
1653,28.04,15.49,27.22,1
1654,28.05,0.6,-21.88,1
1655,28.06,-4.49,37.28,1
1656,28.08,-3.23,17.51,1
1657,28.09,-14.7,-18.68,1
1658,28.1,1.88,44.96,1
1659,28.12,23.15,23.72,1
1660,28.13,11.83,-12.67,1
1661,28.14,11.34,52.97,1
1662,28.16,11.81,40.5,2
1663,28.17,-12.72,31.56,2
1664,28.18,-14.08,140.43,2
1665,28.2,-1.18,159.07,2
1666,28.21,-1.04,153.34,2
1667,28.22,16.99,242.87,2
1668,28.24,19.76,207.95,2
1669,28.25,-6.63,105.49,2
1670,28.26,7.0,104.74,2
1671,28.28,23.0,46.36,2
1672,28.29,-3.9,-28.61,2
1673,28.3,-3.87,-8.17,2
1674,28.32,-1.09,-70.22,2
1675,28.33,-38.92,-151.77,2
1676,28.34,-31.97,-117.77,2
1677,28.36,7.21,-142.24,2
1678,28.37,0.26,-176.89,2
1679,28.39,0.12,-105.15,2
1680,28.4,18.24,-108.6,2
1681,28.41,1.55,-133.89,2
1682,28.43,-8.42,-58.19,2
1683,28.44,-0.68,-66.53,2
1684,28.45,-8.91,-105.97,2
1685,28.47,5.01,-40.7,2
1686,28.48,24.12,-49.27,2
1687,28.49,4.07,-90.11,2
1688,28.51,0.79,-31.39,2
1689,28.52,8.32,-38.47,2
1690,28.53,-21.74,-71.33,2
1691,28.55,-22.68,-15.35,1
1692,28.56,10.51,-38.55,1
1693,28.57,5.6,-85.0,1
1694,28.58,1.99,-20.82,1
1695,28.6,13.61,-20.48,1
1696,28.61,-2.9,-57.24,1
1697,28.62,-2.27,-1.55,1
1698,28.64,14.06,-8.25,1
1699,28.65,1.74,-46.61,1
1700,28.67,14.42,8.2,1
1701,28.68,40.28,4.53,1
1702,28.69,15.43,-27.67,1
1703,28.7,-1.25,28.87,1
1704,28.72,6.66,12.02,1
1705,28.73,-11.42,-44.92,1
1706,28.75,-7.57,4.93,1
1707,28.76,18.98,10.43,1
1708,28.77,6.94,-26.07,1
1709,28.78,2.25,23.34,1
1710,28.8,15.58,20.79,1
1711,28.81,-1.53,-20.46,1
1712,28.82,1.08,28.02,1
1713,28.84,22.42,31.59,1
1714,28.85,-4.65,2.13,1
1715,28.86,-18.86,52.75,1
1716,28.88,11.97,36.19,1
1717,28.89,7.64,-21.67,1
1718,28.9,-14.32,23.47,1
1719,28.92,-11.83,27.74,1
1720,28.93,-15.96,-8.6,1
1721,28.94,-8.99,43.44,1
1722,28.96,5.99,41.56,1
1723,28.97,-9.4,-13.72,1
1724,28.98,-6.52,21.51,1
1725,29.0,13.38,26.49,1
1726,29.01,-8.02,-4.63,1
1727,29.03,-16.49,49.59,1
1728,29.04,3.79,53.77,1
1729,29.05,-7.09,2.05,1
1730,29.07,-8.18,39.0,1
1731,29.08,8.02,45.88,1
1732,29.09,-15.03,1.62,1
1733,29.11,-24.04,38.78,1
1734,29.12,0.95,44.45,1
1735,29.13,0.49,-3.42,1
1736,29.15,2.23,26.7,1
1737,29.16,6.98,31.4,1
1738,29.17,-21.06,-15.06,1
1739,29.19,-10.51,10.33,1
1740,29.2,34.66,14.42,1
1741,29.21,17.8,-18.85,1
1742,29.22,-10.73,26.56,1
1743,29.24,2.11,40.24,1
1744,29.25,-2.59,-3.56,1
1745,29.26,-4.22,28.32,1
1746,29.28,13.36,37.71,1
1747,29.29,-2.28,-14.84,1
1748,29.3,-7.88,7.49,1
1749,29.32,8.59,26.97,1
1750,29.33,-16.19,-4.66,1
1751,29.34,-28.23,23.61,1
1752,29.36,-0.64,27.83,1
1753,29.37,-4.43,-20.73,1
1754,29.38,-7.41,12.93,1
1755,29.4,10.22,39.78,1
1756,29.41,-7.24,-0.79,1
1757,29.42,-13.93,17.29,1
1758,29.44,8.89,28.26,1
1759,29.45,1.18,-15.13,1
1760,29.46,4.14,8.21,1
1761,29.48,22.38,26.66,1
1762,29.49,-9.39,-14.65,1
1763,29.5,-25.76,7.05,1
1764,29.52,-0.08,26.57,1
1765,29.53,-12.0,-15.56,1
1766,29.54,-17.67,2.95,1
1767,29.56,10.91,19.76,1
1768,29.57,0.37,-25.39,1
1769,29.58,-9.06,-1.17,1
1770,29.6,9.4,31.56,1
1771,29.61,-10.16,-11.09,1
1772,29.62,-18.22,-8.43,1
1773,29.64,12.71,2.15,1
1774,29.65,1.43,-34.62,1
1775,29.67,-13.39,2.54,1
1776,29.68,9.73,34.88,1
1777,29.69,5.89,-27.28,1
1778,29.71,0.83,-25.95,1
1779,29.72,17.72,12.44,1
1780,29.73,2.05,-18.14,1
1781,29.75,-2.08,-3.01,1
1782,29.76,21.67,24.36,1
1783,29.77,1.75,-23.6,1
1784,29.79,-13.12,-14.82,1
1785,29.8,7.86,18.83,1
1786,29.81,-3.97,-27.7,1
1787,29.83,-4.31,-25.51,1
1788,29.84,27.3,10.1,1
1789,29.85,9.78,-29.03,1
1790,29.86,-6.66,-26.88,1
1791,29.88,16.19,7.73,1
1792,29.89,-1.28,-23.62,1
1793,29.9,-19.52,-10.43,1
1794,29.92,3.92,23.52,1
1795,29.93,-2.02,-23.69,1
1796,29.94,-9.46,-24.49,1
1797,29.96,14.85,8.79,1
1798,29.97,10.01,-30.81,1
1799,29.98,5.52,-15.34,1
1800,30.0,24.84,33.72,1
1801,30.01,12.15,-16.0,1
1802,30.02,7.15,-26.33,1
1803,30.04,18.94,16.12,1
1804,30.05,-23.57,-19.83,1
1805,30.06,-51.18,-18.27,1
1806,30.08,-19.41,21.97,1
1807,30.09,-18.58,-24.04,1
1808,30.1,-19.49,-22.0,1
1809,30.12,16.29,26.52,1
1810,30.13,13.56,-26.5,1
1811,30.14,7.83,-35.1,1
1812,30.16,34.2,32.13,2
1813,30.17,9.98,14.06,2
1814,30.18,-25.19,23.13,2
1815,30.2,-2.84,83.89,2
1816,30.21,23.45,59.52,2
1817,30.22,47.62,89.29,2
1818,30.24,46.9,188.42,2
1819,30.25,-19.73,203.44,2
1820,30.26,-31.24,210.33,2
1821,30.28,39.46,179.39,2
1822,30.29,52.05,107.93,2
1823,30.3,26.79,196.82,2
1824,30.32,21.04,254.08,2
1825,30.33,-9.07,45.01,2
1826,30.35,-25.36,-63.51,2
1827,30.36,-18.37,108.88,2
1828,30.37,-55.02,133.48,2
1829,30.39,-64.14,-52.1,2
1830,30.4,-3.71,-73.01,2
1831,30.41,-1.26,46.31,2
1832,30.43,-43.5,42.95,2
1833,30.44,-22.37,-108.97,2
1834,30.45,-5.51,-218.02,2
1835,30.47,-24.78,-128.74,2
1836,30.48,-7.07,-6.88,2
1837,30.49,19.76,-48.28,2
1838,30.5,31.24,-150.68,2
1839,30.52,30.69,-254.84,2
1840,30.53,-12.59,-337.66,2
1841,30.54,-29.52,-267.16,2
1842,30.56,7.93,-218.83,1
1843,30.57,1.1,-333.03,1
1844,30.58,-18.53,-252.86,1
1845,30.6,2.01,-12.59,1
1846,30.61,-7.58,-64.73,1
1847,30.62,-18.62,-202.5,1
1848,30.64,6.31,-129.9,1
1849,30.65,-4.66,-100.5,1
1850,30.67,-4.07,-123.23,1
1851,30.68,45.38,-87.39,1
1852,30.69,28.52,-121.65,1
1853,30.7,-20.56,-113.43,1
1854,30.72,1.31,-55.45,1
1855,30.73,16.51,-124.81,1
1856,30.75,-2.29,-109.2,1
1857,30.76,-1.67,10.93,1
1858,30.77,-12.81,-56.48,1
1859,30.78,-10.15,-134.38,1
1860,30.8,21.63,-52.66,1
1861,30.81,-3.19,-28.26,1
1862,30.82,-34.19,-23.93,1
1863,30.84,0.52,46.18,1
1864,30.85,19.72,15.09,1
1865,30.86,14.58,-29.79,1
1866,30.88,20.38,27.51,1
1867,30.89,2.19,23.5,1
1868,30.9,0.49,13.58,1
1869,30.92,31.0,57.34,1
1870,30.93,11.83,-9.24,1
1871,30.94,-18.11,-50.05,1
1872,30.96,-0.8,14.16,1
1873,30.97,-4.32,-21.15,1
1874,30.99,-25.23,-12.3,1
1875,31.0,-19.21,96.23,1
1876,31.01,-10.8,29.2,1
1877,31.03,18.8,-30.36,1
1878,31.04,46.03,86.84,1
1879,31.05,1.09,78.11,1
1880,31.07,-33.44,12.76,1
1881,31.08,-2.48,100.17,1
1882,31.09,-0.19,131.66,1
1883,31.11,-12.99,94.08,1
1884,31.12,6.93,92.02,1
1885,31.13,2.61,7.24,1
1886,31.14,-0.78,-33.58,1
1887,31.16,16.48,56.82,1
1888,31.17,-14.21,43.72,1
1889,31.18,-28.95,7.95,1
1890,31.2,16.24,80.82,1
1891,31.21,2.71,61.44,1
1892,31.22,-43.54,27.46,1
1893,31.24,-18.57,108.94,1
1894,31.25,13.63,92.32,1
1895,31.26,23.32,40.45,1
1896,31.28,36.11,100.05,1
1897,31.29,12.94,92.89,1
1898,31.3,-0.47,84.29,1
1899,31.32,28.9,181.46,1
1900,31.33,21.82,160.75,1
1901,31.34,13.42,67.38,1
1902,31.36,44.19,57.29,1
1903,31.37,19.94,5.57,1
1904,31.38,-20.48,-1.45,1
1905,31.4,8.63,105.0,1
1906,31.41,14.46,86.6,1
1907,31.42,-19.73,36.91,1
1908,31.44,-16.4,105.5,1
1909,31.45,-5.71,74.12,1
1910,31.46,9.05,-4.21,1
1911,31.48,28.33,27.71,1
1912,31.49,-10.97,16.07,1
1913,31.5,-41.6,21.08,1
1914,31.52,-3.84,110.32,1
1915,31.53,2.63,63.52,1
1916,31.54,-22.5,-1.93,1
1917,31.56,-12.07,78.51,1
1918,31.57,-11.88,79.19,1
1919,31.58,-17.92,31.96,1
1920,31.6,5.78,65.37,1
1921,31.61,6.97,4.8,1
1922,31.63,-7.08,-46.33,1
1923,31.64,-6.0,73.13,1
1924,31.65,-18.63,118.64,1
1925,31.67,-2.49,55.98,1
1926,31.68,38.15,44.96,1
1927,31.69,8.54,-2.73,1
1928,31.71,-30.08,-33.27,1
1929,31.72,-4.61,45.24,1
1930,31.73,2.48,42.83,1
1931,31.75,-2.21,17.11,1
1932,31.76,26.97,97.99,1
1933,31.77,17.64,65.28,1
1934,31.78,-14.75,-29.41,1
1935,31.8,-8.3,15.94,1
1936,31.81,-12.54,24.53,1
1937,31.82,-16.28,-22.59,1
1938,31.84,17.15,5.49,1
1939,31.85,25.66,-8.42,1
1940,31.86,8.7,-24.52,1
1941,31.88,-0.57,32.11,1
1942,31.89,-24.96,-6.02,1
1943,31.9,-24.61,-64.57,1
1944,31.92,8.35,-29.46,1
1945,31.93,-9.02,-80.19,1
1946,31.94,-34.65,-146.66,1
1947,31.96,-9.78,-63.8,1
1948,31.97,-9.29,-21.03,1
1949,31.98,-21.98,-57.29,1
1950,32.0,0.11,-25.36,1
1951,32.01,-2.39,-24.12,1
1952,32.03,-10.5,-72.12,1
1953,32.04,7.22,-40.94,1
1954,32.05,-18.68,-5.17,1
1955,32.06,-39.81,-15.58,1
1956,32.08,-1.16,-14.27,1
1957,32.09,-0.57,-43.72,1
1958,32.11,-17.78,-58.82,1
1959,32.12,19.47,3.43,1
1960,32.13,23.24,-1.43,1
1961,32.15,-12.84,-64.22,1
1962,32.16,-7.56,-45.08,0
1963,32.17,2.84,-41.07,0
1964,32.19,1.48,-60.85,0
1965,32.2,15.51,-7.24,0
1966,32.21,11.2,-4.95,0
1967,32.22,6.88,-40.78,0
1968,32.24,22.56,10.12,0
1969,32.25,-3.66,-1.96,0
1970,32.27,-35.95,-102.67,0
1971,32.28,-12.12,-136.52,0
1972,32.29,0.51,-193.74,0
1973,32.31,-5.45,-303.63,0
1974,32.32,16.04,-320.17,0
1975,32.33,21.28,-301.56,0
1976,32.35,10.73,-292.21,0
1977,32.36,17.2,-215.61,0
1978,32.37,8.97,-158.66,0
1979,32.39,5.51,-132.44,0
1980,32.4,23.25,-35.78,0
1981,32.41,5.83,17.56,0
1982,32.43,-14.56,-3.98,0
1983,32.44,9.61,39.62,0
1984,32.45,12.42,67.09,0
1985,32.47,-4.87,34.6,0
1986,32.48,10.37,76.2,0
1987,32.49,15.38,112.4,0
1988,32.51,3.96,81.54,0
1989,32.52,7.13,104.57,0
1990,32.53,-8.27,116.25,0
1991,32.54,-15.1,75.81,0
1992,32.56,20.06,105.94,1
1993,32.57,21.73,118.09,1
1994,32.59,-5.81,56.73,1
1995,32.6,4.56,72.77,1
1996,32.61,11.52,103.49,1
1997,32.63,4.12,67.63,1
1998,32.64,16.43,92.46,1
1999,32.65,4.37,123.41,1
2000,32.67,-20.38,76.82,1
2001,32.68,-3.41,77.84,1
2002,32.69,0.23,96.15,1
2003,32.71,-25.98,64.54,1
2004,32.72,-17.6,91.22,1
2005,32.73,5.4,115.83,1
2006,32.75,13.97,64.9,1
2007,32.76,24.69,75.64,1
2008,32.77,11.91,103.5,1
2009,32.79,-9.91,55.42,1
2010,32.8,-1.28,63.29,1
2011,32.81,-5.74,99.89,1
2012,32.83,-21.92,65.66,1
2013,32.84,-2.19,69.21,1
2014,32.85,12.22,84.42,1
2015,32.87,7.85,36.85,1
2016,32.88,18.45,52.4,1
2017,32.89,8.38,84.73,1
2018,32.9,-15.59,28.78,1
2019,32.92,-4.67,25.44,1
2020,32.93,0.27,57.84,1
2021,32.95,-8.26,14.97,1
2022,32.96,10.93,23.42,1
2023,32.97,13.2,60.6,1
2024,32.99,-9.75,6.68,1
2025,33.0,-4.11,-0.93,1
2026,33.01,3.03,38.07,1
2027,33.03,-5.25,-4.55,1
2028,33.04,5.61,-13.97,1
2029,33.05,13.82,16.09,1
2030,33.06,10.91,-22.78,1
2031,33.08,16.63,-13.68,1
2032,33.09,0.2,29.56,1
2033,33.11,-23.43,-18.94,1
2034,33.12,-10.56,-31.22,1
2035,33.13,-4.74,0.5,1
2036,33.15,-14.6,-43.76,1
2037,33.16,1.16,-40.47,1
2038,33.17,2.58,2.55,1
2039,33.19,-17.04,-49.6,1
2040,33.2,-6.07,-54.31,1
2041,33.21,2.52,0.36,1
2042,33.22,-7.78,-43.88,1
2043,33.24,3.27,-60.13,1
2044,33.25,4.42,-16.07,1
2045,33.27,-14.88,-59.58,1
2046,33.28,-11.34,-69.51,1
2047,33.29,-7.96,-13.62,1
2048,33.31,-11.63,-46.81,1
2049,33.32,6.04,-58.15,1
2050,33.33,6.98,-14.36,1
2051,33.35,-11.4,-61.23,1
2052,33.36,-1.14,-72.53,1
2053,33.37,8.18,-13.39,1
2054,33.38,-0.57,-52.24,1
2055,33.4,8.06,-70.68,1
2056,33.41,11.11,-15.51,1
2057,33.43,3.51,-51.08,1
2058,33.44,17.48,-69.92,1
2059,33.45,13.97,-20.27,1
2060,33.47,-10.47,-59.09,1
2061,33.48,-2.1,-70.3,1
2062,33.49,5.2,-5.66,1
2063,33.51,-7.83,-41.8,1
2064,33.52,2.21,-70.8,1
2065,33.53,4.22,-23.2,1
2066,33.54,-12.27,-51.82,1
2067,33.56,1.73,-57.58,1
2068,33.57,7.89,-3.14,1
2069,33.59,-13.53,-52.02,1
2070,33.6,-5.07,-71.09,1
2071,33.61,6.35,1.45,1
2072,33.63,-10.47,-28.9,1
2073,33.64,-10.16,-52.01,1
2074,33.65,-5.65,15.44,1
2075,33.67,-17.9,-16.7,1
2076,33.68,-8.7,-53.49,1
2077,33.69,3.57,-3.26,1
2078,33.71,-4.2,-37.13,1
2079,33.72,3.12,-58.84,1
2080,33.73,7.11,7.3,1
2081,33.75,-9.09,-27.67,1
2082,33.76,-4.21,-65.62,1
2083,33.77,2.99,-4.64,1
2084,33.79,-4.66,-18.03,1
2085,33.8,9.59,-31.56,1
2086,33.81,16.16,23.52,1
2087,33.83,0.48,-19.32,1
2088,33.84,8.12,-46.36,1
2089,33.85,4.32,22.82,1
2090,33.87,-24.09,-7.77,1
2091,33.88,-8.36,-37.87,1
2092,33.89,17.68,25.59,1
2093,33.9,4.57,-11.67,1
2094,33.92,4.68,-47.4,1
2095,33.93,10.58,25.02,1
2096,33.95,-7.62,2.53,1
2097,33.96,-4.06,-36.29,1
2098,33.97,5.21,24.75,1
2099,33.99,-14.57,5.68,1
2100,34.0,-15.62,-24.03,1
2101,34.01,-3.86,34.5,1
2102,34.03,-13.92,9.51,1
2103,34.04,-9.18,-17.96,1
2104,34.05,2.11,41.91,1
2105,34.06,-7.56,9.84,1
2106,34.08,-1.74,-19.86,1
2107,34.09,6.52,48.1,1
2108,34.11,-4.72,12.82,1
2109,34.12,5.64,-36.13,1
2110,34.13,16.01,29.66,1
2111,34.15,1.85,22.26,1
2112,34.16,14.37,-0.9,0
2113,34.17,29.36,63.84,0
2114,34.19,7.93,22.57,0
2115,34.2,7.98,-66.13,0
2116,34.21,18.06,-65.58,0
2117,34.23,-4.02,-117.66,0
2118,34.24,9.58,-155.7,0
2119,34.25,56.44,-89.93,0
2120,34.27,52.41,-101.27,0
2121,34.28,25.49,-121.64,0
2122,34.29,17.4,-53.46,0
2123,34.31,11.63,-70.76,0
2124,34.32,14.45,-79.64,0
2125,34.33,7.54,23.22,0
2126,34.35,-17.99,25.38,0
2127,34.36,-15.8,2.84,0
2128,34.37,-7.71,89.96,0
2129,34.38,-32.23,98.03,0
2130,34.4,-40.25,89.86,0
2131,34.41,-25.59,174.48,0
2132,34.43,-31.45,149.26,0
2133,34.44,-25.83,91.75,0
2134,34.45,6.54,157.09,0
2135,34.47,11.41,161.76,0
2136,34.48,-11.46,134.79,0
2137,34.49,-28.23,184.45,0
2138,34.51,-30.75,145.58,0
2139,34.52,-15.64,94.17,0
2140,34.53,-13.77,156.39,0
2141,34.54,-28.76,138.63,0
2142,34.56,-10.42,81.98,1
2143,34.57,3.5,119.6,1
2144,34.59,-20.95,85.22,1
2145,34.6,-2.27,27.08,1
2146,34.61,36.66,76.41,1
2147,34.63,9.01,64.99,1
2148,34.64,-14.3,25.05,1
2149,34.65,6.06,71.77,1
2150,34.67,3.91,46.29,1
2151,34.68,-3.11,1.66,1
2152,34.69,-3.79,58.53,1
2153,34.71,-19.79,41.52,1
2154,34.72,-3.91,-10.6,1
2155,34.73,22.29,32.71,1
2156,34.75,5.47,9.47,1
2157,34.76,4.21,-43.12,1
2158,34.77,20.71,3.0,1
2159,34.79,5.1,-12.79,1
2160,34.8,0.96,-58.2,1
2161,34.81,2.07,-3.62,1
2162,34.83,-25.55,-8.57,1
2163,34.84,-16.15,-52.69,1
2164,34.85,17.59,-8.45,1
2165,34.87,4.07,-19.68,1
2166,34.88,-8.35,-58.01,1
2167,34.89,2.0,-4.81,1
2168,34.91,-8.54,-16.72,1
2169,34.92,-10.11,-65.33,1
2170,34.93,-2.49,-17.07,1
2171,34.95,-21.64,-24.08,1
2172,34.96,-17.65,-70.48,1
2173,34.97,10.36,-25.05,1
2174,34.99,3.38,-35.51,1
2175,35.0,-3.46,-83.5,1
2176,35.01,6.38,-27.19,1
2177,35.03,-4.99,-17.77,1
2178,35.04,-3.79,-64.72,1
2179,35.05,9.82,-28.29,1
2180,35.06,-2.2,-30.35,1
2181,35.08,9.57,-70.41,1
2182,35.09,35.99,-22.06,1
2183,35.11,15.34,-18.24,1
2184,35.12,5.84,-59.57,1
2185,35.13,14.81,-12.18,1
2186,35.15,-21.16,-8.66,1
2187,35.16,-30.7,-59.22,1
2188,35.17,11.02,-21.73,1
2189,35.19,13.31,-13.26,1
2190,35.2,4.81,-55.48,1
2191,35.21,20.95,-22.65,1
2192,35.22,10.43,-23.92,1
2193,35.24,2.09,-68.13,1
2194,35.25,14.56,-24.97,1
2195,35.27,10.19,-6.88,1
2196,35.28,21.49,-42.83,1
2197,35.29,28.51,-15.34,1
2198,35.31,-12.87,-17.2,1
2199,35.32,-16.08,-55.76,1
2200,35.33,17.66,-14.9,1
2201,35.35,-4.3,-6.17,1
2202,35.36,-17.83,-51.19,1
2203,35.37,10.84,-18.87,1
2204,35.38,2.98,-3.9,1
2205,35.4,-3.58,-37.5,1
2206,35.41,18.07,-1.84,1
2207,35.43,7.53,4.83,1
2208,35.44,3.36,-43.17,1
2209,35.45,17.9,-11.02,1
2210,35.47,-7.6,8.79,1
2211,35.48,-18.46,-28.09,1
2212,35.49,2.86,0.81,1
2213,35.51,-11.41,9.42,1
2214,35.52,-13.23,-36.9,1
2215,35.53,13.19,-2.07,1
2216,35.55,-1.61,25.05,1
2217,35.56,-12.13,-17.99,1
2218,35.57,2.51,2.99,1
2219,35.59,-10.81,28.36,1
2220,35.6,-3.08,-6.05,1
2221,35.61,24.8,9.41,1
2222,35.63,0.84,19.25,1
2223,35.64,-9.33,-18.44,1
2224,35.65,20.27,11.78,1
2225,35.67,11.65,35.58,1
2226,35.68,3.52,-9.52,1
2227,35.69,19.14,2.1,1
2228,35.71,-0.32,17.69,1
2229,35.72,-8.15,-24.96,1
2230,35.73,10.46,-2.06,1
2231,35.75,-9.34,32.06,1
2232,35.76,-11.41,-3.53,1
2233,35.77,22.29,5.15,1
2234,35.79,5.97,19.23,1
2235,35.8,-13.54,-19.71,1
2236,35.81,4.67,8.96,1
2237,35.83,-6.91,40.08,1
2238,35.84,-13.5,-10.75,1
2239,35.85,8.11,-0.41,1
2240,35.87,-7.71,33.57,1
2241,35.88,-17.57,-12.42,1
2242,35.89,1.35,-7.8,1
2243,35.9,-17.31,30.9,1
2244,35.92,-20.56,2.85,1
2245,35.93,18.29,15.48,1
2246,35.95,13.23,40.94,1
2247,35.96,-4.13,-5.78,1
2248,35.97,5.86,4.32,1
2249,35.99,-9.87,41.46,1
2250,36.0,-12.2,0.92,1
2251,36.01,13.91,8.22,1
2252,36.03,-5.65,41.09,1
2253,36.04,-20.85,-8.73,1
2254,36.05,1.86,-5.31,1
2255,36.06,-15.97,42.51,1
2256,36.08,-33.2,2.0,1
2257,36.09,-7.06,-8.54,1
2258,36.11,-4.52,28.71,1
2259,36.12,-2.56,2.51,1
2260,36.13,16.11,15.72,1
2261,36.15,1.07,56.61,1
2262,36.16,2.0,5.63,2
2263,36.17,22.11,-5.52,2
2264,36.19,-7.68,39.71,2
2265,36.2,-17.67,21.76,2
2266,36.21,10.59,65.64,2
2267,36.23,-16.76,176.77,2
2268,36.24,-33.93,199.8,2
2269,36.25,13.36,222.36,2
2270,36.27,15.14,249.2,2
2271,36.28,-14.37,160.44,2
2272,36.29,-1.89,99.4,2
2273,36.31,0.02,102.65,2
2274,36.32,-1.31,21.15,2
2275,36.33,20.34,-40.82,2
2276,36.35,12.16,-43.01,2
2277,36.36,6.99,-117.55,2
2278,36.37,21.97,-159.48,2
2279,36.38,-1.33,-133.91,2
2280,36.4,-5.6,-168.01,2
2281,36.41,27.05,-155.65,2
2282,36.43,5.06,-89.77,2
2283,36.44,-17.7,-124.82,2
2284,36.45,14.58,-130.82,2
2285,36.47,21.15,-67.79,2
2286,36.48,13.24,-101.76,2
2287,36.49,19.52,-116.04,2
2288,36.51,-11.06,-55.49,2
2289,36.52,-25.99,-82.52,2
2290,36.53,4.99,-95.07,2
2291,36.54,-0.55,-40.51,2
2292,36.56,-9.55,-69.33,1
2293,36.57,15.21,-71.18,1
2294,36.59,0.0,-3.88,1
2295,36.6,-16.64,-34.35,1
2296,36.61,10.12,-48.96,1
2297,36.63,3.74,5.32,1
2298,36.64,-12.9,-36.68,1
2299,36.65,2.97,-52.73,1
2300,36.67,-4.4,16.4,1
2301,36.68,-3.89,-16.09,1
2302,36.69,24.99,-42.8,1
2303,36.71,10.57,16.37,1
2304,36.72,-2.24,-9.38,1
2305,36.73,17.91,-23.52,1
2306,36.75,-10.28,40.34,1
2307,36.76,-34.4,8.75,1
2308,36.77,0.28,-13.53,1
2309,36.79,3.96,46.19,1
2310,36.8,-10.82,13.15,1
2311,36.81,-1.07,-6.05,1
2312,36.83,-17.99,61.06,1
2313,36.84,-18.64,26.76,1
2314,36.85,19.76,-5.1,1
2315,36.87,11.95,53.16,1
2316,36.88,-5.55,19.4,1
2317,36.89,10.15,-10.47,1
2318,36.9,-6.4,50.84,1
2319,36.92,-18.67,21.77,1
2320,36.93,8.3,-4.69,1
2321,36.95,0.87,58.73,1
2322,36.96,-13.86,28.1,1
2323,36.97,-1.06,-1.98,1
2324,36.99,-17.02,62.74,1
2325,37.0,-16.83,34.7,1
2326,37.01,20.4,2.6,1
2327,37.03,5.46,63.6,1
2328,37.04,-17.65,32.05,1
2329,37.05,2.66,-3.81,1
2330,37.06,-7.25,55.76,1
2331,37.08,-16.37,23.03,1
2332,37.09,10.34,-15.24,1
2333,37.11,-3.09,46.31,1
2334,37.12,-17.8,20.96,1
2335,37.13,8.88,-8.21,1
2336,37.15,0.08,60.71,1
2337,37.16,-10.71,32.38,1
2338,37.17,16.73,-11.51,1
2339,37.19,5.77,47.53,1
2340,37.2,-12.56,23.43,1
2341,37.21,5.35,-14.57,1
2342,37.22,-4.91,45.8,1
2343,37.24,-6.89,29.5,1
2344,37.25,27.95,1.39,1
2345,37.27,12.62,52.24,1
2346,37.28,-14.58,12.63,1
2347,37.29,4.27,-21.73,1
2348,37.31,-1.53,46.09,1
2349,37.32,-11.12,18.17,1
2350,37.33,13.11,-20.97,1
2351,37.35,1.6,45.19,1
2352,37.36,-12.06,21.47,1
2353,37.37,15.07,-17.5,1
2354,37.38,5.59,52.22,1
2355,37.4,-15.65,34.27,1
2356,37.41,4.3,-14.93,1
2357,37.43,2.59,32.84,1
2358,37.44,-9.0,8.46,1
2359,37.45,3.84,-29.88,1
2360,37.47,-7.57,21.58,1
2361,37.48,-12.45,-8.77,1
2362,37.49,9.89,-39.98,1
2363,37.51,-5.55,36.9,1
2364,37.52,-10.64,20.48,1
2365,37.53,28.57,-29.85,1
2366,37.54,22.96,20.98,1
2367,37.56,4.02,3.06,1
2368,37.57,23.74,-33.51,1
2369,37.59,10.42,24.79,1
2370,37.6,-7.74,6.33,1
2371,37.61,13.99,-32.49,1
2372,37.63,0.18,25.94,1
2373,37.64,-22.33,7.1,1
2374,37.65,-0.54,-37.18,1
2375,37.67,-5.24,15.65,1
2376,37.68,-18.75,-6.79,1
2377,37.69,8.0,-56.22,1
2378,37.71,9.69,-1.13,1
2379,37.72,1.82,-7.98,1
2380,37.73,22.9,-42.82,1
2381,37.75,4.11,11.86,1
2382,37.76,-28.05,-7.79,1
2383,37.77,-17.05,-53.63,1
2384,37.79,-20.05,5.37,1
2385,37.8,-19.23,0.15,1
2386,37.81,18.1,-46.41,1
2387,37.83,14.44,-7.91,1
2388,37.84,-9.7,-25.57,1
2389,37.85,4.86,-58.33,1
2390,37.87,0.09,6.8,1
2391,37.88,-9.75,2.17,1
2392,37.89,14.25,-36.73,1
2393,37.9,2.87,25.1,1
2394,37.92,-17.26,21.51,1
2395,37.93,10.42,-35.18,1
2396,37.95,12.1,0.57,1
2397,37.96,-7.2,-4.64,1
2398,37.97,4.45,-43.4,1
2399,37.99,-3.39,6.03,1
2400,38.0,-14.6,5.26,1
2401,38.01,6.86,-36.29,1
2402,38.03,2.37,5.88,1
2403,38.04,-7.85,3.15,1
2404,38.05,9.93,-31.75,1
2405,38.06,-5.88,15.51,1
2406,38.08,-24.81,9.17,1
2407,38.09,1.72,-35.84,1
2408,38.11,2.12,2.9,1
2409,38.12,-14.56,-1.98,1
2410,38.13,7.27,-34.9,1
2411,38.15,14.88,21.75,1
2412,38.16,6.93,26.38,2
2413,38.17,18.95,-9.62,2
2414,38.19,9.45,50.97,2
2415,38.2,0.66,77.61,2
2416,38.21,17.04,54.55,2
2417,38.22,-5.57,76.76,2
2418,38.24,-23.7,31.18,2
2419,38.25,10.82,-18.99,2
2420,38.27,7.62,7.51,2
2421,38.28,-17.28,-111.29,2
2422,38.29,-0.92,-230.09,2
2423,38.31,-5.87,-87.35,2
2424,38.32,-19.29,-4.56,2
2425,38.33,12.49,18.77,2
2426,38.35,23.46,336.51,2
2427,38.36,-4.79,584.1,2
2428,38.37,-13.13,416.92,2
2429,38.38,-12.6,227.96,2
2430,38.4,-15.04,252.92,2
2431,38.41,9.1,274.99,2
2432,38.43,30.45,200.24,2
2433,38.44,24.71,138.57,2
2434,38.45,16.61,124.04,2
2435,38.47,1.92,102.87,2
2436,38.48,-9.64,63.69,2
2437,38.49,-10.58,20.61,2
2438,38.51,-27.57,-58.13,2
2439,38.52,-18.42,-174.41,2
2440,38.53,25.16,-218.51,2
2441,38.54,12.65,-164.69,2
2442,38.56,-25.5,-148.45,1
2443,38.57,-16.82,-172.6,1
2444,38.59,-21.84,-205.91,1
2445,38.6,-36.22,-345.57,1
2446,38.61,0.33,-419.36,1
2447,38.63,32.51,-242.02,1
2448,38.64,40.34,-118.45,1
2449,38.65,43.66,-223.05,1
2450,38.67,4.5,-294.94,1
2451,38.68,-23.16,-236.31,1
2452,38.69,15.29,-161.02,1
2453,38.71,24.97,-119.79,1
2454,38.72,-5.12,-174.26,1
2455,38.73,3.59,-295.67,1
2456,38.75,12.34,-290.02,1
2457,38.76,1.83,-147.36,1
2458,38.77,15.17,-43.24,1
2459,38.79,9.82,-15.93,1
2460,38.8,-19.87,-38.53,1
2461,38.81,-15.85,-83.9,1
2462,38.83,-9.57,-72.7,1
2463,38.84,-15.03,-42.9,1
2464,38.85,7.89,-72.76,1
2465,38.87,19.59,-106.6,1
2466,38.88,0.4,-125.56,1
2467,38.89,-0.51,-128.54,1
2468,38.9,9.48,-57.23,1
2469,38.92,10.21,-5.66,1
2470,38.93,7.77,-36.48,1
2471,38.95,-5.86,-15.63,1
2472,38.96,-5.12,17.61,1
2473,38.97,18.2,-6.93,1
2474,38.99,8.31,44.71,1
2475,39.0,-21.8,113.88,1
2476,39.01,-21.44,69.97,1
2477,39.03,-17.37,8.44,1
2478,39.04,-8.18,-47.87,1
2479,39.05,26.68,-95.46,1
2480,39.06,28.74,-30.49,1
2481,39.08,-2.97,42.42,1
2482,39.09,-4.95,19.55,1
2483,39.11,1.89,56.12,1
2484,39.12,-0.36,127.95,1
2485,39.13,13.02,86.82,1
2486,39.15,6.84,60.54,1
2487,39.16,-19.66,86.72,1
2488,39.17,-13.68,62.51,1
2489,39.19,-6.06,96.37,1
2490,39.2,-19.34,154.58,1
2491,39.21,-17.69,87.96,1
2492,39.22,-21.92,64.5,1
2493,39.24,-24.68,123.12,1
2494,39.25,12.31,79.29,1
2495,39.27,27.15,38.8,1
2496,39.28,-1.57,86.14,1
2497,39.29,-9.6,105.84,1
2498,39.31,-9.87,136.93,1
2499,39.32,-20.17,156.34,1
2500,39.33,-12.25,81.41,1
2501,39.35,-10.18,54.26,1
2502,39.36,-11.46,86.91,1
2503,39.37,19.44,72.47,1
2504,39.38,31.74,122.31,1
2505,39.4,6.19,201.45,1
2506,39.41,3.49,128.27,1
2507,39.43,5.54,32.3,1
2508,39.44,-9.44,46.28,1
2509,39.45,-1.61,67.88,1
2510,39.47,2.67,86.23,1
2511,39.48,-9.99,76.52,1
2512,39.49,0.97,-26.28,1
2513,39.51,2.72,-39.88,1
2514,39.52,-13.81,61.01,1
2515,39.53,-2.5,42.42,1
2516,39.54,1.29,-7.3,1
2517,39.56,-15.17,31.86,1
2518,39.57,-4.57,38.97,1
2519,39.59,2.75,66.06,1
2520,39.6,-9.92,105.33,1
2521,39.61,-1.2,42.45,1
2522,39.63,4.49,49.68,1
2523,39.64,-5.21,137.26,1
2524,39.65,4.46,102.23,1
2525,39.67,7.13,67.03,1
2526,39.68,-2.7,84.04,1
2527,39.69,11.12,16.35,1
2528,39.71,15.85,9.07,1
2529,39.72,6.08,63.39,1
2530,39.73,18.96,-15.25,1
2531,39.75,11.4,-24.09,1
2532,39.76,-20.17,76.23,1
2533,39.77,-3.82,-15.25,1
2534,39.79,21.9,-97.46,1
2535,39.8,-1.67,36.36,1
2536,39.81,-20.39,77.05,1
2537,39.83,-11.06,3.38,1
2538,39.84,-1.56,-3.84,1
2539,39.85,3.15,-42.59,1
2540,39.87,-9.1,-66.94,1
2541,39.88,-10.09,7.25,1
2542,39.89,20.76,12.94,1
2543,39.9,12.02,-22.57,1
2544,39.92,-30.28,22.26,1
2545,39.93,-17.1,16.91,1
2546,39.95,17.92,-33.07,1
2547,39.96,13.99,-24.23,1
2548,39.97,5.91,-46.65,1
2549,39.99,6.72,-62.75,1
2550,40.0,9.12,-23.52,1
2551,40.01,22.47,-46.26,1
2552,40.03,8.05,-27.45,1
2553,40.04,-28.66,59.99,1
2554,40.05,-24.76,-12.51,1
2555,40.07,-13.9,-113.51,1
2556,40.08,-20.66,-75.51,1
2557,40.09,5.29,-74.69,1
2558,40.11,24.49,-45.61,1
2559,40.12,3.07,75.13,1
2560,40.13,-3.86,60.5,1
2561,40.15,-0.76,11.19,1
2562,40.16,2.0,51.36,0
2563,40.17,24.3,-7.81,0
2564,40.19,16.83,-58.72,0
2565,40.2,-13.33,24.62,0
2566,40.21,10.51,24.93,0
2567,40.22,35.91,-10.81,0
2568,40.24,8.88,53.81,0
2569,40.25,3.79,57.14,0
2570,40.27,19.29,23.99,0
2571,40.28,6.49,41.9,0
2572,40.29,8.61,-20.87,0
2573,40.31,13.9,-101.72,0
2574,40.32,-18.07,-144.12,0
2575,40.33,-22.73,-277.28,0
2576,40.35,7.19,-347.82,0
2577,40.36,8.18,-268.74,0
2578,40.37,1.5,-274.21,0
2579,40.38,1.61,-288.34,0
2580,40.4,-12.87,-182.41,0
2581,40.41,-13.14,-148.17,0
2582,40.43,-4.56,-127.53,0
2583,40.44,-10.21,-10.07,0
2584,40.45,-2.1,9.04,0
2585,40.47,-2.11,-9.72,0
2586,40.48,-27.97,61.73,0
2587,40.49,-22.26,50.79,0
2588,40.51,-3.78,21.84,0
2589,40.52,-16.74,93.84,0
2590,40.53,-13.18,83.91,0
2591,40.54,4.8,46.01,0
2592,40.56,-4.94,99.65,1
2593,40.57,-4.5,68.55,1
2594,40.59,5.88,7.21,1
2595,40.6,-7.98,46.37,1
2596,40.61,-0.59,26.45,1
2597,40.63,23.39,-6.71,1
2598,40.64,14.46,57.84,1
2599,40.65,10.26,51.52,1
2600,40.67,11.66,20.28,1
2601,40.68,-13.31,80.77,1
2602,40.69,-14.14,68.14,1
2603,40.71,5.91,29.14,1
2604,40.72,0.41,78.94,1
2605,40.73,7.07,51.53,1
2606,40.75,18.04,4.34,1
2607,40.76,-8.38,64.67,1
2608,40.77,-15.17,57.03,1
2609,40.79,6.56,20.63,1
2610,40.8,3.84,82.7,1
2611,40.81,6.96,73.26,1
2612,40.83,12.74,24.87,1
2613,40.84,-13.79,68.02,1
2614,40.85,-13.72,56.21,1
2615,40.87,9.12,27.32,1
2616,40.88,-7.11,83.17,1
2617,40.89,-16.51,55.57,1
2618,40.9,-3.46,1.8,1
2619,40.92,-8.94,61.45,1
2620,40.93,0.8,60.74,1
2621,40.95,14.23,13.4,1
2622,40.96,-9.11,58.23,1
2623,40.97,-7.66,56.52,1
2624,40.99,16.89,18.36,1
2625,41.0,1.71,54.07,1
2626,41.01,-2.4,27.47,1
2627,41.03,13.8,-20.74,1
2628,41.04,-9.65,32.65,1
2629,41.05,-19.92,26.53,1
2630,41.06,2.18,-17.22,1
2631,41.08,-10.14,36.84,1
2632,41.09,-18.04,30.38,1
2633,41.11,6.5,-23.9,1
2634,41.12,2.95,22.15,1
2635,41.13,-6.98,20.54,1
2636,41.15,2.24,-35.03,1
2637,41.16,-4.33,2.17,1
2638,41.17,-0.12,9.84,1
2639,41.19,14.61,-26.32,1
2640,41.2,-0.16,11.33,1
2641,41.21,3.67,6.48,1
2642,41.22,26.82,-34.0,1
2643,41.24,2.3,5.56,1
2644,41.25,-22.62,-3.92,1
2645,41.27,-8.77,-51.14,1
2646,41.28,-6.96,-4.42,1
2647,41.29,-1.56,-1.23,1
2648,41.31,12.89,-55.82,1
2649,41.32,-7.62,-26.2,1
2650,41.33,-14.87,-16.76,1
2651,41.35,9.85,-54.22,1
2652,41.36,6.86,-27.7,1
2653,41.37,4.04,-27.88,1
2654,41.38,17.62,-56.3,1
2655,41.4,4.96,-12.19,1
2656,41.41,2.31,-12.93,1
2657,41.43,12.05,-62.1,1
2658,41.44,-10.66,-30.55,1
2659,41.45,-11.4,-23.0,1
2660,41.47,12.97,-59.9,1
2661,41.48,-3.44,-23.11,1
2662,41.49,-10.77,-19.48,1
2663,41.51,8.89,-69.69,1
2664,41.52,-3.07,-38.25,1
2665,41.53,-0.65,-20.39,1
2666,41.54,25.31,-57.04,1
2667,41.56,5.0,-25.41,1
2668,41.57,-11.73,-11.85,1
2669,41.59,7.95,-55.16,1
2670,41.6,4.98,-28.89,1
2671,41.61,5.16,-15.29,1
2672,41.63,13.5,-59.86,1
2673,41.64,-15.05,-32.22,1
2674,41.65,-16.61,-4.12,1
2675,41.67,15.65,-37.41,1
2676,41.68,-0.25,-21.61,1
2677,41.69,-12.14,-11.66,1
2678,41.71,10.14,-44.93,1
2679,41.72,-7.4,-16.7,1
2680,41.73,-20.99,-1.73,1
2681,41.75,10.25,-41.73,1
2682,41.76,16.04,-20.31,1
2683,41.77,6.44,-4.24,1
2684,41.79,7.75,-37.02,1
2685,41.8,-6.96,-5.56,1
2686,41.81,3.17,8.64,1
2687,41.83,27.85,-45.65,1
2688,41.84,-1.33,-26.89,1
2689,41.85,-19.24,0.98,1
2690,41.87,10.43,-40.33,1
2691,41.88,6.61,-18.34,1
2692,41.89,-9.73,21.55,1
2693,41.9,1.2,-11.7,1
2694,41.92,-4.14,-4.65,1
2695,41.93,-3.38,14.77,1
2696,41.95,14.24,-22.77,1
2697,41.96,-0.73,-8.51,1
2698,41.97,-8.37,11.43,1
2699,41.99,6.3,-35.64,1
2700,42.0,-9.43,-24.28,1
2701,42.01,-8.44,6.32,1
2702,42.03,18.44,-26.23,1
2703,42.04,0.15,1.72,1
2704,42.05,-11.2,42.56,1
2705,42.06,11.75,-8.64,1
2706,42.08,-6.8,-12.76,1
2707,42.09,-24.08,22.7,1
2708,42.11,0.55,-13.4,1
2709,42.12,-1.58,-13.67,1
2710,42.13,-9.76,19.71,1
2711,42.15,4.45,-5.43,1
2712,42.16,-5.62,-0.12,0
2713,42.17,-2.19,-0.98,0
2714,42.19,26.45,-89.63,0
2715,42.2,19.45,-118.89,0
2716,42.21,26.62,-99.78,0
2717,42.22,56.75,-148.59,0
2718,42.24,27.36,-143.23,0
2719,42.25,-0.83,-91.65,0
2720,42.27,22.81,-116.67,0
2721,42.28,18.09,-101.16,0
2722,42.29,-3.27,-43.07,0
2723,42.31,-8.34,-57.65,0
2724,42.32,-32.89,-25.69,0
2725,42.33,-28.33,48.48,0
2726,42.35,6.59,36.27,0
2727,42.36,-13.64,61.83,0
2728,42.37,-28.92,131.59,0
2729,42.38,-0.64,104.93,0
2730,42.4,-15.04,105.43,0
2731,42.41,-23.42,159.75,0
2732,42.43,18.23,123.83,0
2733,42.44,9.16,112.93,0
2734,42.45,-25.93,166.32,0
2735,42.47,-14.65,139.47,0
2736,42.48,-17.41,129.4,0
2737,42.49,-28.49,166.19,0
2738,42.51,-8.31,119.49,0
2739,42.52,-10.66,106.4,0
2740,42.53,-15.56,148.55,0
2741,42.54,14.23,92.4,0
2742,42.56,14.89,67.07,1
2743,42.57,-5.87,119.23,1
2744,42.59,-8.74,74.78,1
2745,42.6,-27.06,35.86,1
2746,42.61,-25.74,67.91,1
2747,42.63,15.33,23.97,1
2748,42.64,12.61,3.62,1
2749,42.65,-16.48,52.39,1
2750,42.66,-13.71,15.1,1
2751,42.68,-12.44,3.24,1
2752,42.69,0.59,62.98,1
2753,42.71,22.03,22.71,1
2754,42.72,-6.56,-7.21,1
2755,42.73,-23.4,37.49,1
2756,42.75,5.08,-3.85,1
2757,42.76,-4.27,-26.17,1
2758,42.77,-19.57,25.78,1
2759,42.79,2.07,-13.57,1
2760,42.8,-4.42,-34.24,1
2761,42.81,-8.15,21.96,1
2762,42.83,20.16,-23.37,1
2763,42.84,5.32,-60.4,1
2764,42.85,-16.24,-6.26,1
2765,42.87,3.77,-34.44,1
2766,42.88,3.16,-55.6,1
2767,42.89,4.22,3.1,1
2768,42.9,23.95,-33.61,1
2769,42.92,-1.86,-71.67,1
2770,42.93,-18.57,-17.58,1
2771,42.95,10.64,-37.91,1
2772,42.96,3.75,-58.15,1
2773,42.97,-10.34,-3.09,1
2774,42.99,14.27,-33.81,1
2775,43.0,9.94,-58.26,1
2776,43.01,-7.99,-1.67,1
2777,43.03,2.64,-37.64,1
2778,43.04,-2.31,-68.41,1
2779,43.05,1.03,-7.09,1
2780,43.06,26.44,-34.43,1
2781,43.08,9.47,-62.53,1
2782,43.09,-4.81,-1.11,1
2783,43.11,17.92,-27.49,1
2784,43.12,0.58,-57.89,1
2785,43.13,-18.24,-1.33,1
2786,43.15,11.18,-31.07,1
2787,43.16,13.0,-61.86,1
2788,43.17,6.26,-2.24,1
2789,43.19,28.47,-29.21,1
2790,43.2,9.86,-58.03,1
2791,43.21,-13.77,5.47,1
2792,43.22,8.64,-19.68,1
2793,43.24,6.78,-49.25,1
2794,43.25,-0.81,10.68,1
2795,43.27,20.39,-26.68,1
2796,43.28,8.34,-66.06,1
2797,43.29,0.28,5.23,1
2798,43.3,25.43,-11.6,1
2799,43.32,5.89,-44.28,1
2800,43.33,-14.25,23.5,1
2801,43.35,14.0,0.89,1
2802,43.36,6.27,-42.07,1
2803,43.37,-15.74,16.77,1
2804,43.38,4.81,-7.59,1
2805,43.4,7.83,-50.23,1
2806,43.41,5.0,9.25,1
2807,43.43,23.5,-4.65,1
2808,43.44,5.42,-26.17,1
2809,43.45,-11.2,41.81,1
2810,43.47,8.48,6.38,1
2811,43.48,-6.45,-45.49,1
2812,43.49,-19.11,16.13,1
2813,43.51,14.57,-3.1,1
2814,43.52,13.9,-40.69,1
2815,43.53,-3.33,25.87,1
2816,43.54,14.32,7.27,1
2817,43.56,5.12,-37.59,1
2818,43.57,-17.31,20.46,1
2819,43.59,-5.52,7.31,1
2820,43.6,-3.92,-29.41,1
2821,43.61,-1.87,23.65,1
2822,43.63,15.37,2.19,1
2823,43.64,-0.19,-28.91,1
2824,43.65,-7.24,40.4,1
2825,43.67,10.62,19.58,1
2826,43.68,-18.3,-31.89,1
2827,43.69,-40.31,28.4,1
2828,43.71,-4.97,20.72,1
2829,43.72,1.98,-24.61,1
2830,43.73,-8.64,20.16,1
2831,43.75,13.66,1.04,1
2832,43.76,10.55,-29.35,1
2833,43.77,-1.88,41.84,1
2834,43.79,13.26,31.61,1
2835,43.8,-2.47,-12.41,1
2836,43.81,-17.92,43.06,1
2837,43.83,7.75,24.48,1
2838,43.84,-0.66,-28.26,1
2839,43.85,-26.43,26.87,1
2840,43.87,-16.77,25.33,1
2841,43.88,-18.48,-12.35,1
2842,43.89,-13.72,38.55,1
2843,43.9,20.47,26.65,1
2844,43.92,16.74,-12.67,1
2845,43.93,-0.0,34.77,1
2846,43.94,11.15,8.92,1
2847,43.96,-5.57,-38.33,1
2848,43.97,-18.6,24.38,1
2849,43.99,10.42,20.8,1
2850,44.0,4.19,-28.66,1
2851,44.01,-20.29,16.73,1
2852,44.03,-4.37,13.8,1
2853,44.04,-3.98,-21.02,1
2854,44.05,-18.54,30.47,1
2855,44.06,-8.12,24.16,1
2856,44.08,-13.07,-12.58,1
2857,44.09,-17.53,40.53,1
2858,44.11,3.15,25.18,1
2859,44.12,-5.44,-34.05,1
2860,44.13,-14.88,11.67,1
2861,44.15,11.87,17.46,1
2862,44.16,10.09,-16.71,2
2863,44.17,-1.9,57.83,2
2864,44.19,13.35,122.84,2
2865,44.2,-2.88,147.86,2
2866,44.21,-15.65,217.92,2
2867,44.22,16.88,214.41,2
2868,44.24,6.91,157.44,2
2869,44.25,-28.48,164.28,2
2870,44.27,-14.89,115.27,2
2871,44.28,-7.7,27.06,2
2872,44.29,-16.27,25.13,2
2873,44.31,-0.65,-16.38,2
2874,44.32,1.5,-102.78,2
2875,44.33,0.95,-107.09,2
2876,44.35,21.08,-129.4,2
2877,44.36,7.14,-172.17,2
2878,44.37,-13.04,-129.61,2
2879,44.38,11.21,-114.32,2
2880,44.4,16.75,-130.77,2
2881,44.41,1.38,-77.86,2
2882,44.43,18.41,-79.43,2
2883,44.44,28.42,-129.76,2
2884,44.45,20.89,-86.28,2
2885,44.47,23.01,-63.55,2
2886,44.48,6.1,-92.72,2
2887,44.49,-6.46,-45.21,2
2888,44.51,12.15,-21.95,2
2889,44.52,1.21,-57.49,2
2890,44.53,-16.53,-35.27,2
2891,44.54,11.06,-44.31,2
2892,44.56,17.19,-92.23,1
2893,44.57,-1.81,-46.22,1
2894,44.58,5.56,-11.59,1
2895,44.6,-0.15,-41.67,1
2896,44.61,-8.0,-15.75,1
2897,44.63,15.82,-0.72,1
2898,44.64,10.78,-31.09,1
2899,44.65,-13.69,-3.57,1
2900,44.67,-2.75,3.06,1
2901,44.68,-1.27,-34.28,1
2902,44.69,-11.77,4.03,1
2903,44.71,6.69,23.59,1
2904,44.72,7.42,-19.55,1
2905,44.73,-8.75,12.6,1
2906,44.75,4.45,42.28,1
2907,44.76,7.47,1.41,1
2908,44.77,-1.09,13.35,1
2909,44.79,7.99,28.37,1
2910,44.8,-4.79,-1.33,1
2911,44.81,-19.29,31.62,1
2912,44.83,-2.06,54.36,1
2913,44.84,-5.42,12.99,1
2914,44.85,-14.67,30.86,1
2915,44.87,7.36,49.76,1
2916,44.88,6.49,6.97,1
2917,44.89,-10.0,21.62,1
2918,44.9,1.16,46.92,1
2919,44.92,0.36,14.17,1
2920,44.93,-6.52,25.84,1
2921,44.95,11.61,42.16,1
2922,44.96,6.56,8.98,1
2923,44.97,-15.77,29.61,1
2924,44.99,-14.09,48.3,1
2925,45.0,-19.96,1.34,1
2926,45.01,-22.9,16.32,1
2927,45.03,2.3,52.93,1
2928,45.04,2.34,14.51,1
2929,45.05,-13.0,9.88,1
2930,45.06,3.9,27.55,1
2931,45.08,6.91,-3.17,1
2932,45.09,-8.69,15.95,1
2933,45.11,-0.3,47.56,1
2934,45.12,-1.1,16.68,1
2935,45.13,-7.25,36.71,1
2936,45.15,15.18,62.78,1
2937,45.16,13.73,7.07,1
2938,45.17,-15.16,13.44,1
2939,45.19,-11.26,58.11,1
2940,45.2,2.09,16.59,1
2941,45.21,3.23,12.17,1
2942,45.22,12.29,46.41,1
2943,45.24,7.95,3.34,1
2944,45.25,0.4,-5.35,1
2945,45.26,13.67,28.11,1
2946,45.28,7.5,-0.76,1
2947,45.29,-8.33,4.11,1
2948,45.31,4.18,30.09,1
2949,45.32,5.31,-14.11,1
2950,45.33,-4.09,-7.31,1
2951,45.35,7.57,30.04,1
2952,45.36,-0.58,-17.42,1
2953,45.37,-17.8,-18.69,1
2954,45.38,-0.11,25.15,1
2955,45.4,6.81,-15.74,1
2956,45.41,-4.58,-16.67,1
2957,45.43,6.48,30.53,1
2958,45.44,4.47,-11.93,1
2959,45.45,-16.83,-17.54,1
2960,45.47,-9.82,35.56,1
2961,45.48,-1.79,-1.75,1
2962,45.49,-11.97,-15.79,1
2963,45.51,-6.48,27.69,1
2964,45.52,-1.27,-12.87,1
2965,45.53,-1.9,-31.41,1
2966,45.54,12.96,7.95,1
2967,45.56,9.28,-25.47,1
2968,45.57,-8.15,-23.23,1
2969,45.59,4.09,31.33,1
2970,45.6,8.17,-13.44,1
2971,45.61,-6.61,-33.24,1
2972,45.63,1.89,17.49,1
2973,45.64,0.32,-19.04,1
2974,45.65,-19.18,-35.93,1
2975,45.67,-5.67,18.08,1
2976,45.68,9.74,-7.72,1
2977,45.69,0.79,-17.72,1
2978,45.71,4.84,22.49,1
2979,45.72,4.44,-26.54,1
2980,45.73,-11.27,-32.96,1
2981,45.75,-4.32,36.51,1
2982,45.76,-2.33,-3.1,1
2983,45.77,-21.8,-31.08,1
2984,45.79,-10.64,23.61,1
2985,45.8,12.02,-13.37,1
2986,45.81,6.95,-42.99,1
2987,45.83,5.82,8.27,1
2988,45.84,10.48,-16.34,1
2989,45.85,9.62,-23.79,1
2990,45.86,16.07,36.22,1
2991,45.88,4.05,-1.08,1
2992,45.89,-15.8,-26.57,1
2993,45.9,2.58,23.38,1
2994,45.92,15.71,-17.17,1
2995,45.93,-1.75,-38.71,1
2996,45.95,1.89,20.49,1
2997,45.96,10.67,-12.16,1
2998,45.97,-3.25,-26.11,1
2999,45.99,-4.64,38.3,1
3000,46.0,-2.77,-5.31,1
3001,46.01,-10.25,-40.35,1
3002,46.03,5.48,19.56,1
3003,46.04,20.4,-14.24,1
3004,46.05,9.71,-41.44,1
3005,46.06,3.39,28.35,1
3006,46.08,-5.68,1.02,1
3007,46.09,-15.43,-39.45,1
3008,46.11,4.95,7.99,1
3009,46.12,17.27,-22.48,1
3010,46.13,4.3,-41.94,1
3011,46.15,10.48,25.58,1
3012,46.16,11.57,-2.52,2
3013,46.17,-9.39,-20.19,2
3014,46.19,-3.51,62.13,2
3015,46.2,4.14,45.94,2
3016,46.21,-12.89,46.75,2
3017,46.22,7.59,175.46,2
3018,46.24,51.3,191.17,2
3019,46.25,51.37,114.19,2
3020,46.27,27.97,46.34,2
3021,46.28,-1.14,-100.95,2
3022,46.29,-27.85,-165.8,2
3023,46.31,-15.19,-44.28,2
3024,46.32,6.26,58.38,2
3025,46.33,5.26,102.25,2
3026,46.35,9.72,81.2,2
3027,46.36,0.87,-63.04,2
3028,46.37,-26.84,-113.62,2
3029,46.38,-21.27,-22.92,2
3030,46.4,-6.15,-40.74,2
3031,46.41,-15.64,-74.17,2
3032,46.43,-9.72,-19.96,2
3033,46.44,-6.65,-82.77,2
3034,46.45,-31.41,-127.81,2
3035,46.47,-20.73,3.75,2
3036,46.48,15.9,25.61,2
3037,46.49,17.01,-50.43,2
3038,46.5,7.12,6.14,2
3039,46.52,0.61,28.84,2
3040,46.53,-12.29,-42.09,2
3041,46.54,-9.46,-51.51,2
3042,46.56,-7.89,-51.68,1
3043,46.57,-15.07,-49.45,1
3044,46.59,1.58,-24.07,1
3045,46.6,7.23,-51.43,1
3046,46.61,-15.47,-27.82,1
3047,46.63,-7.1,27.98,1
3048,46.64,4.77,-62.42,1
3049,46.65,-21.73,-99.74,1
3050,46.67,-17.34,13.09,1
3051,46.68,16.9,-30.74,1
3052,46.69,9.82,-133.33,1
3053,46.71,-9.81,-38.21,1
3054,46.72,-11.38,37.86,1
3055,46.73,-17.83,30.99,1
3056,46.75,-14.92,69.65,1
3057,46.76,-9.2,20.41,1
3058,46.77,-22.67,-54.35,1
3059,46.79,-15.12,-3.2,1
3060,46.8,8.06,9.39,1
3061,46.81,3.71,-18.2,1
3062,46.83,-0.23,10.15,1
3063,46.84,3.0,-22.77,1
3064,46.85,-2.2,-48.41,1
3065,46.87,9.81,7.06,1
3066,46.88,11.44,-27.83,1
3067,46.89,-16.18,-68.89,1
3068,46.9,-9.12,14.62,1
3069,46.92,15.24,29.7,1
3070,46.93,1.26,-19.3,1
3071,46.95,-1.35,2.8,1
3072,46.96,12.62,-14.53,1
3073,46.97,-2.48,-31.05,1
3074,46.99,-0.05,43.98,1
3075,47.0,18.61,41.48,1
3076,47.01,-0.74,-24.07,1
3077,47.03,-10.11,-24.29,1
3078,47.04,0.38,-21.19,1
3079,47.05,-15.08,29.08,1
3080,47.06,-13.07,101.01,1
3081,47.08,4.9,4.05,1
3082,47.09,-7.18,-86.5,1
3083,47.11,2.08,3.94,1
3084,47.12,34.0,23.25,1
3085,47.13,28.06,-28.88,1
3086,47.14,19.01,43.95,1
3087,47.16,23.92,75.22,1
3088,47.17,15.26,28.28,1
3089,47.18,26.16,67.5,1
3090,47.2,32.02,60.41,1
3091,47.21,-9.71,-16.76,1
3092,47.22,-20.0,5.34,1
3093,47.24,11.42,22.35,1
3094,47.25,3.65,-6.14,1
3095,47.27,-8.52,20.0,1
3096,47.28,11.2,8.9,1
3097,47.29,15.57,11.1,1
3098,47.31,16.26,106.24,1
3099,47.32,19.55,80.83,1
3100,47.33,-0.99,-28.37,1
3101,47.35,-4.7,2.89,1
3102,47.36,-2.14,49.03,1
3103,47.37,-28.9,18.64,1
3104,47.38,-16.41,12.62,1
3105,47.4,19.82,-8.62,1
3106,47.41,2.58,-24.44,1
3107,47.43,-7.03,34.08,1
3108,47.44,6.1,35.09,1
3109,47.45,-14.81,-12.86,1
3110,47.47,-12.24,19.11,1
3111,47.48,19.68,26.23,1
3112,47.49,1.28,-0.67,1
3113,47.51,-23.69,50.04,1
3114,47.52,-9.17,51.01,1
3115,47.53,-2.19,-13.29,1
3116,47.54,5.44,13.31,1
3117,47.56,19.9,38.19,1
3118,47.57,8.63,1.68,1
3119,47.59,13.31,0.86,1
3120,47.6,28.64,-16.45,1
3121,47.61,-6.55,-21.82,1
3122,47.63,-24.97,46.55,1
3123,47.64,8.85,23.39,1
3124,47.65,8.99,-48.94,1
3125,47.67,-9.13,-2.32,1
3126,47.68,-0.25,-8.21,1
3127,47.69,-3.95,-90.0,1
3128,47.71,-7.97,-31.06,1
3129,47.72,-3.61,41.44,1
3130,47.73,-22.55,12.11,1
3131,47.75,-17.76,40.53,1
3132,47.76,13.36,74.95,1
3133,47.77,3.32,26.4,1
3134,47.78,-6.8,3.14,1
3135,47.8,6.18,-9.7,1
3136,47.81,-11.52,-30.68,1
3137,47.82,-12.35,12.71,1
3138,47.84,17.89,29.44,1
3139,47.85,-0.1,-0.14,1
3140,47.86,-20.88,39.75,1
3141,47.88,-0.21,46.22,1
3142,47.89,-4.02,-30.56,1
3143,47.9,-10.2,-27.0,1
3144,47.92,5.86,5.6,1
3145,47.93,-9.96,-21.28,1
3146,47.95,-13.78,-2.7,1
3147,47.96,19.6,18.9,1
3148,47.97,14.96,-0.41,1
3149,47.99,0.37,40.09,1
3150,48.0,11.73,47.03,1
3151,48.01,-4.37,-30.64,1
3152,48.03,-18.97,-26.71,1
3153,48.04,-8.38,5.01,1
3154,48.05,-23.9,-35.12,1
3155,48.06,-30.44,-23.49,1
3156,48.08,-10.35,19.26,1
3157,48.09,-19.98,7.92,1
3158,48.11,-19.54,25.94,1
3159,48.12,10.37,35.8,1
3160,48.13,9.84,-10.24,1
3161,48.15,12.62,20.63,1
3162,48.16,28.57,63.16,0
3163,48.17,-1.57,4.41,0
3164,48.19,-22.35,2.61,0
3165,48.2,0.98,66.92,0
3166,48.21,4.5,70.74,0
3167,48.22,3.34,75.53,0
3168,48.24,5.72,55.08,0
3169,48.25,-19.21,-41.78,0
3170,48.27,-6.84,-83.6,0
3171,48.28,34.31,-112.8,0
3172,48.29,8.21,-225.32,0
3173,48.31,-26.35,-266.96,0
3174,48.32,-8.69,-237.76,0
3175,48.33,-5.27,-259.64,0
3176,48.35,-10.13,-226.14,0
3177,48.36,-3.98,-146.75,0
3178,48.37,-22.61,-136.31,0
3179,48.38,-15.57,-87.24,0
3180,48.4,25.29,-9.92,0
3181,48.41,16.54,-12.9,0
3182,48.42,-2.88,28.21,0
3183,48.44,12.42,104.57,0
3184,48.45,9.74,79.43,0
3185,48.46,12.62,71.74,0
3186,48.48,28.61,110.66,0
3187,48.49,0.99,82.13,0
3188,48.5,-10.78,85.24,0
3189,48.52,21.12,118.79,0
3190,48.53,13.02,68.86,0
3191,48.54,-3.62,66.4,0
3192,48.56,13.18,114.34,1
3193,48.57,3.98,62.34,1
3194,48.59,0.74,37.44,1
3195,48.6,31.89,77.59,1
3196,48.61,21.83,42.25,1
3197,48.63,-3.52,39.11,1
3198,48.64,4.07,85.84,1
3199,48.65,-2.48,33.12,1
3200,48.67,-3.18,11.28,1
3201,48.68,12.47,68.78,1
3202,48.69,-10.98,44.42,1
3203,48.71,-21.35,30.53,1
3204,48.72,7.33,66.82,1
3205,48.73,-1.33,18.82,1
3206,48.75,-10.56,5.91,1
3207,48.76,16.64,61.17,1
3208,48.77,9.75,26.84,1
3209,48.79,-5.79,24.1,1
3210,48.8,7.2,87.39,1
3211,48.81,-7.54,29.12,1
3212,48.83,-15.01,-23.94,1
3213,48.84,14.69,23.32,1
3214,48.85,6.83,3.52,1
3215,48.87,-12.12,-6.51,1
3216,48.88,1.91,47.91,1
3217,48.89,-4.3,10.79,1
3218,48.9,-5.7,-11.15,1
3219,48.92,16.0,44.56,1
3220,48.93,-5.82,8.24,1
3221,48.95,-32.39,-18.13,1
3222,48.96,-22.37,31.79,1
3223,48.97,-28.4,-10.01,1
3224,48.99,-21.45,-32.79,1
3225,49.0,15.26,33.51,1
3226,49.01,18.2,0.28,1
3227,49.03,19.39,-39.3,1
3228,49.04,31.57,0.37,1
3229,49.05,-6.42,-40.24,1
3230,49.06,-28.71,-59.38,1
3231,49.08,1.23,11.91,1
3232,49.09,-6.09,-13.58,1
3233,49.1,-16.11,-44.01,1
3234,49.12,13.14,7.47,1
3235,49.13,3.26,-28.47,1
3236,49.14,-11.93,-56.79,1
3237,49.16,9.97,-0.59,1
3238,49.17,-4.89,-41.2,1
3239,49.19,-20.46,-74.11,1
3240,49.2,7.19,-5.07,1
3241,49.21,0.83,-25.26,1
3242,49.22,-14.56,-51.68,1
3243,49.24,2.83,11.69,1
3244,49.25,-14.16,-13.38,1
3245,49.27,-30.33,-42.9,1
3246,49.28,-2.41,12.14,1
3247,49.29,-7.04,-28.28,1
3248,49.31,-14.97,-69.84,1
3249,49.32,25.89,-6.35,1
3250,49.33,37.08,-19.84,1
3251,49.35,23.52,-43.47,1
3252,49.36,29.42,7.75,1
3253,49.37,5.35,-38.55,1
3254,49.38,-15.25,-80.14,1
3255,49.4,5.53,-8.12,1
3256,49.41,-5.09,-18.74,1
3257,49.43,-24.75,-45.0,1
3258,49.44,-7.13,18.7,1
3259,49.45,-5.61,-14.0,1
3260,49.47,3.94,-67.74,1
3261,49.48,38.44,-13.94,1
3262,49.49,21.06,-21.72,1
3263,49.51,-9.63,-43.01,1
3264,49.52,0.2,8.59,1
3265,49.53,-9.25,-29.05,1
3266,49.54,-18.16,-60.53,1
3267,49.56,6.35,16.64,1
3268,49.57,4.82,2.63,1
3269,49.59,3.67,-40.25,1
3270,49.6,31.36,10.24,1
3271,49.61,16.99,-8.17,1
3272,49.63,-9.5,-27.37,1
3273,49.64,1.15,49.36,1
3274,49.65,-9.37,31.26,1
3275,49.67,-16.58,-17.23,1
3276,49.68,12.65,25.18,1
3277,49.69,4.77,-9.9,1
3278,49.7,-14.07,-53.74,1
3279,49.72,10.7,10.13,1
3280,49.73,14.88,-0.56,1
3281,49.74,3.78,-36.31,1
3282,49.76,17.04,15.58,1
3283,49.77,2.87,-9.42,1
3284,49.78,-19.13,-39.25,1
3285,49.8,-6.7,38.14,1
3286,49.81,-8.54,25.34,1
3287,49.83,-7.62,-22.42,1
3288,49.84,17.18,33.63,1
3289,49.85,1.86,17.24,1
3290,49.87,-15.19,-30.28,1
3291,49.88,9.19,22.49,1
3292,49.89,0.64,11.8,1
3293,49.9,-19.33,-25.28,1
3294,49.92,-3.34,26.7,1
3295,49.93,-11.15,6.48,1
3296,49.95,-23.51,-33.79,1
3297,49.96,-5.2,27.31,1
3298,49.97,-13.01,14.04,1
3299,49.99,-21.77,-32.84,1
3300,50.0,-0.66,27.36,1
3301,50.01,-7.77,33.73,1
3302,50.03,-13.33,-4.85,1
3303,50.04,10.65,23.6,1
3304,50.05,-1.68,-8.75,1
3305,50.06,-14.77,-40.72,1
3306,50.08,14.71,35.96,1
3307,50.09,18.37,36.06,1
3308,50.11,6.71,-14.94,1
3309,50.12,10.01,23.8,1
3310,50.13,-17.87,15.55,1
3311,50.15,-27.7,-14.91,1
3312,50.16,22.13,45.59,0
3313,50.17,39.08,44.38,0
3314,50.19,17.0,-8.41,0
3315,50.2,9.42,-8.53,0
3316,50.21,-6.39,-77.79,0
3317,50.22,6.11,-154.44,0
3318,50.24,57.16,-129.86,0
3319,50.25,52.1,-164.29,0
3320,50.27,17.67,-202.34,0
3321,50.28,11.77,-112.24,0
3322,50.29,-7.73,-80.75,0
3323,50.31,-10.46,-104.71,0
3324,50.32,12.73,-34.81,0
3325,50.33,-18.35,-12.13,0
3326,50.34,-48.44,-34.94,0
3327,50.36,-16.31,40.94,0
3328,50.37,-21.51,77.3,0
3329,50.38,-56.98,56.22,0
3330,50.4,-30.95,116.37,0
3331,50.41,-3.04,140.42,0
3332,50.42,-6.85,109.09,0
3333,50.44,0.21,148.01,0
3334,50.45,-7.32,152.51,0
3335,50.46,-13.98,109.5,0
3336,50.48,9.41,135.11,0
3337,50.49,15.34,136.39,0
3338,50.51,13.93,112.43,0
3339,50.52,19.73,155.64,0
3340,50.53,-5.93,142.83,0
3341,50.54,-5.38,82.66,0
3342,50.56,38.06,110.43,1
3343,50.57,16.79,117.05,1
3344,50.59,-30.76,76.46,1
3345,50.6,-14.05,98.55,1
3346,50.61,-0.68,84.45,1
3347,50.63,-4.83,26.41,1
3348,50.64,16.93,46.12,1
3349,50.65,13.06,43.08,1
3350,50.67,-10.53,-2.29,1
3351,50.68,-10.13,30.38,1
3352,50.69,-20.69,39.97,1
3353,50.71,-14.68,-5.17,1
3354,50.72,29.18,16.89,1
3355,50.73,22.83,17.77,1
3356,50.75,-13.99,-32.36,1
3357,50.76,-3.81,-11.0,1
3358,50.77,0.94,-4.58,1
3359,50.79,-9.28,-47.92,1
3360,50.8,8.5,-19.67,1
3361,50.81,9.15,-4.48,1
3362,50.83,0.7,-45.85,1
3363,50.84,21.85,-24.78,1
3364,50.85,16.82,-15.46,1
3365,50.87,-5.81,-61.11,1
3366,50.88,1.39,-41.7,1
3367,50.89,-8.79,-23.25,1
3368,50.9,-22.48,-58.4,1
3369,50.92,4.6,-38.47,1
3370,50.93,12.4,-19.39,1
3371,50.95,-3.0,-49.57,1
3372,50.96,3.49,-32.19,1
3373,50.97,-3.98,-24.86,1
3374,50.98,-18.49,-59.59,1
3375,51.0,-6.06,-28.65,1
3376,51.01,-6.5,-11.97,1
3377,51.02,-11.63,-65.53,1
3378,51.04,3.64,-54.97,1
3379,51.05,-6.85,-26.16,1
3380,51.06,-19.51,-49.67,1
3381,51.08,6.07,-23.56,1
3382,51.09,7.32,-9.0,1
3383,51.1,-11.23,-68.0,1
3384,51.12,1.81,-60.76,1
3385,51.13,5.88,-24.81,1
3386,51.15,0.38,-55.58,1
3387,51.16,10.61,-48.7,1
3388,51.17,-4.24,-27.21,1
3389,51.19,-17.88,-57.76,1
3390,51.2,6.21,-33.25,1
3391,51.21,9.27,1.15,1
3392,51.22,0.07,-36.82,1
3393,51.24,16.21,-24.77,1
3394,51.25,1.82,5.98,1
3395,51.27,-27.59,-34.67,1
3396,51.28,-9.34,-22.8,1
3397,51.29,5.37,13.43,1
3398,51.31,-6.87,-31.39,1
3399,51.32,-1.64,-32.79,1
3400,51.33,1.52,-0.02,1
3401,51.35,-3.5,-40.37,1
3402,51.36,5.73,-37.84,1
3403,51.37,1.88,2.82,1
3404,51.38,-0.01,-31.87,1
3405,51.4,25.57,-37.5,1
3406,51.41,25.6,-8.15,1
3407,51.43,4.65,-36.61,1
3408,51.44,8.58,-18.9,1
3409,51.45,1.81,23.04,1
3410,51.47,-8.32,-20.04,1
3411,51.48,16.76,-17.86,1
3412,51.49,17.91,28.34,1
3413,51.51,-11.88,-11.1,1
3414,51.52,-7.3,-17.72,1
3415,51.53,4.03,23.31,1
3416,51.54,2.35,-11.77,1
3417,51.56,16.9,-12.18,1
3418,51.57,12.79,29.03,1
3419,51.59,-9.66,-15.67,1
3420,51.6,-4.52,-25.7,1
3421,51.61,-3.78,21.27,1
3422,51.62,-10.85,-7.36,1
3423,51.64,15.02,-6.62,1
3424,51.65,27.59,39.49,1
3425,51.66,10.42,-0.7,1
3426,51.68,13.16,-9.04,1
3427,51.69,5.42,40.3,1
3428,51.7,-26.34,4.11,1
3429,51.72,-25.08,-7.97,1
3430,51.73,-6.57,35.68,1
3431,51.74,2.33,-3.17,1
3432,51.76,15.07,-8.66,1
3433,51.77,6.08,48.71,1
3434,51.79,-11.7,12.68,1
3435,51.8,3.83,-2.2,1
3436,51.81,12.78,48.48,1
3437,51.83,3.66,6.28,1
3438,51.84,15.31,-17.04,1
3439,51.85,17.33,31.44,1
3440,51.87,0.75,-7.74,1
3441,51.88,3.78,-24.12,1
3442,51.89,-3.39,37.85,1
3443,51.9,-29.27,8.16,1
3444,51.92,-23.53,-11.99,1
3445,51.93,-2.48,42.89,1
3446,51.95,8.21,11.85,1
3447,51.96,21.18,-6.5,1
3448,51.97,11.59,52.39,1
3449,51.99,-13.38,24.2,1
3450,52.0,-8.37,-0.35,1
3451,52.01,-2.19,46.76,1
3452,52.03,-12.83,16.88,1
3453,52.04,-8.51,4.48,1
3454,52.05,-10.88,57.05,1
3455,52.06,-19.85,12.46,1
3456,52.08,-0.25,-11.26,1
3457,52.09,7.02,50.61,1
3458,52.11,-7.53,8.55,1
3459,52.12,2.37,-31.63,1
3460,52.13,4.03,35.37,1
3461,52.15,-11.39,49.79,1
3462,52.16,6.33,92.58,2
3463,52.17,20.49,206.86,2
3464,52.19,2.5,183.05,2
3465,52.2,2.74,137.9,2
3466,52.21,10.1,198.32,2
3467,52.22,-5.91,157.61,2
3468,52.24,-19.61,67.11,2
3469,52.25,-34.73,52.72,2
3470,52.26,-43.64,-16.96,2
3471,52.28,-11.82,-71.28,2
3472,52.29,11.98,-50.56,2
3473,52.3,-6.6,-114.88,2
3474,52.32,-12.16,-148.41,2
3475,52.33,-2.9,-75.62,2
3476,52.34,-5.17,-104.62,2
3477,52.36,3.71,-141.17,2
3478,52.37,7.24,-75.54,2
3479,52.38,-3.86,-96.39,2
3480,52.4,4.96,-127.58,2
3481,52.41,6.13,-61.34,2
3482,52.43,-8.38,-74.97,2
3483,52.44,9.14,-99.61,2
3484,52.45,22.1,-37.54,2
3485,52.47,2.87,-58.24,2
3486,52.48,6.55,-77.34,2
3487,52.49,18.03,-0.68,2
3488,52.51,8.45,-23.84,2
3489,52.52,10.99,-70.93,2
3490,52.53,3.12,-19.27,2
3491,52.54,-19.83,-40.32,2
3492,52.56,0.93,-69.81,1
3493,52.57,23.46,-5.02,1
3494,52.59,1.13,-17.05,1
3495,52.6,-3.18,-38.43,1
3496,52.61,9.63,22.34,1
3497,52.63,2.39,-12.41,1
3498,52.64,12.69,-52.85,1
3499,52.65,26.4,15.47,1
3500,52.67,10.77,0.49,1
3501,52.68,5.79,-32.07,1
3502,52.69,2.86,37.93,1
3503,52.71,-17.77,28.12,1
3504,52.72,-12.55,-10.63,1
3505,52.73,0.09,32.93,1
3506,52.75,-8.74,-1.35,1
3507,52.76,2.52,-33.29,1
3508,52.77,14.0,47.59,1
3509,52.79,-4.06,36.91,1
3510,52.8,-0.56,-15.3,1
3511,52.81,12.28,34.94,1
3512,52.83,-1.55,24.73,1
3513,52.84,-2.27,-10.27,1
3514,52.85,-7.37,38.7,1
3515,52.87,-39.67,16.53,1
3516,52.88,-30.69,-9.36,1
3517,52.89,7.87,64.12,1
3518,52.9,13.46,41.52,1
3519,52.92,14.45,-18.96,1
3520,52.93,12.13,31.07,1
3521,52.94,-10.73,27.11,1
3522,52.96,-7.31,-0.72,1
3523,52.97,2.62,56.37,1
3524,52.98,-19.11,31.46,1
3525,53.0,-14.21,-16.22,1
3526,53.01,13.11,46.1,1
3527,53.02,6.37,40.3,1
3528,53.04,-1.39,-4.33,1
3529,53.05,-1.97,43.6,1
3530,53.06,-16.37,33.05,1
3531,53.08,-2.43,-1.11,1
3532,53.09,23.0,51.06,1
3533,53.11,13.76,32.42,1
3534,53.12,6.44,-11.58,1
3535,53.13,-3.42,36.75,1
3536,53.15,-37.22,18.48,1
3537,53.16,-36.83,-24.77,1
3538,53.17,-9.32,33.67,1
3539,53.19,-4.08,32.66,1
3540,53.2,14.2,-7.94,1
3541,53.21,36.83,39.04,1
3542,53.22,15.11,29.72,1
3543,53.24,-6.63,-14.45,1
3544,53.25,-9.41,31.63,1
3545,53.27,-23.34,29.71,1
3546,53.28,-12.98,-7.55,1
3547,53.29,16.01,30.57,1
3548,53.31,15.9,13.84,1
3549,53.32,18.42,-23.75,1
3550,53.33,16.4,31.99,1
3551,53.35,-19.68,25.96,1
3552,53.36,-24.66,-23.68,1
3553,53.37,-1.59,21.55,1
3554,53.38,-6.98,19.93,1
3555,53.4,4.8,-32.47,1
3556,53.41,28.06,2.74,1
3557,53.43,4.44,6.96,1
3558,53.44,-14.19,-27.53,1
3559,53.45,-5.41,19.62,1
3560,53.47,-10.33,27.23,1
3561,53.48,2.74,-17.29,1
3562,53.49,27.3,2.65,1
3563,53.51,15.51,-9.46,1
3564,53.52,9.64,-42.25,1
3565,53.53,10.87,6.89,1
3566,53.54,-18.55,12.69,1
3567,53.56,-17.29,-18.45,1
3568,53.57,13.97,28.01,1
3569,53.58,4.18,21.72,1
3570,53.6,-3.75,-34.29,1
3571,53.61,7.5,-0.39,1
3572,53.62,-13.1,4.4,1
3573,53.64,-20.27,-44.62,1
3574,53.65,5.97,-15.43,1
3575,53.66,6.96,-2.3,1
3576,53.68,0.66,-31.44,1
3577,53.69,3.11,5.27,1
3578,53.7,-9.55,9.16,1
3579,53.72,-2.11,-33.33,1
3580,53.73,9.28,-2.59,1
3581,53.75,-18.59,3.24,1
3582,53.76,-18.05,-36.67,1
3583,53.77,12.19,-5.54,1
3584,53.79,-0.63,1.04,1
3585,53.8,-4.38,-40.1,1
3586,53.81,19.12,-9.92,1
3587,53.83,2.93,1.92,1
3588,53.84,-7.77,-33.33,1
3589,53.85,10.75,-1.31,1
3590,53.87,-3.54,7.26,1
3591,53.88,-11.76,-36.39,1
3592,53.89,10.33,-5.07,1
3593,53.9,2.37,17.64,1
3594,53.92,-11.81,-13.78,1
3595,53.93,-12.88,14.66,1
3596,53.95,-27.83,19.3,1
3597,53.96,-9.97,-38.21,1
3598,53.97,24.99,-15.85,1
3599,53.99,8.12,14.72,1
3600,54.0,1.34,-21.17,1
3601,54.01,24.74,-4.55,1
3602,54.03,5.88,16.85,1
3603,54.04,-10.35,-16.44,1
3604,54.05,8.12,1.23,1
3605,54.06,0.57,14.36,1
3606,54.08,-6.68,-28.0,1
3607,54.09,4.67,-8.24,1
3608,54.11,-8.74,16.0,1
3609,54.12,-10.41,-18.54,1
3610,54.13,3.46,12.77,1
3611,54.15,-18.1,52.87,1
3612,54.16,-24.22,18.91,2
3613,54.17,-0.11,48.14,2
3614,54.18,-4.33,88.92,2
3615,54.2,3.15,47.04,2
3616,54.21,37.86,96.18,2
3617,54.22,43.44,176.08,2
3618,54.24,49.46,153.07,2
3619,54.25,62.93,193.31,2
3620,54.26,32.5,219.85,2
3621,54.28,3.86,141.63,2
3622,54.29,-9.11,207.69,2
3623,54.3,-58.94,341.61,2
3624,54.32,-70.01,280.26,2
3625,54.33,-8.22,153.12,2
3626,54.34,23.2,132.8,2
3627,54.36,40.67,139.71,2
3628,54.37,63.91,97.79,2
3629,54.38,5.08,50.71,2
3630,54.4,-64.46,30.38,2
3631,54.41,-37.16,13.6,2
3632,54.43,27.12,-13.07,2
3633,54.44,67.56,-37.46,2
3634,54.45,36.71,-53.91,2
3635,54.47,-52.47,-69.52,2
3636,54.48,-67.89,-87.36,2
3637,54.49,-11.16,-103.14,2
3638,54.51,5.04,-114.75,2
3639,54.52,-8.46,-124.77,2
3640,54.53,-29.11,-135.02,2
3641,54.54,-58.96,-144.46,2
3642,54.56,-32.26,-152.14,1
3643,54.57,10.36,-158.21,1
3644,54.59,-17.43,-183.24,1
3645,54.6,-25.47,-243.84,1
3646,54.61,4.44,-303.6,1
3647,54.63,-15.32,-335.4,1
3648,54.64,-6.26,-298.23,1
3649,54.65,35.49,-157.38,1
3650,54.67,-17.59,-55.15,1
3651,54.68,-63.14,-97.59,1
3652,54.69,13.04,-164.25,1
3653,54.71,74.51,-186.39,1
3654,54.72,53.03,-202.09,1
3655,54.73,13.18,-215.79,1
3656,54.75,-23.57,-280.27,1
3657,54.76,-21.4,-393.86,1
3658,54.77,6.15,-347.45,1
3659,54.79,-12.28,-145.88,1
3660,54.8,-24.47,-95.89,1
3661,54.81,2.64,-159.93,1
3662,54.82,-1.47,-134.41,1
3663,54.84,-4.08,-130.53,1
3664,54.85,16.72,-153.7,1
3665,54.86,-1.4,-92.04,1
3666,54.88,-9.12,-48.62,1
3667,54.89,12.88,-65.04,1
3668,54.9,-6.72,-117.81,1
3669,54.92,-15.65,-190.35,1
3670,54.93,9.16,-121.86,1
3671,54.94,-7.65,-10.92,1
3672,54.96,-16.21,-118.54,1
3673,54.97,10.4,-239.54,1
3674,54.98,-3.86,-179.9,1
3675,55.0,-4.18,-114.91,1
3676,55.01,35.12,-73.4,1
3677,55.025000000000006,7.64,-36.25,1
3678,55.04,-30.16,-63.86,1
3679,55.05,0.32,-0.95,1
3680,55.06,6.67,151.78,1
3681,55.08,-2.09,133.57,1
3682,55.09,27.86,56.2,1
3683,55.11,26.97,101.55,1
3684,55.12,10.12,92.99,1
3685,55.13,21.27,50.96,1
3686,55.15,9.88,84.49,1
3687,55.16,-0.14,60.36,1
3688,55.17,8.83,59.96,1
3689,55.19,-13.7,156.2,1
3690,55.2,-15.24,139.05,1
3691,55.21,15.48,78.93,1
3692,55.22,1.29,120.55,1
3693,55.24,-0.71,143.09,1
3694,55.25,38.5,175.0,1
3695,55.27,28.04,210.94,1
3696,55.28,8.67,119.87,1
3697,55.29,28.09,83.09,1
3698,55.31,9.21,179.49,1
3699,55.32,-20.73,205.26,1
3700,55.33,-11.0,224.84,1
3701,55.35,-13.17,283.38,1
3702,55.36,-1.69,218.3,1
3703,55.37,33.25,156.85,1
3704,55.38,12.6,201.96,1
3705,55.4,-11.35,168.31,1
3706,55.41,14.39,128.38,1
3707,55.43,7.88,201.76,1
3708,55.44,-9.07,218.22,1
3709,55.45,10.15,198.94,1
3710,55.46,-2.69,214.83,1
3711,55.48,-11.82,151.37,1
3712,55.49,28.47,123.29,1
3713,55.5,21.36,172.69,1
3714,55.52,-16.39,108.82,1
3715,55.53,-6.55,82.23,1
3716,55.54,-5.24,169.48,1
3717,55.56,-10.5,111.04,1
3718,55.57,8.25,64.17,1
3719,55.58,-5.83,186.59,1
3720,55.6,-6.32,154.34,1
3721,55.61,43.77,18.7,1
3722,55.62,42.04,53.7,1
3723,55.64,6.59,74.48,1
3724,55.65,1.7,6.39,1
3725,55.66,-21.18,28.18,1
3726,55.68,-30.59,84.05,1
3727,55.69,-0.26,109.32,1
3728,55.71,-11.57,101.67,1
3729,55.72,-32.39,-4.8,1
3730,55.73,-16.06,-33.27,1
3731,55.75,-23.84,100.96,1
3732,55.76,-23.22,101.93,1
3733,55.77,10.78,-6.75,1
3734,55.79,0.6,-2.38,1
3735,55.8,-8.93,-6.49,1
3736,55.81,18.79,1.9,1
3737,55.83,2.06,110.73,1
3738,55.84,-15.63,93.24,1
3739,55.85,5.4,-9.84,1
3740,55.87,-11.76,1.63,1
3741,55.88,-16.54,14.4,1
3742,55.89,27.51,23.64,1
3743,55.9,14.78,48.76,1
3744,55.92,-16.84,-50.47,1
3745,55.93,9.01,-126.72,1
3746,55.95,9.03,-109.76,1
3747,55.96,-15.35,-197.63,1
3748,55.97,-6.27,-192.39,1
3749,55.99,-20.39,39.45,1
3750,56.0,-46.39,126.31,1
3751,56.01,-32.66,54.47,1
3752,56.03,-17.99,48.86,1
3753,56.04,9.14,-35.47,1
3754,56.05,40.64,-156.53,1
3755,56.06,1.45,-108.55,1
3756,56.08,-28.54,-34.53,1
3757,56.09,19.41,-28.97,1
3758,56.1,32.47,-46.22,1
3759,56.12,1.96,-109.67,1
3760,56.13,-5.0,-73.51,1
3761,56.14,-21.33,72.88,1
3762,56.16,-22.91,59.72,0
3763,56.17,5.73,-39.27,0
3764,56.18,-10.45,-26.52,0
3765,56.2,-24.53,-28.53,0
3766,56.21,6.46,-48.77,0
3767,56.22,-12.64,-8.74,0
3768,56.24,-52.56,-56.99,0
3769,56.25,-31.92,-148.13,0
3770,56.26,-9.08,-148.87,0
3771,56.28,6.49,-209.98,0
3772,56.29,28.94,-303.79,0
3773,56.3,5.59,-280.01,0
3774,56.32,-7.21,-279.28,0
3775,56.33,30.87,-303.05,0
3776,56.35,29.97,-225.75,0
3777,56.36,18.8,-173.99,0
3778,56.37,43.78,-144.85,0
3779,56.38,18.2,-46.67,0
3780,56.4,-18.75,-27.33,0
3781,56.41,6.02,-54.56,0
3782,56.43,6.25,8.45,0
3783,56.44,-15.7,20.64,0
3784,56.45,-1.76,-12.46,0
3785,56.47,-8.46,37.74,0
3786,56.48,-14.64,35.51,0
3787,56.49,14.28,-17.71,0
3788,56.51,-0.52,18.67,0
3789,56.52,-24.22,28.71,0
3790,56.53,3.17,-0.1,0
3791,56.54,3.71,45.89,0
3792,56.56,-9.9,49.89,1
3793,56.57,12.06,14.49,1
3794,56.59,6.1,57.25,1
3795,56.6,-5.19,52.26,1
3796,56.61,19.44,-1.65,1
3797,56.63,9.72,25.32,1
3798,56.64,-10.69,19.33,1
3799,56.65,3.67,-22.78,1
3800,56.67,-5.92,22.55,1
3801,56.68,-8.55,33.59,1
3802,56.69,30.2,-6.37,1
3803,56.71,25.9,28.71,1
3804,56.72,-3.32,39.4,1
3805,56.73,3.68,14.81,1
3806,56.74,-5.54,61.43,1
3807,56.76,-20.97,61.9,1
3808,56.77,-5.89,18.19,1
3809,56.78,-13.67,68.95,1
3810,56.8,-19.47,82.51,1
3811,56.81,9.32,15.7,1
3812,56.82,-1.04,30.44,1
3813,56.84,-22.46,50.81,1
3814,56.85,-0.36,13.63,1
3815,56.86,-4.67,27.72,1
3816,56.88,-17.77,27.16,1
3817,56.89,10.69,-12.59,1
3818,56.9,4.04,16.06,1
3819,56.92,-27.2,23.99,1
3820,56.93,-12.43,-14.91,1
3821,56.94,-1.66,18.39,1
3822,56.96,-4.18,30.67,1
3823,56.97,6.85,-14.8,1
3824,56.99,-14.25,13.66,1
3825,57.0,-25.52,33.39,1
3826,57.01,18.85,-14.65,1
3827,57.03,25.17,-5.1,1
3828,57.04,-1.97,10.31,1
3829,57.05,21.42,-15.87,1
3830,57.06,35.55,16.77,1
3831,57.08,4.25,28.79,1
3832,57.09,-14.57,-22.63,1
3833,57.11,-19.13,0.95,1
3834,57.12,-1.27,27.52,1
3835,57.13,31.86,-24.5,1
3836,57.15,15.49,-13.34,1
3837,57.16,-4.1,33.07,1
3838,57.17,25.98,12.77,1
3839,57.19,25.9,4.42,1
3840,57.2,-4.91,-6.44,1
3841,57.21,-8.38,-40.94,1
3842,57.22,-18.55,-3.06,1
3843,57.24,-15.06,12.63,1
3844,57.25,32.37,-55.99,1
3845,57.27,38.55,-43.43,1
3846,57.28,7.47,9.68,1
3847,57.29,11.96,-11.63,1
3848,57.31,8.38,-4.31,1
3849,57.32,-13.42,4.93,1
3850,57.33,-8.21,-50.85,1
3851,57.35,-7.4,-38.2,1
3852,57.36,-10.41,6.82,1
3853,57.37,-3.22,-28.54,1
3854,57.38,-27.9,-34.0,1
3855,57.4,-37.83,-12.13,1
3856,57.41,6.82,-33.78,1
3857,57.42,16.94,0.5,1
3858,57.44,-4.76,28.93,1
3859,57.45,7.41,-44.02,1
3860,57.46,4.44,-53.69,1
3861,57.48,-14.63,0.68,1
3862,57.49,1.51,-19.08,1
3863,57.5,7.95,-19.58,1
3864,57.52,-1.94,6.3,1
3865,57.53,9.7,-27.79,1
3866,57.54,4.18,-7.27,1
3867,57.56,-11.58,44.94,1
3868,57.57,1.19,-0.65,1
3869,57.58,-4.37,-28.46,1
3870,57.6,-23.13,-9.51,1
3871,57.61,-4.17,-28.46,1
3872,57.63,15.42,6.85,1
3873,57.64,20.93,46.89,1
3874,57.65,30.72,-28.42,1
3875,57.67,9.73,-51.27,1
3876,57.68,-18.55,11.68,1
3877,57.69,-11.05,3.7,1
3878,57.71,-13.57,4.15,1
3879,57.72,-20.87,24.29,1
3880,57.73,3.5,-45.02,1
3881,57.75,9.93,-58.19,1
3882,57.76,0.98,14.98,1
3883,57.77,15.63,5.49,1
3884,57.79,4.26,-8.73,1
3885,57.8,-22.83,12.12,1
3886,57.81,-7.89,-33.44,1
3887,57.83,4.05,-29.79,1
3888,57.84,4.2,31.2,1
3889,57.85,26.44,-1.71,1
3890,57.87,19.01,-17.49,1
3891,57.88,-6.79,19.41,1
3892,57.89,11.56,-25.47,1
3893,57.9,24.98,-36.31,1
3894,57.92,12.17,20.38,1
3895,57.93,10.13,-6.54,1
3896,57.95,-9.52,-15.5,1
3897,57.96,-33.55,30.05,1
3898,57.97,-22.62,-9.5,1
3899,57.99,-23.65,-20.36,1
3900,58.0,-28.92,30.65,1
3901,58.01,11.59,-9.73,1
3902,58.02,37.74,-21.1,1
3903,58.04,17.8,37.38,1
3904,58.05,3.44,-5.2,1
3905,58.06,-16.82,-30.93,1
3906,58.08,-42.69,28.51,1
3907,58.09,-23.72,7.31,1
3908,58.1,8.72,-3.63,1
3909,58.12,17.48,46.23,1
3910,58.13,19.67,-1.07,1
3911,58.14,1.81,-21.7,1
3912,58.16,-14.87,48.81,0
3913,58.17,3.73,0.07,0
3914,58.18,0.44,-80.29,0
3915,58.2,-22.74,-71.43,0
3916,58.21,-1.8,-112.68,0
3917,58.22,14.18,-126.55,0
3918,58.24,6.28,-67.9,0
3919,58.25,33.64,-118.21,0
3920,58.26,41.42,-157.8,0
3921,58.28,-0.68,-83.69,0
3922,58.29,-1.99,-81.68,0
3923,58.31,28.78,-80.42,0
3924,58.32,32.81,5.1,0
3925,58.33,27.06,12.15,0
3926,58.35,8.37,20.61,0
3927,58.36,-8.06,95.12,0
3928,58.37,5.42,71.48,0
3929,58.38,-10.17,59.21,0
3930,58.4,-50.08,136.41,0
3931,58.41,-34.36,115.75,0
3932,58.43,-9.94,89.34,0
3933,58.44,-27.32,153.39,0
3934,58.45,-25.49,135.25,0
3935,58.47,-9.17,113.36,0
3936,58.48,-13.25,166.65,0
3937,58.49,0.08,124.29,0
3938,58.51,22.81,93.01,0
3939,58.52,21.74,165.75,0
3940,58.53,19.1,138.59,0
3941,58.54,13.2,91.88,0
3942,58.56,-1.83,139.19,1
3943,58.57,-5.33,98.23,1
3944,58.59,-16.15,45.56,1
3945,58.6,-27.48,92.94,1
3946,58.61,-2.05,59.39,1
3947,58.63,11.67,14.46,1
3948,58.64,-11.2,67.58,1
3949,58.65,-9.11,39.49,1
3950,58.66,-0.28,-4.82,1
3951,58.68,-17.03,42.21,1
3952,58.69,-13.59,7.93,1
3953,58.7,-3.26,-33.4,1
3954,58.72,-4.05,25.06,1
3955,58.73,18.28,-0.11,1
3956,58.74,17.53,-39.25,1
3957,58.76,-24.08,17.68,1
3958,58.77,-27.78,-8.79,1
3959,58.78,-10.26,-44.76,1
3960,58.8,-15.03,21.79,1
3961,58.81,-0.69,-0.33,1
3962,58.82,15.23,-51.19,1
3963,58.84,1.8,-5.18,1
3964,58.85,0.5,-28.58,1
3965,58.86,2.24,-63.6,1
3966,58.88,-3.27,-4.94,1
3967,58.89,18.83,-26.91,1
3968,58.9,24.07,-62.94,1
3969,58.92,-8.68,-4.31,1
3970,58.93,-8.53,-37.0,1
3971,58.95,7.44,-89.83,1
3972,58.96,-5.31,-27.64,1
3973,58.97,0.31,-36.37,1
3974,58.99,18.94,-79.33,1
3975,59.0,12.72,-29.62,1
3976,59.01,12.79,-43.65,1
3977,59.03,9.59,-75.51,1
3978,59.04,-14.35,-18.5,1
3979,59.05,-11.02,-39.59,1
3980,59.06,3.1,-78.33,1
3981,59.08,-4.85,-12.46,1
3982,59.09,5.3,-23.28,1
3983,59.11,14.63,-70.13,1
3984,59.12,-5.04,-20.47,1
3985,59.13,1.06,-32.44,1
3986,59.15,18.56,-62.48,1
3987,59.16,-0.97,2.4,1
3988,59.17,-12.22,-15.32,1
3989,59.19,-5.25,-70.45,1
3990,59.2,-7.62,-22.18,1
3991,59.21,9.57,-27.68,1
3992,59.22,24.34,-62.46,1
3993,59.24,3.68,-12.41,1
3994,59.25,2.95,-28.68,1
3995,59.27,17.15,-66.62,1
3996,59.28,-3.71,-4.18,1
3997,59.29,-23.04,-8.57,1
3998,59.3,-25.53,-55.82,1
3999,59.32,-22.05,-10.55,1
4000,59.33,14.42,-13.25,1
4001,59.34,35.56,-44.02,1
4002,59.36,0.09,9.83,1
4003,59.37,-14.92,-3.99,1
4004,59.38,-4.39,-52.6,1
4005,59.4,-15.76,2.63,1
4006,59.41,-6.07,8.33,1
4007,59.42,8.93,-35.87,1
4008,59.44,-13.7,1.93,1
4009,59.45,-7.93,-0.37,1
4010,59.46,21.46,-31.71,1
4011,59.48,8.69,17.02,1
4012,59.49,-0.07,9.7,1
4013,59.5,7.96,-34.59,1
4014,59.52,-8.89,9.28,1
4015,59.53,-2.9,12.95,1
4016,59.54,20.67,-20.13,1
4017,59.56,-0.21,19.96,1
4018,59.57,-13.61,13.13,1
4019,59.59,3.74,-22.56,1
4020,59.6,1.87,21.84,1
4021,59.61,7.54,9.05,1
4022,59.63,12.44,-42.16,1
4023,59.64,-20.61,6.94,1
4024,59.65,-19.68,20.63,1
4025,59.67,15.13,-23.85,1
4026,59.68,4.57,3.44,1
4027,59.69,-6.21,6.65,1
4028,59.71,5.66,-22.47,1
4029,59.72,-13.08,23.51,1
4030,59.73,-19.55,29.81,1
4031,59.75,4.91,-14.84,1
4032,59.76,4.48,13.84,1
4033,59.77,1.94,18.42,1
4034,59.79,8.31,-18.96,1
4035,59.8,-5.72,15.57,1
4036,59.81,-0.24,29.12,1
4037,59.83,14.16,4.77,1
4038,59.84,-4.93,41.35,1
4039,59.85,2.01,36.25,1
4040,59.87,25.91,-11.53,1
4041,59.88,2.11,22.23,1
4042,59.89,-6.76,32.06,1
4043,59.9,13.29,-9.42,1
4044,59.92,-1.99,21.41,1
4045,59.93,-5.39,36.91,1
4046,59.94,16.35,3.65,1
4047,59.96,2.47,32.02,1
4048,59.97,-4.19,36.05,1
4049,59.98,10.52,-10.06,1
4050,60.0,-10.86,14.46,1
4051,60.01,-19.56,26.82,1
4052,60.02,10.28,-7.16,1
4053,60.04,13.22,27.15,1
4054,60.05,5.74,38.16,1
4055,60.06,3.54,-12.88,1
4056,60.08,-22.79,10.11,1
4057,60.09,-20.77,33.41,1
4058,60.1,10.41,-3.08,1
4059,60.12,1.55,19.13,1
4060,60.13,-3.59,38.54,1
4061,60.14,15.86,5.2,1
4062,60.16,4.34,48.16,2
4063,60.17,-3.95,116.64,2
4064,60.18,2.51,139.76,2
4065,60.2,-13.97,202.34,2
4066,60.21,-2.09,230.86,2
4067,60.22,27.44,172.36,2
4068,60.24,4.01,143.69,2
4069,60.25,-13.7,96.28,2
4070,60.27,-3.85,13.95,2
4071,60.28,-29.79,31.55,2
4072,60.29,-44.89,35.66,2
4073,60.31,-24.82,-71.25,2
4074,60.32,-27.95,-118.01,2
4075,60.33,-18.09,-116.56,2
4076,60.35,16.6,-158.5,2
4077,60.36,14.13,-139.88,2
4078,60.37,10.55,-101.49,2
4079,60.38,22.32,-127.78,2
4080,60.4,1.47,-106.46,2
4081,60.41,-5.81,-70.48,2
4082,60.43,11.27,-102.98,2
4083,60.44,-2.54,-91.67,2
4084,60.45,0.02,-63.02,2
4085,60.47,24.62,-90.83,2
4086,60.48,3.12,-58.28,2
4087,60.49,-9.11,-11.29,2
4088,60.51,16.96,-50.53,2
4089,60.52,14.7,-44.82,2
4090,60.53,18.45,-8.52,2
4091,60.54,36.72,-51.41,2
4092,60.56,3.51,-51.46,1
4093,60.57,-18.78,-7.39,1
4094,60.58,1.9,-36.19,1
4095,60.6,-5.4,-36.91,1
4096,60.61,-1.47,-0.21,1
4097,60.62,27.38,-24.07,1
4098,60.64,6.67,-9.12,1
4099,60.65,-13.99,27.29,1
4100,60.66,3.58,-27.18,1
4101,60.68,-5.24,-35.31,1
4102,60.69,-12.4,17.24,1
4103,60.7,0.55,-9.78,1
4104,60.72,-18.46,-11.39,1
4105,60.73,-21.42,30.69,1
4106,60.74,5.85,-8.23,1
4107,60.76,-3.86,-7.45,1
4108,60.77,-5.42,52.77,1
4109,60.78,16.64,21.1,1
4110,60.8,-4.1,-2.87,1
4111,60.81,-16.72,24.95,1
4112,60.82,-1.65,-6.43,1
4113,60.84,-21.85,0.09,1
4114,60.85,-13.02,48.73,1
4115,60.86,35.63,7.39,1
4116,60.88,17.28,0.24,1
4117,60.89,-13.56,55.05,1
4118,60.9,4.5,15.5,1
4119,60.92,-3.68,-6.49,1
4120,60.93,-14.67,40.76,1
4121,60.95,4.39,9.75,1
4122,60.96,-6.27,-0.05,1
4123,60.97,-7.62,56.2,1
4124,60.99,21.52,28.13,1
4125,61.0,5.6,10.87,1
4126,61.01,-12.96,49.93,1
4127,61.03,6.95,8.3,1
4128,61.04,0.92,-3.16,1
4129,61.05,-0.71,54.3,1
4130,61.06,23.21,22.87,1
4131,61.08,3.17,6.83,1
4132,61.09,-17.57,51.18,1
4133,61.11,-1.18,11.08,1
4134,61.12,-9.19,5.69,1
4135,61.13,-8.82,70.58,1
4136,61.15,15.06,27.08,1
4137,61.16,-1.92,-9.11,1
4138,61.17,-7.59,36.8,1
4139,61.19,18.93,6.15,1
4140,61.2,-2.71,-5.68,1
4141,61.21,-23.71,51.38,1
4142,61.22,0.72,15.12,1
4143,61.24,0.4,-3.9,1
4144,61.25,-4.63,50.86,1
4145,61.26,5.56,6.98,1
4146,61.28,-14.69,-17.91,1
4147,61.29,-8.79,46.25,1
4148,61.3,26.59,10.51,1
4149,61.32,0.6,-22.25,1
4150,61.33,-25.04,36.35,1
4151,61.34,-0.88,8.34,1
4152,61.36,-10.71,-17.73,1
4153,61.37,-26.34,38.66,1
4154,61.38,-5.01,4.68,1
4155,61.4,-6.01,-24.38,1
4156,61.41,-0.69,34.92,1
4157,61.42,23.4,1.13,1
4158,61.44,-4.34,-37.13,1
4159,61.45,-27.79,16.79,1
4160,61.46,-5.16,-6.29,1
4161,61.48,-9.19,-26.84,1
4162,61.49,-7.51,32.54,1
4163,61.5,25.35,-0.46,1
4164,61.52,13.62,-30.98,1
4165,61.53,-2.58,26.15,1
4166,61.54,15.28,-8.14,1
4167,61.56,-0.46,-36.08,1
4168,61.57,-7.6,34.42,1
4169,61.59,24.47,9.61,1
4170,61.6,12.01,-28.8,1
4171,61.61,-5.18,21.3,1
4172,61.63,19.85,-18.24,1
4173,61.64,9.39,-57.59,1
4174,61.65,-7.14,14.26,1
4175,61.67,16.04,7.14,1
4176,61.68,6.97,-21.49,1
4177,61.69,-9.63,33.58,1
4178,61.71,6.06,5.3,1
4179,61.72,-10.42,-33.15,1
4180,61.73,-21.75,23.85,1
4181,61.75,13.27,4.51,1
4182,61.76,16.14,-27.35,1
4183,61.77,0.76,23.04,1
4184,61.79,5.2,-11.41,1
4185,61.8,-12.11,-44.53,1
4186,61.81,-11.45,23.38,1
4187,61.83,14.48,-1.89,1
4188,61.84,-8.75,-46.7,1
4189,61.85,-17.9,12.5,1
4190,61.86,25.32,-6.81,1
4191,61.88,24.82,-46.34,1
4192,61.89,8.51,12.43,1
4193,61.9,20.79,-4.69,1
4194,61.92,-3.73,-42.46,1
4195,61.93,-19.17,10.75,1
4196,61.94,13.61,-11.79,1
4197,61.96,5.06,-43.8,1
4198,61.97,-17.16,20.0,1
4199,61.98,0.34,-5.63,1
4200,62.0,-9.38,-52.5,1
4201,62.01,-23.57,8.92,1
4202,62.02,-4.63,-0.76,1
4203,62.04,-12.83,-33.54,1
4204,62.05,-11.37,26.08,1
4205,62.06,24.78,2.77,1
4206,62.08,9.65,-47.7,1
4207,62.09,-14.72,-1.33,1
4208,62.1,11.37,-20.87,1
4209,62.12,13.58,-45.88,1
4210,62.13,3.57,26.9,1
4211,62.14,20.24,5.4,1
4212,62.16,8.86,-41.48,2
4213,62.17,1.63,18.18,2
4214,62.19,22.87,-21.3,2
4215,62.2,-4.78,-87.65,2
4216,62.21,-34.69,7.18,2
4217,62.22,-9.62,51.33,2
4218,62.24,-4.68,53.08,2
4219,62.25,-7.07,197.56,2
4220,62.27,7.78,290.38,2
4221,62.28,-17.65,280.23,2
4222,62.29,-17.4,340.21,2
4223,62.31,36.63,354.57,2
4224,62.32,28.25,232.59,2
4225,62.33,-8.17,110.19,2
4226,62.35,8.91,55.55,2
4227,62.36,17.43,89.35,2
4228,62.37,10.3,164.4,2
4229,62.38,19.32,136.68,2
4230,62.4,-1.1,16.35,2
4231,62.41,-32.39,-92.39,2
4232,62.43,-19.92,-159.47,2
4233,62.44,-6.67,-137.34,2
4234,62.45,-19.75,-113.06,2
4235,62.47,-21.71,-212.76,2
4236,62.48,-15.32,-251.37,2
4237,62.49,-6.34,-190.06,2
4238,62.5,13.49,-230.94,2
4239,62.52,11.35,-229.1,2
4240,62.53,-4.66,-115.83,2
4241,62.54,-10.29,-144.46,2
4242,62.56,-30.88,-225.2,1
4243,62.57,-23.42,-176.57,1
4244,62.58,23.17,-187.29,1
4245,62.6,4.92,-254.45,1
4246,62.61,-39.26,-190.18,1
4247,62.62,-12.07,-168.0,1
4248,62.64,18.06,-235.55,1
4249,62.65,13.04,-171.8,1
4250,62.66,17.59,-87.37,1
4251,62.68,19.01,-89.53,1
4252,62.69,1.4,-46.46,1
4253,62.7,-28.41,-2.45,1
4254,62.72,-46.98,9.28,1
4255,62.73,-9.43,63.36,1
4256,62.74,37.61,75.88,1
4257,62.76,16.52,24.98,1
4258,62.77,-10.61,-22.56,1
4259,62.78,1.92,-84.76,1
4260,62.8,-6.9,-58.24,1
4261,62.81,-12.57,52.28,1
4262,62.83,16.21,21.13,1
4263,62.84,11.93,-34.13,1
4264,62.85,-3.44,51.33,1
4265,62.87,18.67,38.18,1
4266,62.88,18.58,-65.67,1
4267,62.89,-0.77,-34.31,1
4268,62.9,9.04,-10.82,1
4269,62.92,14.53,-41.16,1
4270,62.93,17.68,32.78,1
4271,62.95,25.7,62.75,1
4272,62.96,-12.42,1.46,1
4273,62.97,-45.57,36.46,1
4274,62.99,-16.09,46.38,1
4275,63.0,5.77,-51.98,1
4276,63.01,10.79,-51.05,1
4277,63.03,26.67,27.25,1
4278,63.04,6.45,42.79,1
4279,63.05,-17.29,42.71,1
4280,63.06,7.89,38.78,1
4281,63.08,18.41,21.53,1
4282,63.09,-2.52,26.31,1
4283,63.11,-13.99,-5.64,1
4284,63.12,-27.83,-30.6,1
4285,63.13,-23.08,54.85,1
4286,63.14,7.04,100.18,1
4287,63.16,-1.44,49.47,1
4288,63.17,-14.34,53.52,1
4289,63.18,22.68,62.66,1
4290,63.2,37.46,36.06,1
4291,63.21,20.76,59.31,1
4292,63.22,30.18,66.5,1
4293,63.24,18.52,45.23,1
4294,63.25,-19.44,78.28,1
4295,63.26,-13.52,90.92,1
4296,63.28,5.8,76.78,1
4297,63.29,7.06,117.17,1
4298,63.3,5.7,100.76,1
4299,63.32,-22.75,21.39,1
4300,63.33,-36.17,52.29,1
4301,63.34,4.99,87.15,1
4302,63.36,19.96,8.2,1
4303,63.37,-0.49,4.03,1
4304,63.38,-1.91,80.54,1
4305,63.4,-10.85,74.94,1
4306,63.41,-23.18,46.0,1
4307,63.42,-12.59,34.13,1
4308,63.44,-7.46,3.05,1
4309,63.45,10.9,21.43,1
4310,63.46,49.39,39.64,1
4311,63.48,37.9,-8.34,1
4312,63.49,-1.49,1.89,1
4313,63.51,-6.7,40.95,1
4314,63.52,-13.36,14.03,1
4315,63.53,-18.36,36.16,1
4316,63.54,4.01,83.73,1
4317,63.56,3.41,58.1,1
4318,63.57,-5.71,75.85,1
4319,63.59,11.4,103.52,1
4320,63.6,-0.48,8.21,1
4321,63.61,-25.08,-53.52,1
4322,63.63,-15.38,0.29,1
4323,63.64,-21.24,28.76,1
4324,63.65,-22.35,26.81,1
4325,63.67,21.46,1.18,1
4326,63.68,24.92,-59.0,1
4327,63.69,-3.21,-17.27,1
4328,63.71,15.37,70.72,1
4329,63.72,20.98,30.47,1
4330,63.73,-5.27,-1.72,1
4331,63.75,-7.77,58.05,1
4332,63.76,-10.5,74.01,1
4333,63.77,-5.93,54.57,1
4334,63.78,22.1,18.35,1
4335,63.8,5.76,-25.16,1
4336,63.81,-31.43,24.57,1
4337,63.82,-11.05,37.87,1
4338,63.84,19.16,-66.31,1
4339,63.85,9.2,-24.62,1
4340,63.86,-11.73,86.96,1
4341,63.88,-22.4,-18.75,1
4342,63.89,-2.27,-101.12,1
4343,63.9,37.87,0.37,1
4344,63.92,29.94,17.96,1
4345,63.93,-10.46,-46.39,1
4346,63.94,-10.48,-43.66,1
4347,63.96,1.53,-15.62,1
4348,63.97,-6.16,36.27,1
4349,63.98,-5.03,62.66,1
4350,64.0,-10.05,4.51,1
4351,64.01,-18.22,9.17,1
4352,64.02,5.46,76.57,1
4353,64.04,19.59,53.59,1
4354,64.05,0.88,24.62,1
4355,64.06,-10.79,10.22,1
4356,64.08,-15.58,-94.76,1
4357,64.09,-6.2,-98.76,1
4358,64.1,25.56,49.34,1
4359,64.12,27.18,24.64,1
4360,64.13,7.45,-122.51,1
4361,64.14,9.56,-105.31,1
4362,64.16,-6.69,-14.27,0
4363,64.17,-33.77,35.39,0
4364,64.18,-21.37,19.71,0
4365,64.2,-9.0,-89.31,0
4366,64.21,-2.75,-83.01,0
4367,64.22,20.38,39.61,0
4368,64.24,2.7,7.18,0
4369,64.25,-36.06,-48.01,0
4370,64.26,-25.89,15.6,0
4371,64.28,-8.79,18.74,0
4372,64.29,0.55,17.62,0
4373,64.3,28.5,71.6,0
4374,64.32,22.14,28.95,0
4375,64.33,-11.97,-8.5,0
4376,64.34,-3.57,11.75,0
4377,64.36,10.33,-80.62,0
4378,64.37,-5.13,-168.45,0
4379,64.38,-6.23,-169.63,0
4380,64.4,-1.12,-244.46,0
4381,64.41,-3.8,-287.18,0
4382,64.42,7.52,-234.0,0
4383,64.44,7.39,-258.8,0
4384,64.45,-3.7,-250.0,0
4385,64.46,6.51,-139.23,0
4386,64.48,1.17,-131.77,0
4387,64.49,-20.64,-133.61,0
4388,64.5,-10.11,-34.33,0
4389,64.52,2.76,-10.62,0
4390,64.53,7.62,4.66,0
4391,64.54,31.31,97.06,0
4392,64.56,24.15,90.98,1
4393,64.57,-12.38,59.5,1
4394,64.58,-17.16,100.75,1
4395,64.6,-20.19,66.91,1
4396,64.61,-27.28,47.8,1
4397,64.62,-0.48,114.78,1
4398,64.64,0.81,81.07,1
4399,64.65,-35.54,45.26,1
4400,64.66,-33.46,112.62,1
4401,64.68,-17.01,89.0,1
4402,64.69,-16.44,44.18,1
4403,64.7,6.39,88.29,1
4404,64.72,16.7,53.06,1
4405,64.73,-0.15,19.53,1
4406,64.74,15.05,91.47,1
4407,64.76,25.85,79.86,1
4408,64.77,0.3,46.96,1
4409,64.79,5.04,104.37,1
4410,64.8,23.25,77.95,1
4411,64.81,9.83,30.98,1
4412,64.82,9.39,78.83,1
4413,64.84,15.14,57.64,1
4414,64.85,-4.37,25.84,1
4415,64.86,-10.87,81.19,1
4416,64.88,0.31,56.9,1
4417,64.89,13.87,21.34,1
4418,64.9,29.55,73.41,1
4419,64.92,6.73,45.66,1
4420,64.93,-28.49,14.66,1
4421,64.94,-2.74,79.23,1
4422,64.96,22.91,51.83,1
4423,64.97,-1.86,0.92,1
4424,64.98,0.07,51.9,1
4425,65.0,21.73,37.74,1
4426,65.01,7.05,8.42,1
4427,65.02,-1.0,63.52,1
4428,65.04,5.83,35.12,1
4429,65.05,-3.66,-10.19,1
4430,65.06,-4.26,37.11,1
4431,65.08,-2.33,7.3,1
4432,65.09,-7.89,-31.81,1
4433,65.1,9.45,31.71,1
4434,65.12,13.83,17.4,1
4435,65.13,-11.25,-19.24,1
4436,65.14,-2.08,39.78,1
4437,65.16,14.53,20.35,1
4438,65.17,-7.14,-25.17,1
4439,65.18,-10.07,28.91,1
4440,65.2,0.38,11.94,1
4441,65.21,-12.29,-35.88,1
4442,65.22,-4.59,11.12,1
4443,65.24,3.72,-3.46,1
4444,65.25,-17.53,-40.14,1
4445,65.26,-5.23,12.05,1
4446,65.28,25.17,-6.68,1
4447,65.29,18.9,-47.33,1
4448,65.3,14.36,6.82,1
4449,65.32,9.16,-13.12,1
4450,65.33,-17.13,-65.96,1
4451,65.34,-10.54,-17.0,1
4452,65.36,9.23,-17.46,1
4453,65.37,-7.05,-47.45,1
4454,65.38,-8.83,0.8,1
4455,65.4,6.16,-13.69,1
4456,65.41,-4.33,-49.37,1
4457,65.42,-4.48,-0.83,1
4458,65.44,8.12,-27.54,1
4459,65.45,2.67,-80.86,1
4460,65.46,3.41,-18.36,1
4461,65.48,-0.78,-6.17,1
4462,65.49,-18.69,-53.98,1
4463,65.5,-3.14,-26.46,1
4464,65.52,11.16,-32.34,1
4465,65.53,-10.81,-58.34,1
4466,65.54,-0.18,-8.07,1
4467,65.56,27.27,-18.54,1
4468,65.57,7.09,-61.31,1
4469,65.58,-8.7,-16.78,1
4470,65.6,-1.97,-22.23,1
4471,65.61,-10.78,-60.86,1
4472,65.62,-0.8,-11.99,1
4473,65.64,17.5,-11.29,1
4474,65.65,1.46,-53.9,1
4475,65.66,3.25,-16.6,1
4476,65.68,18.85,-20.75,1
4477,65.69,-10.4,-64.45,1
4478,65.7,-29.92,-31.14,1
4479,65.72,-12.17,-36.8,1
4480,65.73,-8.16,-73.97,1
4481,65.74,-0.2,-25.74,1
4482,65.76,14.71,-17.31,1
4483,65.77,5.67,-52.94,1
4484,65.78,9.05,-11.32,1
4485,65.8,16.75,-9.35,1
4486,65.81,-8.82,-53.52,1
4487,65.82,-12.8,-18.69,1
4488,65.84,8.35,-14.02,1
4489,65.85,-1.74,-51.04,1
4490,65.86,-8.41,-8.36,1
4491,65.88,-1.35,4.42,1
4492,65.89,-16.94,-34.27,1
4493,65.9,-14.9,-1.16,1
4494,65.92,3.29,11.09,1
4495,65.93,-6.59,-24.07,1
4496,65.94,-0.52,-1.19,1
4497,65.96,17.39,-6.52,1
4498,65.97,-5.65,-46.92,1
4499,65.98,-17.16,-9.05,1
4500,66.0,-2.86,8.17,1
4501,66.01,-11.27,-20.25,1
4502,66.02,-3.21,17.29,1
4503,66.04,19.08,22.83,1
4504,66.05,0.42,-30.16,1
4505,66.06,-11.75,-8.78,1
4506,66.08,-2.97,10.47,1
4507,66.09,-20.01,-18.33,1
4508,66.11,-15.9,8.0,1
4509,66.12,15.35,12.69,1
4510,66.13,4.32,-26.89,1
4511,66.14,-6.42,13.62,1
4512,66.16,16.05,39.84,0
4513,66.17,13.53,-9.29,0
4514,66.18,6.34,-7.94,0
4515,66.2,14.55,-20.71,0
4516,66.21,0.2,-96.16,0
4517,66.22,-4.27,-105.1,0
4518,66.24,2.31,-107.16,0
4519,66.25,-13.97,-154.8,0
4520,66.26,9.11,-129.91,0
4521,66.28,52.69,-101.61,0
4522,66.29,27.1,-123.9,0
4523,66.3,-1.45,-72.16,0
4524,66.32,12.13,-17.23,0
4525,66.33,4.86,-33.96,0
4526,66.34,3.44,-0.67,0
4527,66.36,14.42,43.69,0
4528,66.37,-18.42,37.91,0
4529,66.38,-31.54,83.57,0
4530,66.4,3.05,123.46,0
4531,66.41,-1.39,92.89,0
4532,66.42,-23.41,111.49,0
4533,66.44,-16.75,144.56,0
4534,66.45,-15.49,120.21,0
4535,66.46,-2.26,137.47,0
4536,66.48,13.94,153.4,0
4537,66.49,-15.04,108.16,0
4538,66.5,-25.7,128.05,0
4539,66.52,6.92,163.36,0
4540,66.53,6.02,115.84,0
4541,66.54,-11.16,114.81,0
4542,66.56,-9.96,143.5,1
4543,66.57,-14.09,104.13,1
4544,66.58,-0.13,109.11,1
4545,66.6,10.87,135.96,1
4546,66.61,-19.68,80.72,1
4547,66.62,-14.5,60.25,1
4548,66.64,19.01,76.58,1
4549,66.65,-4.35,36.61,1
4550,66.66,-16.46,40.69,1
4551,66.68,9.77,71.44,1
4552,66.69,-2.47,27.83,1
4553,66.7,-1.75,19.38,1
4554,66.72,28.53,44.41,1
4555,66.73,4.19,4.79,1
4556,66.75,-18.59,4.81,1
4557,66.76,4.3,28.27,1
4558,66.77,-0.59,-31.5,1
4559,66.79,-9.76,-40.28,1
4560,66.8,-0.19,9.17,1
4561,66.81,-22.7,-21.31,1
4562,66.82,-26.23,-28.7,1
4563,66.84,13.55,4.04,1
4564,66.85,19.52,-40.16,1
4565,66.86,12.97,-45.65,1
4566,66.88,19.0,4.57,1
4567,66.89,-5.47,-26.22,1
4568,66.9,-12.68,-42.38,1
4569,66.92,10.6,-17.59,1
4570,66.93,-4.47,-56.59,1
4571,66.94,-16.77,-53.56,1
4572,66.96,1.79,-10.68,1
4573,66.97,-2.98,-55.9,1
4574,66.98,1.8,-64.27,1
4575,67.0,22.97,-19.67,1
4576,67.01,4.39,-61.56,1
4577,67.02,0.09,-66.34,1
4578,67.04,24.23,-11.29,1
4579,67.05,3.53,-50.0,1
4580,67.06,-12.86,-58.35,1
4581,67.08,7.62,5.55,1
4582,67.09,1.12,-25.42,1
4583,67.1,0.6,-50.85,1
4584,67.12,17.65,-10.2,1
4585,67.13,-8.1,-41.88,1
4586,67.14,-14.89,-54.63,1
4587,67.16,20.99,-14.15,1
4588,67.17,10.42,-57.4,1
4589,67.18,-3.84,-66.79,1
4590,67.2,20.4,-6.78,1
4591,67.21,7.28,-44.62,1
4592,67.22,-11.71,-65.85,1
4593,67.24,4.21,-5.96,1
4594,67.25,-8.23,-26.19,1
4595,67.26,-16.87,-35.21,1
4596,67.28,8.09,14.19,1
4597,67.29,-0.41,-30.21,1
4598,67.3,-8.78,-48.27,1
4599,67.32,8.32,18.06,1
4600,67.33,-11.06,-12.03,1
4601,67.34,-14.61,-39.39,1
4602,67.36,26.09,13.93,1
4603,67.37,21.76,-18.38,1
4604,67.38,-1.76,-46.56,1
4605,67.4,-2.65,5.1,1
4606,67.41,-25.76,-21.61,1
4607,67.43,-22.68,-36.04,1
4608,67.44,21.07,25.5,1
4609,67.45,17.44,-6.88,1
4610,67.46,6.95,-37.53,1
4611,67.48,29.24,14.07,1
4612,67.49,13.36,-14.95,1
4613,67.5,-6.22,-37.87,1
4614,67.52,8.63,16.48,1
4615,67.53,-4.77,-16.01,1
4616,67.54,-14.04,-38.85,1
4617,67.56,7.41,24.62,1
4618,67.57,-7.0,-2.55,1
4619,67.58,-15.45,-29.16,1
4620,67.6,13.79,33.35,1
4621,67.61,3.79,12.58,1
4622,67.62,-11.09,-10.66,1
4623,67.64,9.51,42.31,1
4624,67.65,0.89,4.83,1
4625,67.66,-4.53,-25.38,1
4626,67.68,16.01,32.78,1
4627,67.69,-7.27,-0.83,1
4628,67.7,-19.63,-26.85,1
4629,67.72,19.17,45.2,1
4630,67.73,17.09,18.71,1
4631,67.74,-3.73,-21.46,1
4632,67.76,7.4,36.71,1
4633,67.77,-8.01,11.27,1
4634,67.78,-19.12,-31.01,1
4635,67.8,8.14,18.47,1
4636,67.81,1.65,1.61,1
4637,67.82,-8.61,-13.26,1
4638,67.84,13.79,49.18,1
4639,67.85,-2.04,14.75,1
4640,67.86,-18.67,-17.1,1
4641,67.88,9.16,51.81,1
4642,67.89,5.42,23.3,1
4643,67.9,-7.18,-21.24,1
4644,67.92,9.06,39.75,1
4645,67.93,-11.03,21.95,1
4646,67.94,-27.82,-13.32,1
4647,67.96,2.19,44.62,1
4648,67.97,5.6,21.08,1
4649,67.98,5.08,-21.17,1
4650,68.0,30.56,31.6,1
4651,68.01,10.93,13.69,1
4652,68.02,-9.99,-18.82,1
4653,68.04,16.68,36.4,1
4654,68.05,8.89,15.16,1
4655,68.06,-10.1,-18.36,1
4656,68.08,9.96,39.17,1
4657,68.09,-6.43,15.08,1
4658,68.11,-33.74,-24.36,1
4659,68.12,-8.97,38.75,1
4660,68.13,3.0,29.9,1
4661,68.14,5.22,-1.37,1
4662,68.16,25.67,56.2,2
4663,68.17,6.67,36.98,2
4664,68.18,-10.88,8.04,2
4665,68.2,13.31,102.77,2
4666,68.21,2.79,157.96,2
4667,68.22,-17.87,189.3,2
4668,68.24,-1.4,262.66,2
4669,68.25,-9.43,214.16,2
4670,68.26,-17.57,123.17,2
4671,68.28,9.59,108.75,2
4672,68.29,-0.99,25.33,2
4673,68.3,-26.88,-47.63,2
4674,68.32,-14.24,-14.02,2
4675,68.33,-16.18,-68.55,2
4676,68.34,-24.22,-146.22,2
4677,68.36,-13.5,-103.07,2
4678,68.37,-30.47,-114.58,2
4679,68.38,-35.61,-158.15,2
4680,68.4,-2.78,-105.81,2
4681,68.41,-4.35,-110.84,2
4682,68.42,-4.25,-142.67,2
4683,68.44,32.42,-80.25,2
4684,68.45,20.5,-83.82,2
4685,68.46,-10.24,-124.01,2
4686,68.48,2.16,-64.69,2
4687,68.49,-5.38,-53.41,2
4688,68.5,-17.46,-78.64,2
4689,68.52,9.04,-30.15,2
4690,68.53,14.1,-50.15,2
4691,68.54,8.81,-97.11,2
4692,68.56,23.55,-39.74,1
4693,68.57,6.08,-28.94,1
4694,68.58,-8.31,-52.91,1
4695,68.6,21.17,2.22,1
4696,68.61,21.58,-10.0,1
4697,68.62,4.43,-60.14,1
4698,68.64,13.87,-12.23,1
4699,68.65,-0.5,-6.73,1
4700,68.66,-10.46,-37.33,1
4701,68.68,18.84,10.16,1
4702,68.69,13.67,5.09,1
4703,68.7,-5.11,-26.96,1
4704,68.72,8.23,30.34,1
4705,68.73,-2.95,27.91,1
4706,68.75,-9.94,-20.73,1
4707,68.76,16.83,23.52,1
4708,68.77,1.0,29.32,1
4709,68.79,-17.37,-11.43,1
4710,68.8,17.6,28.5,1
4711,68.81,23.15,32.28,1
4712,68.82,2.31,-6.8,1
4713,68.84,4.85,33.96,1
4714,68.85,-15.76,38.74,1
4715,68.86,-32.37,-2.27,1
4716,68.88,-2.69,32.25,1
4717,68.89,6.4,34.47,1
4718,68.9,-0.61,-2.31,1
4719,68.92,5.65,38.14,1
4720,68.93,-22.76,43.12,1
4721,68.94,-41.19,1.37,1
4722,68.96,-8.87,33.28,1
4723,68.97,-2.98,34.65,1
4724,68.98,-3.93,-7.58,1
4725,69.0,29.47,27.12,1
4726,69.01,22.61,30.92,1
4727,69.02,-4.46,-16.63,1
4728,69.04,10.34,20.43,1
4729,69.05,13.08,46.7,1
4730,69.06,3.71,10.86,1
4731,69.08,13.74,25.91,1
4732,69.09,-1.8,26.71,1
4733,69.1,-19.09,-7.2,1
4734,69.12,-4.5,29.11,1
4735,69.13,-12.44,48.07,1
4736,69.14,-21.96,18.79,1
4737,69.16,-1.12,43.57,1
4738,69.17,-5.29,36.49,1
4739,69.18,-7.51,-18.35,1
4740,69.2,22.19,2.74,1
4741,69.21,11.22,12.24,1
4742,69.22,-17.55,-20.94,1
4743,69.24,-5.63,31.77,1
4744,69.25,-2.94,71.28,1
4745,69.26,-1.58,24.4,1
4746,69.28,27.87,23.59,1
4747,69.29,20.18,26.08,1
4748,69.3,-9.25,-19.11,1
4749,69.32,-4.6,-0.83,1
4750,69.33,-7.81,22.28,1
4751,69.34,-8.56,-9.58,1
4752,69.36,20.73,8.73,1
4753,69.37,14.74,24.35,1
4754,69.38,-11.5,-13.18,1
4755,69.4,-2.91,8.37,1
4756,69.41,-10.74,35.12,1
4757,69.43,-31.34,1.46,1
4758,69.44,-15.54,10.14,1
4759,69.45,-10.6,16.41,1
4760,69.46,-18.29,-29.92,1
4761,69.48,1.97,-14.9,1
4762,69.49,5.36,6.76,1
4763,69.5,-3.55,-35.15,1
4764,69.52,18.1,-17.95,1
4765,69.53,24.68,18.25,1
4766,69.54,12.79,-13.5,1
4767,69.56,15.84,-1.17,1
4768,69.57,0.27,29.17,1
4769,69.58,-12.79,-5.76,1
4770,69.6,7.57,1.02,1
4771,69.61,1.79,27.03,1
4772,69.62,-16.94,-10.37,1
4773,69.64,-0.69,-2.67,1
4774,69.65,2.31,30.17,1
4775,69.66,-5.09,-2.57,1
4776,69.68,12.05,-1.81,1
4777,69.69,8.52,12.65,1
4778,69.7,-5.04,-35.85,1
4779,69.72,4.7,-27.56,1
4780,69.73,-8.55,12.72,1
4781,69.74,-20.2,-23.35,1
4782,69.76,9.3,-22.15,1
4783,69.77,9.34,12.67,1
4784,69.78,-17.07,-20.47,1
4785,69.8,-6.39,-13.18,1
4786,69.81,5.53,25.84,1
4787,69.82,5.61,-10.31,1
4788,69.84,15.53,-9.9,1
4789,69.85,1.86,18.35,1
4790,69.86,-8.58,-33.69,1
4791,69.88,14.25,-35.87,1
4792,69.89,3.45,10.09,1
4793,69.9,-22.02,-26.73,1
4794,69.92,5.54,-25.02,1
4795,69.93,24.81,22.02,1
4796,69.94,4.89,-19.11,1
4797,69.96,2.91,-27.01,1
4798,69.97,6.3,15.76,1
4799,69.98,0.76,-23.88,1
4800,70.0,7.64,-28.75,1
4801,70.01,-1.11,18.13,1
4802,70.02,-15.71,-19.95,1
4803,70.04,0.28,-22.27,1
4804,70.05,6.6,31.11,1
4805,70.06,-2.6,-14.57,1
4806,70.08,2.52,-40.95,1
4807,70.09,-11.03,6.21,1
4808,70.11,-24.79,-14.56,1
4809,70.12,7.41,-16.85,1
4810,70.13,27.48,25.14,1
