,Timestamp,Data1,Data2,Label
0,6.0,5.42,21.05,1
1,6.01,-1.1,4.26,1
2,6.03,4.15,-35.99,1
3,6.04,-0.4,5.96,1
4,6.05,-2.68,14.83,1
5,6.07,9.99,-15.84,1
6,6.08,6.57,12.57,1
7,6.09,-3.2,3.1,1
8,6.11,2.9,-33.9,1
9,6.12,-1.69,5.6,1
10,6.13,-8.82,12.76,1
11,6.15,4.71,-22.2,2
12,6.16,8.51,12.33,2
13,6.17,3.99,20.65,2
14,6.19,16.23,-18.76,2
15,6.2,11.69,-21.96,2
16,6.21,-5.89,-80.27,2
17,6.23,31.71,-54.52,2
18,6.24,89.03,261.77,2
19,6.25,66.88,479.76,2
20,6.27,6.95,324.85,2
21,6.28,7.03,89.12,2
22,6.29,45.41,-67.66,2
23,6.31,39.22,-28.7,2
24,6.32,-23.35,282.99,2
25,6.33,-51.77,463.75,2
26,6.35,-10.35,302.09,2
27,6.36,0.41,152.43,2
28,6.37,-41.6,175.97,2
29,6.39,-48.16,186.25,2
30,6.4,-24.06,121.28,2
31,6.41,-26.96,72.15,2
32,6.43,-43.11,59.8,2
33,6.44,-43.09,40.04,2
34,6.45,-31.18,7.5,2
35,6.47,-25.18,-17.08,2
36,6.48,-36.38,-34.07,2
37,6.49,-46.14,-53.45,2
38,6.51,-35.96,-73.23,2
39,6.52,-18.34,-88.66,2
40,6.53,0.21,-101.39,2
41,6.55,2.53,-114.11,2
42,6.56,-25.6,-125.87,1
43,6.57,-27.32,-135.62,1
44,6.59,8.91,-143.82,1
45,6.6,-1.75,-151.54,1
46,6.61,-38.01,-158.52,1
47,6.63,-12.47,-164.02,1
48,6.64,31.47,-167.87,1
49,6.65,39.63,-170.79,1
50,6.67,29.91,-173.08,1
51,6.68,-1.94,-174.82,1
52,6.69,-27.22,-175.81,1
53,6.71,-11.67,-175.57,1
54,6.72,9.98,-173.86,1
55,6.73,34.89,-171.76,1
56,6.75,53.81,-169.77,1
57,6.76,22.94,-167.61,1
58,6.77,-2.93,-164.57,1
59,6.79,11.74,-160.89,1
60,6.8,-4.49,-156.76,1
61,6.81,-33.28,-151.99,1
62,6.82,-9.53,-146.6,1
63,6.84,18.19,-141.16,1
64,6.85,15.19,-135.96,1
65,6.86,10.69,-130.29,1
66,6.88,-5.01,-123.88,1
67,6.89,-14.58,-117.07,1
68,6.91,20.53,-110.59,1
69,6.92,39.97,-104.32,1
70,6.93,10.21,-97.45,1
71,6.95,1.73,-90.04,1
72,6.96,15.15,-83.27,1
73,6.97,7.27,-77.03,1
74,6.99,5.76,-70.04,1
75,7.0,20.92,-62.51,1
76,7.01,26.18,-55.67,1
77,7.03,13.78,-49.31,1
78,7.04,-5.06,-42.5,1
79,7.05,3.3,-34.98,1
80,7.07,21.18,-27.76,1
81,7.08,1.85,-21.58,1
82,7.09,-7.95,-15.59,1
83,7.11,13.81,-9.54,1
84,7.12,1.63,-3.75,1
85,7.13,-20.86,2.22,1
86,7.15,7.06,8.4,1
87,7.16,37.92,14.04,1
88,7.17,26.74,19.01,1
89,7.19,-2.18,24.39,1
90,7.2,-19.27,30.0,1
91,7.21,-2.86,34.97,1
92,7.23,18.27,39.43,1
93,7.24,-3.44,43.95,1
94,7.25,-23.54,48.33,1
95,7.27,-2.73,52.33,1
96,7.28,13.82,55.83,1
97,7.29,20.01,52.95,1
98,7.31,25.13,34.58,1
99,7.32,-3.94,-11.46,1
100,7.33,-33.98,-124.95,1
101,7.35,-21.8,-258.62,1
102,7.36,-7.98,-260.77,1
103,7.37,-13.13,-205.38,1
104,7.39,-14.53,-239.66,1
105,7.4,-7.07,-198.16,1
106,7.41,1.29,-39.74,1
107,7.43,-5.69,6.27,1
108,7.44,-24.44,-33.02,1
109,7.45,-11.17,-31.33,1
110,7.47,23.38,-30.59,1
111,7.48,19.37,4.51,1
112,7.49,7.61,71.93,1
113,7.51,25.12,85.56,1
114,7.52,21.03,126.51,1
115,7.53,-0.92,181.23,1
116,7.55,1.66,144.1,1
117,7.56,5.41,137.38,1
118,7.57,3.07,146.16,1
119,7.59,5.54,39.53,1
120,7.6,-9.49,22.48,1
121,7.61,-19.3,173.55,1
122,7.63,1.03,240.58,1
123,7.64,7.9,230.4,1
124,7.65,4.88,260.91,1
125,7.67,18.68,254.04,1
126,7.68,17.29,242.28,1
127,7.69,11.69,291.48,1
128,7.71,15.38,324.92,1
129,7.72,-13.09,308.73,1
130,7.73,-40.18,213.25,1
131,7.75,-21.77,84.62,1
132,7.76,-9.01,141.05,1
133,7.77,-20.75,299.16,1
134,7.79,-28.82,244.66,1
135,7.8,-33.5,123.67,1
136,7.81,-14.36,156.53,1
137,7.83,22.12,159.95,1
138,7.84,8.06,122.82,1
139,7.85,-30.36,163.07,1
140,7.87,-15.29,163.79,1
141,7.88,8.84,163.39,1
142,7.89,-6.87,214.26,1
143,7.91,-18.34,167.52,1
144,7.92,-7.9,152.69,1
145,7.93,14.0,251.29,1
146,7.95,39.08,192.16,1
147,7.96,29.04,53.43,1
148,7.97,-5.78,90.55,1
149,7.99,-14.89,154.99,1
150,8.0,-12.99,125.23,1
151,8.01,-13.13,93.21,1
152,8.03,-1.94,81.17,1
153,8.04,-0.85,95.28,1
154,8.05,-4.03,83.91,1
155,8.07,-0.18,-23.62,1
156,8.08,-11.85,-67.11,1
157,8.09,-12.26,19.0,1
158,8.1,12.13,48.35,1
159,8.12,13.68,81.68,1
160,8.13,4.46,171.72,1
161,8.15,11.76,85.7,0
162,8.16,2.85,-51.55,0
163,8.17,-14.15,-9.04,0
164,8.19,-8.87,14.95,0
165,8.2,-1.91,-20.34,0
166,8.21,6.06,15.5,0
167,8.23,21.89,9.89,0
168,8.24,13.74,-24.65,0
169,8.25,-4.95,0.76,0
170,8.27,0.61,-15.18,0
171,8.28,0.98,-25.26,0
172,8.29,-8.56,18.85,0
173,8.31,1.26,-38.04,0
174,8.32,1.19,-139.25,0
175,8.33,-15.72,-197.77,0
176,8.35,-16.09,-326.3,0
177,8.36,-15.39,-417.2,0
178,8.37,-11.93,-370.42,0
179,8.39,5.25,-353.25,0
180,8.4,-1.32,-329.52,0
181,8.41,-12.66,-222.19,0
182,8.43,2.75,-181.19,0
183,8.44,-2.44,-149.55,0
184,8.45,-20.59,-46.15,0
185,8.47,-4.03,-34.37,0
186,8.48,10.22,-54.32,0
187,8.49,3.32,9.21,0
188,8.51,3.42,8.78,0
189,8.52,-4.28,-17.97,0
190,8.53,-10.73,31.41,0
191,8.55,11.1,20.54,1
192,8.56,20.86,-12.06,1
193,8.57,7.07,30.97,1
194,8.59,8.06,21.33,1
195,8.6,4.79,-3.91,1
196,8.61,-12.01,33.68,1
197,8.63,3.63,0.52,1
198,8.64,34.85,-40.25,1
199,8.65,30.45,9.57,1
200,8.67,5.45,-6.95,1
201,8.68,-4.95,-53.3,1
202,8.69,7.1,-7.23,1
203,8.71,17.58,2.2,1
204,8.72,-1.22,-19.95,1
205,8.73,-16.01,13.88,1
206,8.75,-0.45,-4.79,1
207,8.76,2.21,-45.66,1
208,8.77,-12.67,-22.88,1
209,8.78,-13.12,-45.57,1
210,8.8,-14.16,-76.64,1
211,8.81,-17.03,-30.95,1
212,8.82,-8.52,-32.9,1
213,8.84,-11.45,-57.64,1
214,8.85,-14.2,-17.35,1
215,8.87,4.09,-32.04,1
216,8.88,7.34,-69.95,1
217,8.89,-4.7,-29.22,1
218,8.91,0.51,-36.75,1
219,8.92,2.86,-81.48,1
220,8.93,-3.2,-54.42,1
221,8.95,1.87,-58.46,1
222,8.96,1.68,-85.15,1
223,8.97,1.28,-45.92,1
224,8.99,11.89,-44.13,1
225,9.0,2.12,-63.55,1
226,9.01,-12.01,-25.32,1
227,9.03,3.73,-44.5,1
228,9.04,10.91,-87.95,1
229,9.05,1.41,-46.23,1
230,9.07,8.83,-43.5,1
231,9.08,12.75,-82.8,1
232,9.09,4.41,-51.77,1
233,9.11,-0.66,-44.99,1
234,9.12,-18.25,-69.25,1
235,9.13,-27.59,-35.98,1
236,9.15,-5.84,-41.72,1
237,9.16,2.69,-79.82,1
238,9.17,-3.42,-50.36,1
239,9.19,10.41,-48.09,1
240,9.2,14.02,-72.0,1
241,9.21,-0.64,-26.84,1
242,9.23,1.35,-11.3,1
243,9.24,4.52,-37.84,1
244,9.25,2.18,-18.34,1
245,9.27,9.44,-32.77,1
246,9.28,-0.51,-66.46,1
247,9.29,-14.3,-22.72,1
248,9.31,4.72,-5.96,1
249,9.32,12.87,-37.27,1
250,9.33,-9.59,-14.14,1
251,9.35,-16.69,-3.48,1
252,9.36,-8.67,-22.48,1
253,9.37,-3.7,3.01,1
254,9.39,1.82,-0.82,1
255,9.4,-3.21,-26.22,1
256,9.41,-7.58,14.1,1
257,9.43,8.26,22.56,1
258,9.44,16.26,-14.34,1
259,9.45,10.92,10.53,1
260,9.47,17.94,21.48,1
261,9.48,19.12,-9.82,1
262,9.49,4.08,12.1,1
263,9.51,-4.7,24.65,1
264,9.52,-10.1,-0.06,1
265,9.53,-8.32,19.23,1
266,9.55,5.7,18.73,1
267,9.56,0.34,-12.83,1
268,9.57,-10.48,17.43,1
269,9.59,6.77,30.92,1
270,9.6,12.95,-4.01,1
271,9.61,-5.56,17.07,1
272,9.63,-7.11,35.16,1
273,9.64,-0.54,6.16,1
274,9.65,-2.17,23.78,1
275,9.67,5.6,42.41,1
276,9.68,10.43,19.61,1
277,9.69,5.19,38.45,1
278,9.71,7.51,54.17,1
279,9.72,3.72,28.1,1
280,9.73,-2.41,38.05,1
281,9.75,7.94,37.16,1
282,9.76,5.27,3.08,1
283,9.77,-8.2,31.51,1
284,9.79,2.38,54.27,1
285,9.8,9.88,12.08,1
286,9.81,-3.4,15.9,1
287,9.83,-7.67,36.01,1
288,9.84,-7.17,7.14,1
289,9.85,-8.05,20.22,1
290,9.87,2.95,49.07,1
291,9.88,6.87,24.1,1
292,9.89,1.05,25.58,1
293,9.91,7.45,42.07,1
294,9.92,8.1,23.61,1
295,9.93,-2.46,41.02,1
296,9.95,0.02,52.86,1
297,9.96,1.17,5.33,1
298,9.97,-3.71,7.99,1
299,9.99,9.19,45.92,1
300,10.0,16.2,37.01,1
301,10.01,-2.8,48.14,1
302,10.02,-15.79,58.1,1
303,10.04,-11.72,15.3,1
304,10.05,-0.47,17.17,1
305,10.06,12.77,38.7,1
306,10.08,6.47,9.96,1
307,10.09,-11.16,25.58,1
308,10.1,-8.16,55.04,1
309,10.12,-3.03,18.21,1
310,10.13,-12.1,24.44,1
311,10.15,-7.76,57.26,0
312,10.16,5.97,16.0,0
313,10.17,8.77,5.39,0
314,10.19,9.28,37.59,0
315,10.2,5.31,9.17,0
316,10.21,1.93,-11.25,0
317,10.23,13.22,-19.79,0
318,10.24,17.19,-89.72,0
319,10.25,12.48,-119.11,0
320,10.27,17.49,-99.42,0
321,10.28,4.97,-122.03,0
322,10.29,-16.23,-99.38,0
323,10.31,-2.92,-41.6,0
324,10.32,8.62,-61.56,0
325,10.33,-8.74,-59.67,0
326,10.35,-8.9,-15.99,0
327,10.36,2.96,-33.39,0
328,10.37,-10.39,-13.76,0
329,10.39,-25.94,56.53,0
330,10.4,-25.43,48.71,0
331,10.41,-27.02,45.16,0
332,10.43,-28.8,87.71,0
333,10.44,-23.35,76.52,0
334,10.45,-15.21,84.91,0
335,10.47,-1.92,133.8,0
336,10.48,6.97,120.01,0
337,10.49,1.54,127.28,0
338,10.51,0.03,168.6,0
339,10.52,5.25,122.4,0
340,10.53,3.05,91.86,0
341,10.55,4.75,125.58,1
342,10.56,12.84,93.4,1
343,10.57,9.15,65.31,1
344,10.59,1.62,88.24,1
345,10.6,5.57,54.16,1
346,10.61,11.2,39.18,1
347,10.63,4.55,73.75,1
348,10.64,-11.63,36.23,1
349,10.65,-13.73,10.24,1
350,10.67,2.95,40.19,1
351,10.68,6.52,9.37,1
352,10.69,0.53,-0.39,1
353,10.71,12.97,42.33,1
354,10.72,20.63,7.11,1
355,10.73,2.65,-14.35,1
356,10.75,-8.13,27.73,1
357,10.76,5.18,-0.26,1
358,10.77,15.45,-20.21,1
359,10.78,12.6,11.79,1
360,10.8,10.5,-34.54,1
361,10.81,8.14,-65.06,1
362,10.83,-1.23,-17.31,1
363,10.84,-12.96,-26.72,1
364,10.85,-17.19,-29.52,1
365,10.87,-9.23,6.33,1
366,10.88,-3.31,-49.19,1
367,10.89,-5.94,-82.92,1
368,10.91,0.12,-25.36,1
369,10.92,7.24,-39.25,1
370,10.93,-1.81,-66.09,1
371,10.95,-9.73,-32.04,1
372,10.96,-5.24,-56.51,1
373,10.97,-0.44,-65.98,1
374,10.99,0.72,-14.16,1
375,11.0,-4.35,-47.04,1
376,11.01,-12.73,-74.88,1
377,11.03,-8.7,-21.09,1
378,11.04,3.75,-41.87,1
379,11.05,10.22,-73.87,1
380,11.07,10.88,-30.42,1
381,11.08,4.6,-48.21,1
382,11.09,-3.1,-76.37,1
383,11.11,0.64,-39.3,1
384,11.12,4.5,-58.51,1
385,11.13,1.75,-72.96,1
386,11.15,9.1,-22.65,1
387,11.16,14.46,-42.7,1
388,11.17,-3.11,-57.96,1
389,11.19,-18.61,-1.23,1
390,11.2,-14.39,-27.39,1
391,11.21,-6.14,-58.64,1
392,11.23,5.3,2.79,1
393,11.24,15.79,-3.47,1
394,11.25,7.93,-40.66,1
395,11.27,-5.3,-13.71,1
396,11.28,-5.46,-39.77,1
397,11.29,1.84,-59.84,1
398,11.31,10.03,-3.2,1
399,11.32,9.86,-15.7,1
400,11.33,0.49,-39.76,1
401,11.35,0.66,8.2,1
402,11.36,3.67,-12.52,1
403,11.37,-5.24,-45.13,1
404,11.39,-5.86,2.88,1
405,11.4,-0.21,-6.03,1
406,11.41,-11.63,-32.25,1
407,11.43,-15.18,7.57,1
408,11.44,3.3,-12.81,1
409,11.45,7.53,-39.37,1
410,11.47,-6.63,11.94,1
411,11.48,-15.35,1.33,1
412,11.49,-13.52,-24.1,1
413,11.51,-1.76,23.88,1
414,11.52,6.11,4.96,1
415,11.53,-0.86,-36.16,1
416,11.55,-0.15,-1.59,1
417,11.56,10.29,-17.92,1
418,11.57,7.95,-42.75,1
419,11.59,3.08,10.38,1
420,11.6,1.04,6.41,1
421,11.61,-9.41,-15.65,1
422,11.63,-9.67,35.18,1
423,11.64,0.02,27.98,1
424,11.65,-3.93,-1.5,1
425,11.67,-2.65,34.91,1
426,11.68,12.84,13.54,1
427,11.69,11.15,-16.33,1
428,11.71,-1.64,32.46,1
429,11.72,-2.81,19.36,1
430,11.73,-1.01,-12.16,1
431,11.75,3.81,35.57,1
432,11.76,10.12,20.34,1
433,11.77,4.45,-23.08,1
434,11.79,-2.62,19.78,1
435,11.8,-6.66,23.56,1
436,11.81,-12.22,0.15,1
437,11.83,-4.37,36.38,1
438,11.84,5.78,19.91,1
439,11.85,-2.64,-10.63,1
440,11.87,-2.83,30.51,1
441,11.88,13.17,14.56,1
442,11.89,13.83,-16.65,1
443,11.91,5.65,36.8,1
444,11.92,6.0,34.23,1
445,11.93,4.07,-8.19,1
446,11.94,5.83,20.5,1
447,11.96,12.86,8.12,1
448,11.97,2.0,-31.2,1
449,11.98,-12.69,4.32,1
450,12.0,-9.88,9.91,1
451,12.01,-8.44,-7.13,1
452,12.02,-9.94,32.92,1
453,12.04,-4.85,24.54,1
454,12.05,-0.25,-5.26,1
455,12.06,14.28,31.14,1
456,12.08,29.74,22.29,1
457,12.09,19.42,-7.74,1
458,12.1,3.2,31.22,1
459,12.12,-1.47,25.87,1
460,12.13,-9.34,-5.95,1
461,12.15,-9.94,28.71,2
462,12.16,-0.95,22.36,2
463,12.17,-2.89,1.41,2
464,12.19,-2.3,78.87,2
465,12.2,0.66,143.33,2
466,12.21,-15.42,174.63,2
467,12.23,-17.63,242.93,2
468,12.24,6.85,231.3,2
469,12.25,6.32,147.68,2
470,12.27,-12.8,121.3,2
471,12.28,-3.69,83.0,2
472,12.29,14.65,21.53,2
473,12.31,14.13,14.39,2
474,12.32,1.56,-30.83,2
475,12.33,-11.0,-112.6,2
476,12.35,-4.1,-121.65,2
477,12.36,8.26,-128.13,2
478,12.37,-3.59,-145.42,2
479,12.39,-5.44,-106.53,2
480,12.4,16.33,-103.31,2
481,12.41,8.98,-131.34,2
482,12.43,-17.14,-94.31,2
483,12.44,-15.74,-85.9,2
484,12.45,-3.6,-123.86,2
485,12.47,3.42,-98.15,2
486,12.48,9.31,-73.5,2
487,12.49,6.25,-83.52,2
488,12.51,6.84,-54.81,2
489,12.52,10.5,-54.35,2
490,12.53,-4.98,-86.89,2
491,12.55,-11.1,-53.79,1
492,12.56,10.93,-28.26,1
493,12.57,14.05,-47.43,1
494,12.59,-5.15,-23.68,1
495,12.6,-9.06,-7.68,1
496,12.61,-9.89,-28.42,1
497,12.63,-12.34,-15.58,1
498,12.64,-1.82,-21.94,1
499,12.65,3.51,-49.75,1
500,12.67,6.6,-9.44,1
501,12.68,16.75,20.69,1
502,12.69,5.71,-4.99,1
503,12.71,-15.69,1.66,1
504,12.72,-16.65,5.91,1
505,12.73,-13.62,-10.96,1
506,12.75,-7.94,21.69,1
507,12.76,11.77,31.42,1
508,12.77,18.42,-13.51,1
509,12.79,4.33,-4.68,1
510,12.8,-11.08,17.59,1
511,12.81,-19.57,-2.83,1
512,12.83,-4.57,13.17,1
513,12.84,18.47,30.08,1
514,12.85,7.03,7.36,1
515,12.87,-10.17,31.79,1
516,12.88,4.05,61.82,1
517,12.89,10.01,38.9,1
518,12.91,-7.16,37.67,1
519,12.92,-14.17,31.05,1
520,12.93,-12.78,-5.57,1
521,12.95,-16.16,19.53,1
522,12.96,-17.48,46.5,1
523,12.97,-8.44,8.04,1
524,12.99,13.49,15.31,1
525,13.0,25.57,51.81,1
526,13.01,11.43,32.99,1
527,13.03,3.38,28.25,1
528,13.04,7.64,35.41,1
529,13.05,-6.22,17.49,1
530,13.07,-15.92,42.68,1
531,13.08,-3.29,56.55,1
532,13.09,-0.55,3.9,1
533,13.11,1.14,2.94,1
534,13.12,10.74,35.3,1
535,13.13,-3.77,11.21,1
536,13.15,-18.22,16.53,1
537,13.16,-7.66,46.38,1
538,13.17,-5.18,22.17,1
539,13.19,3.22,27.64,1
540,13.2,28.86,56.7,1
541,13.21,18.1,22.55,1
542,13.23,-15.86,10.0,1
543,13.24,-17.43,27.46,1
544,13.25,-5.93,-4.4,1
545,13.27,-1.09,-4.12,1
546,13.28,2.95,23.53,1
547,13.29,-3.01,-9.34,1
548,13.31,-2.28,-8.7,1
549,13.32,6.05,30.62,1
550,13.33,-5.44,4.27,1
551,13.35,-6.39,-6.43,1
552,13.36,15.99,20.97,1
553,13.37,12.96,1.51,1
554,13.39,-0.93,6.81,1
555,13.4,10.48,33.16,1
556,13.41,14.05,-3.2,1
557,13.43,5.11,2.94,1
558,13.44,8.76,46.9,1
559,13.45,7.18,3.28,1
560,13.47,4.23,-16.37,1
561,13.48,10.08,28.59,1
562,13.49,-3.33,3.01,1
563,13.51,-16.48,-23.71,1
564,13.52,-1.22,-1.11,1
565,13.53,3.88,-25.39,1
566,13.55,-4.94,-31.48,1
567,13.56,-0.91,-1.33,1
568,13.57,-5.0,-32.38,1
569,13.59,-10.43,-35.23,1
570,13.6,1.24,9.43,1
571,13.61,-5.71,-17.18,1
572,13.63,-20.62,-28.54,1
573,13.64,-4.04,10.42,1
574,13.65,14.76,-10.06,1
575,13.67,16.71,-7.82,1
576,13.68,12.13,32.35,1
577,13.69,-6.46,-11.63,1
578,13.71,-14.9,-30.37,1
579,13.72,1.51,19.28,1
580,13.73,8.28,-6.29,1
581,13.75,11.93,-26.64,1
582,13.76,18.32,15.42,1
583,13.77,-11.52,-5.09,1
584,13.79,-44.11,-18.81,1
585,13.8,-25.41,20.97,1
586,13.81,5.52,-5.16,1
587,13.83,20.42,-21.78,1
588,13.84,27.02,19.41,1
589,13.85,8.0,-5.39,1
590,13.86,-14.77,-27.68,1
591,13.88,-11.88,0.94,1
592,13.89,-8.62,-24.42,1
593,13.9,-1.28,-16.95,1
594,13.92,19.02,42.81,1
595,13.93,14.35,3.27,1
596,13.94,0.98,-31.54,1
597,13.96,6.93,14.92,1
598,13.97,-1.81,-4.59,1
599,13.98,-7.47,-27.26,1
600,14.0,16.74,11.76,1
601,14.01,15.62,-14.02,1
602,14.02,-8.05,-32.12,1
603,14.04,-4.46,11.89,1
604,14.05,-3.46,-15.45,1
605,14.07,-15.37,-33.69,1
606,14.08,-7.76,12.64,1
607,14.09,-2.27,-21.72,1
608,14.11,-6.95,-47.31,1
609,14.12,-2.82,15.76,1
610,14.13,-8.31,11.27,1
611,14.15,-8.68,-4.17,2
612,14.16,21.6,36.22,2
613,14.17,43.17,-61.97,2
614,14.19,41.56,-190.22,2
615,14.2,33.61,-23.17,2
616,14.21,22.73,252.3,2
617,14.23,23.92,283.51,2
618,14.24,13.97,103.48,2
619,14.25,-28.1,-122.45,2
620,14.27,-34.09,-109.84,2
621,14.28,13.64,239.69,2
622,14.29,17.53,448.76,2
623,14.31,-35.75,329.82,2
624,14.32,-58.53,264.05,2
625,14.33,-47.85,322.45,2
626,14.35,-43.51,288.13,2
627,14.36,-28.6,157.48,2
628,14.37,-2.35,42.78,2
629,14.39,10.95,29.25,2
630,14.4,-0.59,113.79,2
631,14.41,-34.65,131.1,2
632,14.43,-32.6,-14.32,2
633,14.44,17.16,-163.1,2
634,14.45,13.14,-182.12,2
635,14.47,-27.21,-177.06,2
636,14.48,-14.31,-218.66,2
637,14.49,-10.9,-201.38,2
638,14.51,-30.58,-109.3,2
639,14.52,11.9,-101.4,2
640,14.53,59.33,-226.5,2
641,14.55,33.9,-289.14,1
642,14.56,-8.91,-248.17,1
643,14.57,-23.95,-265.84,1
644,14.59,-15.31,-258.87,1
645,14.6,5.35,-172.83,1
646,14.61,3.71,-154.27,1
647,14.63,-7.01,-135.34,1
648,14.64,11.05,-87.55,1
649,14.65,22.91,-148.82,1
650,14.67,15.37,-207.34,1
651,14.68,18.71,-164.52,1
652,14.69,12.68,-161.43,1
653,14.71,0.27,-189.32,1
654,14.72,10.53,-179.82,1
655,14.73,13.57,-187.07,1
656,14.75,4.94,-131.47,1
657,14.76,12.97,-34.67,1
658,14.77,13.42,-91.93,1
659,14.79,-2.29,-136.18,1
660,14.8,-8.74,-2.96,1
661,14.81,-10.16,51.43,1
662,14.83,-0.08,-33.16,1
663,14.84,22.44,-86.31,1
664,14.85,17.63,-116.9,1
665,14.87,-1.43,-99.94,1
666,14.88,3.38,-1.96,1
667,14.89,8.34,36.87,1
668,14.91,6.95,-6.3,1
669,14.92,6.78,-28.71,1
670,14.93,-8.93,-17.84,1
671,14.95,-8.64,50.59,1
672,14.96,18.06,102.44,1
673,14.97,19.72,-2.92,1
674,14.99,12.33,-80.83,1
675,15.0,21.46,20.2,1
676,15.01,5.67,69.72,1
677,15.03,-18.67,30.44,1
678,15.04,-6.64,56.04,1
679,15.05,9.82,53.56,1
680,15.07,10.62,-0.52,1
681,15.08,9.79,3.92,1
682,15.09,-5.68,21.48,1
683,15.11,-13.64,46.96,1
684,15.12,11.97,102.45,1
685,15.13,19.13,77.18,1
686,15.15,-7.12,14.27,1
687,15.16,-18.56,60.18,1
688,15.17,-17.48,137.06,1
689,15.19,-9.63,131.27,1
690,15.2,14.84,63.16,1
691,15.21,19.03,9.48,1
692,15.23,1.01,74.98,1
693,15.24,-2.29,173.38,1
694,15.25,-9.72,124.55,1
695,15.27,-21.97,58.79,1
696,15.28,-8.0,97.59,1
697,15.29,1.31,84.47,1
698,15.31,-9.86,33.76,1
699,15.32,-10.29,77.61,1
700,15.33,-8.94,113.42,1
701,15.35,-7.37,97.18,1
702,15.36,4.67,126.02,1
703,15.37,-1.2,142.07,1
704,15.39,-14.32,106.87,1
705,15.4,-7.02,94.54,1
706,15.41,-8.9,86.05,1
707,15.43,-18.43,91.07,1
708,15.44,-7.78,129.85,1
709,15.45,-4.54,103.57,1
710,15.47,-8.99,58.96,1
711,15.48,-0.91,98.03,1
712,15.49,-10.61,96.78,1
713,15.51,-22.71,39.9,1
714,15.52,-3.15,56.82,1
715,15.53,6.69,62.21,1
716,15.55,2.03,7.43,1
717,15.56,14.26,24.25,1
718,15.57,8.18,83.79,1
719,15.59,-18.23,91.87,1
720,15.6,-15.91,69.47,1
721,15.61,-0.43,17.45,1
722,15.63,2.87,-10.94,1
723,15.64,2.84,31.36,1
724,15.65,-5.51,29.82,1
725,15.67,-5.65,-0.54,1
726,15.68,16.09,38.53,1
727,15.69,19.05,37.62,1
728,15.71,1.44,7.14,1
729,15.72,1.72,74.48,1
730,15.73,3.3,102.14,1
731,15.75,-2.68,19.48,1
732,15.76,6.03,-12.3,1
733,15.77,12.71,-4.62,1
734,15.78,8.23,-25.1,1
735,15.8,9.5,-14.53,1
736,15.81,7.43,-9.76,1
737,15.82,2.04,-24.47,1
738,15.84,4.21,17.6,1
739,15.85,-2.97,33.88,1
740,15.86,-15.96,-19.27,1
741,15.88,-16.58,-8.6,1
742,15.89,-17.13,43.59,1
743,15.9,-9.34,15.52,1
744,15.92,17.84,-45.44,1
745,15.93,21.98,-68.1,1
746,15.94,-3.52,-65.61,1
747,15.96,-9.17,-66.27,1
748,15.97,5.15,-109.07,1
749,15.98,11.14,-138.65,1
750,16.0,7.47,-45.99,1
751,16.01,-6.51,68.1,1
752,16.03,-10.33,51.7,1
753,16.04,10.67,-24.85,1
754,16.05,13.79,-57.2,1
755,16.07,-4.06,-21.15,1
756,16.08,-0.97,39.96,1
757,16.09,4.27,6.5,1
758,16.11,-2.19,-70.66,1
759,16.12,4.56,-54.14,1
760,16.13,6.78,-49.73,1
761,16.15,-7.21,-98.2,1
762,16.16,-9.73,-42.65,0
763,16.17,-3.71,48.37,0
764,16.19,-0.25,23.83,0
765,16.2,6.21,-22.25,0
766,16.21,4.98,-5.25,0
767,16.23,1.72,20.92,0
768,16.24,13.93,27.62,0
769,16.25,21.19,-3.42,0
770,16.27,15.8,-51.42,0
771,16.28,13.56,-37.07,0
772,16.29,-1.83,-9.97,0
773,16.31,-21.4,-40.0,0
774,16.32,-10.52,-54.66,0
775,16.33,2.64,-71.59,0
776,16.35,-4.42,-135.0,0
777,16.36,-6.04,-146.33,0
778,16.37,-7.85,-151.37,0
779,16.39,-14.68,-243.57,0
780,16.4,-8.59,-285.78,0
781,16.41,-4.02,-239.01,0
782,16.42,-7.45,-201.06,0
783,16.44,-5.95,-128.65,0
784,16.45,-11.43,-51.79,0
785,16.46,-14.65,-50.73,0
786,16.48,2.34,-16.99,0
787,16.49,6.12,43.68,0
788,16.5,-9.35,21.85,0
789,16.52,-5.96,19.65,0
790,16.53,1.47,59.99,0
791,16.54,-8.34,39.73,0
792,16.56,-7.2,41.37,1
793,16.57,6.79,78.09,1
794,16.58,11.68,53.83,1
795,16.6,3.4,53.02,1
796,16.61,-17.95,72.36,1
797,16.62,-26.17,13.91,1
798,16.64,0.47,5.39,1
799,16.65,19.33,67.16,1
800,16.67,6.94,55.27,1
801,16.68,4.43,53.91,1
802,16.69,15.11,93.93,1
803,16.71,7.02,57.27,1
804,16.72,-6.32,43.99,1
805,16.73,-3.75,90.63,1
806,16.75,7.41,63.91,1
807,16.76,14.46,42.77,1
808,16.77,5.4,71.78,1
809,16.79,-5.15,42.78,1
810,16.8,7.61,36.43,1
811,16.81,20.34,73.78,1
812,16.83,13.83,31.37,1
813,16.84,8.71,7.22,1
814,16.85,3.48,47.57,1
815,16.87,-6.71,19.72,1
816,16.88,-4.02,0.19,1
817,16.89,2.69,40.62,1
818,16.91,0.34,20.01,1
819,16.92,-1.06,10.02,1
820,16.93,-4.44,52.89,1
821,16.95,-2.97,30.97,1
822,16.96,17.75,22.92,1
823,16.97,24.14,65.15,1
824,16.99,-2.17,28.28,1
825,17.0,-13.36,-0.25,1
826,17.01,1.32,36.06,1
827,17.03,5.64,6.01,1
828,17.04,2.03,-13.67,1
829,17.05,-0.53,32.66,1
830,17.06,-7.98,6.09,1
831,17.08,-3.44,-20.69,1
832,17.09,7.47,21.52,1
833,17.1,0.47,-1.61,1
834,17.12,-3.22,-31.53,1
835,17.13,6.89,-0.58,1
836,17.14,5.59,-23.83,1
837,17.16,-4.81,-34.31,1
838,17.17,-12.75,17.17,1
839,17.18,-18.4,-5.18,1
840,17.2,-11.31,-26.02,1
841,17.21,-1.3,22.3,1
842,17.22,-7.46,2.61,1
843,17.24,-10.98,-20.92,1
844,17.25,-1.94,17.55,1
845,17.26,0.38,-12.51,1
846,17.28,-0.64,-38.64,1
847,17.29,-1.04,6.53,1
848,17.3,-7.92,-19.54,1
849,17.32,-5.46,-48.23,1
850,17.33,5.29,1.28,1
851,17.35,2.88,-13.04,1
852,17.36,-3.46,-37.9,1
853,17.37,-2.85,2.01,1
854,17.39,-1.44,-22.99,1
855,17.4,2.93,-42.42,1
856,17.41,3.19,16.48,1
857,17.43,-5.25,-4.48,1
858,17.44,-3.92,-50.78,1
859,17.45,0.97,-18.05,1
860,17.47,-9.92,-25.62,1
861,17.48,-17.58,-30.82,1
862,17.49,-8.79,22.75,1
863,17.51,1.72,-5.38,1
864,17.52,10.77,-39.53,1
865,17.53,14.34,12.73,1
866,17.55,7.56,-4.73,1
867,17.56,4.35,-45.93,1
868,17.57,4.85,-4.29,1
869,17.59,3.58,-13.37,1
870,17.6,12.0,-45.72,1
871,17.61,16.96,-12.12,1
872,17.63,2.73,-27.02,1
873,17.64,-5.13,-48.45,1
874,17.65,0.63,-1.75,1
875,17.67,-2.16,-14.19,1
876,17.68,-5.54,-36.0,1
877,17.69,1.0,12.79,1
878,17.7,6.4,-3.58,1
879,17.72,10.43,-37.57,1
880,17.73,6.08,1.89,1
881,17.75,-12.72,-14.23,1
882,17.76,-15.92,-41.59,1
883,17.77,2.73,6.18,1
884,17.78,11.21,-5.3,1
885,17.8,9.65,-38.92,1
886,17.81,6.98,-1.59,1
887,17.82,-5.22,-13.5,1
888,17.84,-13.82,-40.35,1
889,17.85,-11.54,0.28,1
890,17.86,-8.4,-12.85,1
891,17.88,2.21,-37.68,1
892,17.89,9.94,9.73,1
893,17.9,-2.62,-3.37,1
894,17.92,-8.57,-34.25,1
895,17.93,0.49,17.48,1
896,17.94,-0.76,12.97,1
897,17.96,0.13,-28.52,1
898,17.97,9.76,-0.42,1
899,17.99,7.59,-7.69,1
900,18.0,8.72,-25.19,1
901,18.01,17.64,23.25,1
902,18.03,5.01,12.96,1
903,18.04,-15.15,-20.4,1
904,18.05,-19.26,20.49,1
905,18.07,-17.52,16.68,1
906,18.08,-8.31,-12.46,1
907,18.09,1.08,21.74,1
908,18.11,-6.58,9.86,1
909,18.12,-8.17,-21.53,1
910,18.13,2.48,17.51,1
911,18.15,-3.91,12.08,1
912,18.16,-11.61,-17.05,0
913,18.17,-3.1,27.4,0
914,18.19,-2.51,25.35,0
915,18.2,-1.5,-22.87,0
916,18.21,12.17,-4.12,0
917,18.23,16.78,0.05,0
918,18.24,26.31,-27.49,0
919,18.25,47.56,-27.9,0
920,18.27,37.55,-80.17,0
921,18.28,2.47,-140.12,0
922,18.29,-15.45,-114.63,0
923,18.31,-15.29,-115.91,0
924,18.32,-5.51,-146.19,0
925,18.33,5.97,-110.58,0
926,18.34,-0.97,-92.22,0
927,18.36,-21.98,-89.03,0
928,18.37,-30.05,-27.75,0
929,18.38,-18.51,-5.69,0
930,18.4,-4.39,-7.34,0
931,18.41,-9.26,57.94,0
932,18.42,-25.77,82.07,0
933,18.44,-12.57,60.4,0
934,18.45,16.93,97.77,0
935,18.46,13.46,115.81,0
936,18.48,7.95,102.39,0
937,18.49,29.13,143.67,0
938,18.5,31.67,163.56,0
939,18.52,10.27,146.11,0
940,18.53,-5.12,164.38,0
941,18.54,-14.22,145.08,0
942,18.56,-8.58,97.0,1
943,18.57,2.53,114.79,1
944,18.58,-11.58,116.52,1
945,18.6,-26.17,85.01,1
946,18.61,-16.58,101.21,1
947,18.63,-7.23,86.77,1
948,18.64,1.35,39.35,1
949,18.65,11.82,55.99,1
950,18.67,2.76,54.12,1
951,18.68,-4.06,14.84,1
952,18.69,13.02,38.09,1
953,18.71,22.84,49.3,1
954,18.72,17.38,14.64,1
955,18.73,9.84,26.22,1
956,18.75,-6.17,25.99,1
957,18.76,-13.37,-8.93,1
958,18.77,-3.64,6.62,1
959,18.79,-3.2,8.27,1
960,18.8,-2.7,-21.92,1
961,18.81,7.03,6.02,1
962,18.83,1.96,16.24,1
963,18.84,-3.16,-27.11,1
964,18.85,6.93,-25.75,1
965,18.87,8.66,-23.78,1
966,18.88,11.91,-48.09,1
967,18.89,19.92,-21.36,1
968,18.91,0.62,-10.88,1
969,18.92,-24.19,-45.99,1
970,18.93,-20.85,-26.94,1
971,18.95,-10.48,-6.29,1
972,18.96,-0.41,-31.36,1
973,18.97,10.38,-16.74,1
974,18.98,-3.95,-8.14,1
975,19.0,-23.53,-47.53,1
976,19.01,-12.03,-41.41,1
977,19.02,6.45,-21.75,1
978,19.04,14.7,-40.13,1
979,19.05,15.88,-25.8,1
980,19.06,-1.56,-14.5,1
981,19.08,-12.15,-43.37,1
982,19.09,0.74,-25.35,1
983,19.1,3.28,-0.88,1
984,19.12,3.62,-30.17,1
985,19.13,15.51,-29.34,1
986,19.14,5.0,-22.75,1
987,19.16,-10.66,-58.5,1
988,19.17,-2.2,-44.67,1
989,19.18,-0.53,-14.73,1
990,19.2,-1.59,-40.83,1
991,19.21,11.63,-33.63,1
992,19.22,7.4,-10.46,1
993,19.24,-6.66,-38.26,1
994,19.25,-4.24,-31.27,1
995,19.27,-4.07,-9.41,1
996,19.28,-1.06,-38.05,1
997,19.29,10.67,-24.67,1
998,19.31,1.24,8.12,1
999,19.32,-8.34,-23.02,1
1000,19.33,5.17,-24.93,1
1001,19.35,0.35,2.18,1
1002,19.36,-16.69,-20.14,1
1003,19.37,-10.62,-11.63,1
1004,19.39,-6.88,11.1,1
1005,19.4,-11.02,-35.79,1
1006,19.41,-6.01,-43.12,1
1007,19.43,-8.52,0.63,1
1008,19.44,-7.82,-12.63,1
1009,19.45,6.91,-14.05,1
1010,19.47,4.3,8.9,1
1011,19.48,-1.33,-25.07,1
1012,19.49,12.87,-29.73,1
1013,19.51,11.08,7.53,1
1014,19.52,-1.14,-9.92,1
1015,19.53,4.36,-12.04,1
1016,19.55,-1.85,9.59,1
1017,19.56,-15.4,-25.02,1
1018,19.57,-8.6,-19.81,1
1019,19.59,-5.18,25.31,1
1020,19.6,1.27,-8.38,1
1021,19.61,22.68,-25.9,1
1022,19.62,17.08,13.81,1
1023,19.64,-2.98,1.57,1
1024,19.65,-0.91,-5.02,1
1025,19.67,-5.59,18.19,1
1026,19.68,-11.53,-8.74,1
1027,19.69,7.64,-9.05,1
1028,19.7,14.4,18.34,1
1029,19.72,5.61,-22.37,1
1030,19.73,13.18,-26.25,1
1031,19.75,13.12,24.07,1
1032,19.76,-1.84,-1.09,1
1033,19.77,-10.96,-13.67,1
1034,19.78,-21.94,31.46,1
1035,19.8,-16.24,13.35,1
1036,19.81,14.08,1.09,1
1037,19.82,20.71,33.15,1
1038,19.84,4.39,1.99,1
1039,19.85,-2.37,-10.03,1
1040,19.86,-7.33,32.14,1
1041,19.88,-0.28,7.31,1
1042,19.89,15.18,-6.15,1
1043,19.9,-0.99,35.24,1
1044,19.92,-16.38,11.78,1
1045,19.93,5.05,-7.46,1
1046,19.95,13.24,20.44,1
1047,19.96,-4.15,-10.15,1
1048,19.97,-16.56,-16.77,1
1049,19.99,-23.88,34.61,1
1050,20.0,-9.11,12.37,1
1051,20.01,21.93,-7.86,1
1052,20.03,19.61,31.73,1
1053,20.04,-0.67,16.59,1
1054,20.05,-3.39,8.87,1
1055,20.07,-7.18,46.83,1
1056,20.08,-5.97,32.65,1
1057,20.09,5.53,65.29,1
1058,20.11,-6.02,167.94,1
1059,20.12,-23.39,187.33,1
1060,20.13,-20.57,202.41,1
1061,20.15,-23.67,238.29,1
1062,20.16,-22.79,144.47,2
1063,20.17,3.42,51.41,2
1064,20.19,16.0,58.61,2
1065,20.2,4.42,3.88,2
1066,20.21,1.22,-58.03,2
1067,20.23,3.77,-49.78,2
1068,20.24,12.39,-102.91,2
1069,20.25,29.17,-146.86,2
1070,20.26,21.13,-103.02,2
1071,20.28,1.32,-109.4,2
1072,20.29,6.72,-119.49,2
1073,20.3,13.26,-71.5,2
1074,20.32,13.0,-92.33,2
1075,20.33,23.17,-110.14,2
1076,20.34,14.61,-48.61,2
1077,20.36,-9.14,-48.17,2
1078,20.37,-9.72,-65.69,2
1079,20.38,-7.73,-33.65,2
1080,20.4,-9.6,-68.57,2
1081,20.41,11.48,-92.08,2
1082,20.42,24.05,-32.55,2
1083,20.44,7.59,-40.57,2
1084,20.45,-2.09,-62.55,2
1085,20.46,1.03,-16.72,2
1086,20.48,6.37,-30.73,2
1087,20.49,8.56,-44.29,2
1088,20.5,-6.61,7.64,2
1089,20.52,-14.74,-18.82,2
1090,20.53,1.65,-52.52,2
1091,20.54,4.01,-5.29,2
1092,20.56,-3.15,-21.87,1
1093,20.57,6.79,-44.59,1
1094,20.59,2.44,16.8,1
1095,20.6,-13.53,15.88,1
1096,20.61,-9.67,-7.07,1
1097,20.63,-9.54,35.19,1
1098,20.64,-11.83,16.97,1
1099,20.65,5.53,-7.94,1
1100,20.67,4.91,37.46,1
1101,20.68,-18.98,13.43,1
1102,20.69,-26.41,-18.41,1
1103,20.71,-27.14,37.19,1
1104,20.72,-21.85,32.84,1
1105,20.73,0.34,6.99,1
1106,20.75,4.19,52.78,1
1107,20.76,0.16,36.44,1
1108,20.77,11.27,-0.78,1
1109,20.79,-4.34,35.59,1
1110,20.8,-25.42,19.34,1
1111,20.81,-2.13,-7.63,1
1112,20.83,15.48,37.67,1
1113,20.84,5.99,21.59,1
1114,20.85,9.29,-8.61,1
1115,20.87,6.5,42.45,1
1116,20.88,-10.0,37.94,1
1117,20.89,-8.72,7.15,1
1118,20.9,-7.47,46.57,1
1119,20.92,-11.31,37.17,1
1120,20.93,0.24,8.91,1
1121,20.94,3.75,44.27,1
1122,20.96,2.33,25.44,1
1123,20.97,14.99,-4.38,1
1124,20.98,8.16,37.77,1
1125,21.0,-5.87,21.63,1
1126,21.01,8.6,-9.33,1
1127,21.02,8.98,38.74,1
1128,21.04,-11.1,25.55,1
1129,21.05,-3.42,-21.57,1
1130,21.06,8.28,13.76,1
1131,21.08,0.79,17.24,1
1132,21.09,-0.81,-6.73,1
1133,21.1,-7.89,27.48,1
1134,21.12,-16.27,19.23,1
1135,21.13,1.88,-2.94,1
1136,21.14,12.07,40.49,1
1137,21.16,-0.7,33.98,1
1138,21.17,-5.43,5.49,1
1139,21.18,-12.87,37.11,1
1140,21.2,-15.72,17.6,1
1141,21.21,7.42,-12.68,1
1142,21.23,16.15,34.18,1
1143,21.24,4.34,21.41,1
1144,21.25,2.72,-30.94,1
1145,21.27,-7.66,-3.13,1
1146,21.28,-11.96,-1.23,1
1147,21.29,15.33,-32.51,1
1148,21.31,23.56,-1.65,1
1149,21.32,6.85,9.4,1
1150,21.33,9.2,3.64,1
1151,21.35,7.84,39.88,1
1152,21.36,-5.19,18.9,1
1153,21.37,-0.96,-20.04,1
1154,21.39,-3.64,16.7,1
1155,21.4,-11.91,13.87,1
1156,21.41,3.43,-22.86,1
1157,21.43,5.48,6.88,1
1158,21.44,-10.67,8.67,1
1159,21.45,-0.68,-18.55,1
1160,21.47,12.51,13.35,1
1161,21.48,8.58,8.09,1
1162,21.49,9.57,-29.3,1
1163,21.51,4.83,5.97,1
1164,21.52,-1.56,17.03,1
1165,21.53,6.63,-19.06,1
1166,21.54,2.3,-7.95,1
1167,21.56,-7.33,-17.36,1
1168,21.57,3.65,-42.13,1
1169,21.58,5.04,1.77,1
1170,21.6,-3.68,12.32,1
1171,21.61,5.31,-21.97,1
1172,21.62,7.39,3.96,1
1173,21.64,-0.61,12.3,1
1174,21.65,4.08,-18.64,1
1175,21.67,-4.98,2.09,1
1176,21.68,-23.25,5.81,1
1177,21.69,-8.54,-22.94,1
1178,21.7,12.32,1.67,1
1179,21.72,10.99,8.24,1
1180,21.73,10.37,-20.69,1
1181,21.75,6.09,-1.79,1
1182,21.76,-1.5,-2.15,1
1183,21.77,5.01,-31.97,1
1184,21.78,0.01,-9.59,1
1185,21.8,-14.44,-10.51,1
1186,21.81,-2.1,-42.07,1
1187,21.82,10.58,-8.44,1
1188,21.84,2.79,7.55,1
1189,21.85,2.74,-27.33,1
1190,21.87,3.49,-7.97,1
1191,21.88,-1.57,10.24,1
1192,21.89,7.66,-12.99,1
1193,21.91,11.25,6.1,1
1194,21.92,1.2,10.22,1
1195,21.93,-1.6,-31.46,1
1196,21.95,-13.0,-20.71,1
1197,21.96,-22.68,-5.6,1
1198,21.97,-1.59,-25.44,1
1199,21.99,10.98,0.37,1
1200,22.0,1.71,14.79,1
1201,22.01,8.29,-19.41,1
1202,22.03,10.21,-9.09,1
1203,22.04,-9.57,0.18,1
1204,22.05,-14.01,-30.42,1
1205,22.07,-1.54,-9.57,1
1206,22.08,5.36,17.22,1
1207,22.09,2.36,-3.59,1
1208,22.11,-13.18,6.68,1
1209,22.12,-17.38,10.69,1
1210,22.13,5.08,-28.01,1
1211,22.15,10.72,-16.97,1
1212,22.16,-6.71,-2.4,2
1213,22.17,-6.88,-47.33,2
1214,22.18,-2.08,-65.05,2
1215,22.2,5.75,-55.86,2
1216,22.21,40.55,-84.42,2
1217,22.22,48.63,-166.55,2
1218,22.24,11.99,-204.12,2
1219,22.25,7.46,-35.98,2
1220,22.26,29.05,193.09,2
1221,22.28,18.96,296.54,2
1222,22.29,-14.82,359.38,2
1223,22.3,-55.1,345.21,2
1224,22.32,-65.74,244.27,2
1225,22.33,-16.62,252.38,2
1226,22.34,22.42,346.21,2
1227,22.36,3.73,347.59,2
1228,22.37,-17.15,237.26,2
1229,22.38,-21.66,44.71,2
1230,22.4,-33.26,-156.21,2
1231,22.41,-31.56,-153.62,2
1232,22.42,-5.61,29.53,2
1233,22.44,13.81,67.72,2
1234,22.45,3.82,-77.12,2
1235,22.46,-22.71,-178.38,2
1236,22.48,-32.57,-205.26,2
1237,22.49,-17.42,-228.14,2
1238,22.5,-6.99,-230.83,2
1239,22.52,-10.67,-202.35,2
1240,22.53,-0.13,-180.57,2
1241,22.55,31.37,-166.59,1
1242,22.56,52.06,-136.52,1
1243,22.57,27.75,-85.26,1
1244,22.59,-26.2,-9.24,1
1245,22.6,-37.18,-2.1,1
1246,22.61,6.5,-97.01,1
1247,22.63,22.48,-104.6,1
1248,22.64,-5.41,-42.7,1
1249,22.65,-15.53,-116.38,1
1250,22.67,-3.44,-202.63,1
1251,22.68,5.35,-150.38,1
1252,22.69,7.11,-93.34,1
1253,22.71,-1.19,-90.02,1
1254,22.72,7.51,-79.73,1
1255,22.73,38.34,-59.47,1
1256,22.75,30.78,-33.84,1
1257,22.76,-9.29,-29.67,1
1258,22.77,-12.27,-34.88,1
1259,22.79,12.73,16.66,1
1260,22.8,19.02,26.56,1
1261,22.81,7.88,-73.04,1
1262,22.82,-7.61,-97.59,1
1263,22.84,-15.89,-15.56,1
1264,22.85,-5.37,23.26,1
1265,22.86,7.19,28.48,1
1266,22.88,9.16,6.64,1
1267,22.89,10.69,-45.0,1
1268,22.9,6.02,-9.11,1
1269,22.92,-0.21,45.01,1
1270,22.93,5.95,-22.3,1
1271,22.94,4.87,-71.6,1
1272,22.96,-6.3,-32.42,1
1273,22.97,-3.41,-6.47,1
1274,22.98,0.41,55.53,1
1275,23.0,-9.61,107.72,1
1276,23.01,-12.0,39.16,1
1277,23.02,-2.86,24.72,1
1278,23.04,2.08,69.68,1
1279,23.05,-1.99,-0.73,1
1280,23.06,-16.61,-3.14,1
1281,23.08,-23.2,107.34,1
1282,23.09,-1.17,65.97,1
1283,23.1,18.22,-28.28,1
1284,23.12,8.61,5.53,1
1285,23.13,-1.69,45.49,1
1286,23.14,-1.42,78.85,1
1287,23.16,-3.19,110.68,1
1288,23.17,3.23,32.51,1
1289,23.19,17.25,-2.71,1
1290,23.2,25.19,85.72,1
1291,23.21,26.38,53.29,1
1292,23.23,15.6,-47.89,1
1293,23.24,-0.02,5.93,1
1294,23.25,-5.79,96.42,1
1295,23.27,-13.72,112.94,1
1296,23.28,-21.45,80.42,1
1297,23.29,-11.64,-4.78,1
1298,23.31,-1.19,-11.2,1
1299,23.32,2.08,72.5,1
1300,23.33,11.74,50.88,1
1301,23.35,10.89,2.9,1
1302,23.36,-1.76,40.86,1
1303,23.37,5.92,31.33,1
1304,23.39,20.01,15.79,1
1305,23.4,11.51,57.38,1
1306,23.41,4.25,36.81,1
1307,23.43,8.7,18.31,1
1308,23.44,0.85,52.82,1
1309,23.45,-11.33,21.02,1
1310,23.46,-11.52,6.13,1
1311,23.48,-11.81,64.77,1
1312,23.49,-15.13,51.64,1
1313,23.5,-16.52,18.47,1
1314,23.52,-16.23,21.93,1
1315,23.53,-2.9,-32.27,1
1316,23.54,14.09,-8.04,1
1317,23.56,6.98,114.37,1
1318,23.57,-7.93,75.11,1
1319,23.58,-3.09,-18.64,1
1320,23.6,10.24,17.79,1
1321,23.61,13.32,6.48,1
1322,23.62,-1.55,-50.89,1
1323,23.64,-21.6,-20.17,1
1324,23.65,-20.27,-1.57,1
1325,23.67,-6.38,14.67,1
1326,23.68,-1.75,65.12,1
1327,23.69,1.73,14.3,1
1328,23.7,2.02,-29.6,1
1329,23.72,-9.14,52.74,1
1330,23.73,-9.42,57.77,1
1331,23.75,3.33,4.99,1
1332,23.76,-0.57,46.59,1
1333,23.77,-12.53,29.09,1
1334,23.78,-9.01,-60.24,1
1335,23.8,-1.15,-73.5,1
1336,23.81,1.54,-61.04,1
1337,23.83,-3.42,-22.58,1
1338,23.84,-11.47,24.93,1
1339,23.85,-1.7,-27.8,1
1340,23.87,12.28,-44.13,1
1341,23.88,5.63,43.66,1
1342,23.89,3.47,39.8,1
1343,23.91,11.85,1.4,1
1344,23.92,2.17,40.8,1
1345,23.93,-5.15,-8.09,1
1346,23.95,8.66,-72.64,1
1347,23.96,11.82,22.38,1
1348,23.97,0.73,75.82,1
1349,23.99,-5.14,30.18,1
1350,24.0,-5.54,43.48,1
1351,24.01,3.58,21.98,1
1352,24.03,14.32,-35.77,1
1353,24.04,9.55,0.21,1
1354,24.05,-0.21,14.79,1
1355,24.07,-6.8,-23.05,1
1356,24.08,-15.18,-15.91,1
1357,24.09,-11.65,-24.71,1
1358,24.1,1.02,-18.44,1
1359,24.12,-1.71,34.29,1
1360,24.13,-10.57,-4.76,1
1361,24.14,-9.61,-46.28,1
1362,24.16,-7.63,27.65,0
1363,24.17,-4.04,44.07,0
1364,24.18,-1.43,15.13,0
1365,24.2,-11.27,67.49,0
1366,24.21,-11.85,67.62,0
1367,24.22,11.73,9.39,0
1368,24.24,30.16,3.7,0
1369,24.25,29.32,-50.91,0
1370,24.26,15.58,-153.82,0
1371,24.28,-9.37,-208.62,0
1372,24.29,-24.53,-282.47,0
1373,24.3,-21.34,-324.31,0
1374,24.32,-15.58,-252.61,0
1375,24.33,5.55,-212.17,0
1376,24.34,33.03,-197.48,0
1377,24.36,23.95,-97.17,0
1378,24.37,0.33,-28.64,0
1379,24.38,-1.22,-15.2,0
1380,24.4,-1.48,36.7,0
1381,24.41,-4.35,50.92,0
1382,24.42,0.53,40.61,0
1383,24.44,-1.55,84.76,0
1384,24.45,-6.16,81.63,0
1385,24.465,-6.64,45.61,0
1386,24.48,-13.14,77.96,0
1387,24.49,-7.41,83.79,0
1388,24.51,16.07,51.39,0
1389,24.52,23.92,62.15,0
1390,24.53,16.24,42.24,0
1391,24.55,12.67,12.59,1
1392,24.56,8.75,55.39,1
1393,24.57,7.75,66.3,1
1394,24.59,11.42,44.18,1
1395,24.6,6.87,79.86,1
1396,24.61,5.25,79.62,1
1397,24.63,14.49,37.29,1
1398,24.64,14.42,51.42,1
1399,24.65,7.83,49.9,1
1400,24.67,5.58,28.01,1
1401,24.68,-1.11,62.62,1
1402,24.69,-2.97,61.81,1
1403,24.71,1.52,24.31,1
1404,24.72,-5.42,51.03,1
1405,24.73,-10.69,57.92,1
1406,24.75,-11.35,24.82,1
1407,24.76,-21.9,47.28,1
1408,24.77,-16.1,52.99,1
1409,24.78,6.69,16.76,1
1410,24.8,4.54,25.34,1
1411,24.81,-4.21,22.21,1
1412,24.82,9.2,-0.44,1
1413,24.84,13.49,33.52,1
1414,24.85,0.78,41.51,1
1415,24.86,-12.41,7.09,1
1416,24.88,-26.68,25.98,1
1417,24.89,-21.78,29.11,1
1418,24.9,0.79,-12.68,1
1419,24.92,4.48,-3.71,1
1420,24.93,2.55,8.65,1
1421,24.94,10.71,-7.84,1
1422,24.96,5.03,15.08,1
1423,24.97,-0.57,17.81,1
1424,24.98,4.0,-18.36,1
1425,25.0,-5.99,-2.55,1
1426,25.01,-5.65,7.5,1
1427,25.02,18.52,-24.21,1
1428,25.04,18.49,-11.26,1
1429,25.05,-0.96,-3.07,1
1430,25.06,-4.86,-33.0,1
1431,25.08,-6.89,-17.08,1
1432,25.09,-10.1,-8.42,1
1433,25.1,-12.34,-38.54,1
1434,25.12,-24.84,-16.37,1
1435,25.13,-17.31,-0.11,1
1436,25.15,11.54,-38.63,1
1437,25.16,9.08,-33.95,1
1438,25.17,-3.63,-17.44,1
1439,25.19,10.21,-36.6,1
1440,25.2,9.77,-10.36,1
1441,25.21,-7.56,14.28,1
1442,25.23,-6.18,-24.0,1
1443,25.24,0.42,-31.47,1
1444,25.25,2.31,-22.82,1
1445,25.27,-0.23,-51.67,1
1446,25.28,-12.79,-43.26,1
1447,25.29,-9.91,-24.5,1
1448,25.31,6.59,-43.43,1
1449,25.32,5.97,-20.91,1
1450,25.33,14.36,1.08,1
1451,25.35,30.38,-34.64,1
1452,25.36,-0.65,-26.84,1
1453,25.37,-39.25,-4.81,1
1454,25.38,-24.29,-43.03,1
1455,25.4,1.06,-38.32,1
1456,25.41,10.2,-0.38,1
1457,25.42,15.17,-17.26,1
1458,25.44,-3.3,-11.21,1
1459,25.45,-20.78,12.06,1
1460,25.46,-4.07,-21.16,1
1461,25.48,11.26,-27.67,1
1462,25.49,12.86,-8.37,1
1463,25.5,10.1,-32.58,1
1464,25.52,-12.16,-22.58,1
1465,25.53,-23.71,2.17,1
1466,25.54,-4.12,-38.4,1
1467,25.56,1.57,-44.58,1
1468,25.57,-4.98,-13.1,1
1469,25.58,3.3,-35.96,1
1470,25.6,3.51,-30.05,1
1471,25.61,0.33,6.89,1
1472,25.62,6.66,-15.96,1
1473,25.64,-2.41,-11.75,1
1474,25.65,-6.51,21.5,1
1475,25.67,8.62,-16.17,1
1476,25.68,2.87,-33.57,1
1477,25.69,-7.05,-6.27,1
1478,25.7,3.43,-25.84,1
1479,25.72,-1.75,-19.31,1
1480,25.73,-10.99,15.58,1
1481,25.75,0.5,-13.81,1
1482,25.76,-0.82,-12.7,1
1483,25.77,-5.35,27.54,1
1484,25.79,11.73,-6.96,1
1485,25.8,13.18,-22.69,1
1486,25.81,-2.22,11.4,1
1487,25.83,-3.27,-13.5,1
1488,25.84,-1.41,-16.01,1
1489,25.85,4.3,24.55,1
1490,25.87,14.58,-5.98,1
1491,25.88,2.49,-19.66,1
1492,25.89,-10.14,18.16,1
1493,25.91,-1.65,-4.79,1
1494,25.92,-3.88,-9.0,1
1495,25.93,-7.97,34.87,1
1496,25.95,2.54,4.62,1
1497,25.96,-0.99,-20.49,1
1498,25.97,-0.67,12.92,1
1499,25.99,18.87,-3.98,1
1500,26.0,10.15,-11.98,1
1501,26.01,-14.76,17.34,1
1502,26.02,-14.38,-14.97,1
1503,26.04,-13.36,-13.44,1
1504,26.05,-12.84,46.36,1
1505,26.06,4.24,17.92,1
1506,26.08,8.73,-13.41,1
1507,26.09,5.12,22.6,1
1508,26.1,8.87,6.23,1
1509,26.12,-5.98,-5.46,1
1510,26.13,-16.02,30.68,1
1511,26.14,6.28,12.73,1
1512,26.16,16.91,10.08,0
1513,26.17,15.65,23.22,0
1514,26.18,28.75,-72.47,0
1515,26.2,21.53,-133.6,0
1516,26.21,2.7,-90.24,0
1517,26.22,7.2,-116.41,0
1518,26.24,0.86,-149.72,0
1519,26.25,-10.97,-112.68,0
1520,26.26,10.32,-123.15,0
1521,26.28,27.61,-102.94,0
1522,26.29,19.53,-12.44,0
1523,26.3,6.6,-15.56,0
1524,26.32,-19.59,-36.35,0
1525,26.33,-42.26,20.21,0
1526,26.34,-34.57,33.54,0
1527,26.36,-18.25,45.74,0
1528,26.37,-3.79,97.98,0
1529,26.38,3.16,83.66,0
1530,26.4,-11.57,95.83,0
1531,26.41,-10.87,167.0,0
1532,26.43,9.53,134.95,0
1533,26.44,-10.38,101.5,0
1534,26.45,-35.44,162.54,0
1535,26.47,-4.04,154.41,0
1536,26.48,20.49,121.24,0
1537,26.49,8.3,153.29,0
1538,26.51,13.59,125.04,0
1539,26.52,17.98,85.2,0
1540,26.53,3.3,107.16,0
1541,26.55,6.31,74.22,1
1542,26.56,10.28,54.35,1
1543,26.57,3.61,110.81,1
1544,26.59,10.01,90.19,1
1545,26.6,11.17,47.43,1
1546,26.61,2.9,79.72,1
1547,26.63,-0.97,61.1,1
1548,26.64,-10.59,27.44,1
1549,26.65,-3.46,53.8,1
1550,26.67,22.11,29.21,1
1551,26.68,14.45,5.24,1
1552,26.69,-3.74,39.86,1
1553,26.7,11.34,9.98,1
1554,26.72,16.36,-15.68,1
1555,26.73,0.93,25.54,1
1556,26.75,2.3,-7.43,1
1557,26.76,4.96,-38.7,1
1558,26.77,3.03,13.23,1
1559,26.78,3.96,-10.0,1
1560,26.8,-15.64,-51.83,1
1561,26.81,-24.61,-6.98,1
1562,26.82,5.3,-14.77,1
1563,26.84,18.13,-37.04,1
1564,26.85,6.22,13.87,1
1565,26.86,2.69,-7.99,1
1566,26.88,-12.1,-62.68,1
1567,26.89,-24.46,-30.15,1
1568,26.9,-9.89,-27.98,1
1569,26.92,-4.09,-46.65,1
1570,26.93,-3.28,-16.44,1
1571,26.94,9.07,-46.19,1
1572,26.96,-4.78,-76.04,1
1573,26.97,-20.1,-26.1,1
1574,26.98,2.45,-37.94,1
1575,27.0,3.44,-67.25,1
1576,27.01,-23.74,-21.96,1
1577,27.02,-17.07,-37.71,1
1578,27.04,3.67,-74.81,1
1579,27.05,10.43,-34.36,1
1580,27.065,14.83,-44.63,1
1581,27.08,1.76,-73.7,1
1582,27.09,-19.22,-27.64,1
1583,27.11,-23.49,-30.82,1
1584,27.12,-26.03,-56.44,1
1585,27.13,-18.55,-16.33,1
1586,27.15,1.25,-25.81,1
1587,27.16,-5.6,-50.86,1
1588,27.17,-13.42,-11.67,1
1589,27.19,13.84,-31.0,1
1590,27.2,23.12,-63.9,1
1591,27.21,3.47,-13.29,1
1592,27.23,1.3,-11.05,1
1593,27.24,-4.03,-40.4,1
1594,27.25,-19.12,-9.68,1
1595,27.27,-10.22,-29.05,1
1596,27.28,-2.23,-63.52,1
1597,27.29,-1.29,-18.03,1
1598,27.3,13.9,-18.14,1
1599,27.32,12.35,-50.57,1
1600,27.33,5.61,-15.91,1
1601,27.34,21.57,-19.44,1
1602,27.36,16.28,-48.18,1
1603,27.37,-2.5,-9.53,1
1604,27.38,3.42,-10.88,1
1605,27.4,0.53,-43.67,1
1606,27.41,-9.77,-8.78,1
1607,27.42,-1.33,0.02,1
1608,27.44,-4.83,-18.04,1
1609,27.45,-11.35,10.62,1
1610,27.46,5.54,-4.75,1
1611,27.48,8.44,-33.95,1
1612,27.49,-1.2,4.22,1
1613,27.5,6.64,-2.76,1
1614,27.52,6.63,-31.37,1
1615,27.53,2.11,16.74,1
1616,27.54,15.61,22.76,1
1617,27.56,12.19,-17.39,1
1618,27.57,-6.52,5.7,1
1619,27.58,-4.27,9.28,1
1620,27.6,-1.39,-12.08,1
1621,27.61,-2.82,22.74,1
1622,27.62,8.31,18.97,1
1623,27.64,1.82,-21.49,1
1624,27.65,-15.25,0.88,1
1625,27.67,-4.67,6.41,1
1626,27.68,5.9,-9.58,1
1627,27.69,3.01,33.34,1
1628,27.7,9.52,41.97,1
1629,27.72,4.53,6.45,1
1630,27.73,-8.6,18.47,1
1631,27.75,1.63,7.38,1
1632,27.76,7.14,-21.63,1
1633,27.77,-2.38,16.98,1
1634,27.79,2.64,23.01,1
1635,27.8,2.73,-15.71,1
1636,27.81,-9.91,13.12,1
1637,27.83,-5.67,35.87,1
1638,27.84,1.69,14.24,1
1639,27.85,3.08,25.98,1
1640,27.87,9.23,17.33,1
1641,27.88,-2.92,-9.37,1
1642,27.89,-19.97,25.87,1
1643,27.91,-9.75,34.76,1
1644,27.92,-1.73,0.28,1
1645,27.93,0.08,22.61,1
1646,27.94,14.93,30.7,1
1647,27.96,8.89,-4.37,1
1648,27.97,-11.23,14.46,1
1649,27.98,-3.52,28.32,1
1650,28.0,3.76,2.1,1
1651,28.01,1.79,17.32,1
1652,28.02,16.9,17.26,1
1653,28.04,14.65,-17.29,1
1654,28.05,-6.87,11.29,1
1655,28.06,-3.76,38.73,1
1656,28.08,-3.44,9.88,1
1657,28.09,-18.01,9.24,1
1658,28.1,-6.92,5.89,1
1659,28.12,11.51,-21.65,1
1660,28.13,14.97,9.31,1
1661,28.14,20.15,40.66,1
1662,28.16,17.92,30.38,2
1663,28.17,10.65,76.79,2
1664,28.18,11.22,145.34,2
1665,28.2,-0.75,171.41,2
1666,28.21,-13.0,204.16,2
1667,28.22,-1.39,196.86,2
1668,28.24,1.39,132.44,2
1669,28.25,-9.09,122.42,2
1670,28.26,-0.56,122.31,2
1671,28.28,8.22,60.33,2
1672,28.29,0.68,19.34,2
1673,28.3,-6.47,-17.22,2
1674,28.32,-14.39,-93.56,2
1675,28.33,-11.7,-124.08,2
1676,28.34,9.49,-123.89,2
1677,28.36,10.89,-141.17,2
1678,28.37,-6.62,-113.06,2
1679,28.39,-7.01,-88.17,2
1680,28.4,-5.91,-118.7,2
1681,28.41,-9.65,-99.78,2
1682,28.43,-0.35,-61.39,2
1683,28.44,-0.9,-87.19,2
1684,28.45,-13.71,-85.36,2
1685,28.47,-12.54,-64.19,2
1686,28.48,-9.57,-98.52,2
1687,28.49,-2.43,-98.42,2
1688,28.51,18.19,-64.58,2
1689,28.52,15.14,-73.5,2
1690,28.53,-6.53,-57.25,2
1691,28.55,-6.52,-30.64,1
1692,28.56,-3.13,-58.89,1
1693,28.57,-3.71,-49.96,1
1694,28.58,8.77,-13.33,1
1695,28.6,6.22,-31.05,1
1696,28.61,-7.39,-24.15,1
1697,28.62,7.19,-0.44,1
1698,28.64,20.3,-31.65,1
1699,28.65,6.42,-23.47,1
1700,28.67,1.26,10.71,1
1701,28.68,6.67,-22.57,1
1702,28.69,4.24,-20.24,1
1703,28.7,2.34,23.06,1
1704,28.72,-3.4,-2.97,1
1705,28.73,-9.06,-10.02,1
1706,28.75,0.63,24.73,1
1707,28.76,4.18,1.09,1
1708,28.77,-5.67,-3.42,1
1709,28.78,-4.77,30.12,1
1710,28.8,-2.24,4.77,1
1711,28.81,-4.5,0.43,1
1712,28.82,4.76,35.33,1
1713,28.84,7.45,13.21,1
1714,28.85,-4.59,16.06,1
1715,28.86,-7.37,54.36,1
1716,28.88,-9.87,20.83,1
1717,28.89,-17.15,7.48,1
1718,28.9,-9.83,43.96,1
1719,28.92,-3.88,19.71,1
1720,28.93,-5.01,13.05,1
1721,28.94,8.25,47.16,1
1722,28.96,14.37,12.77,1
1723,28.97,2.4,0.67,1
1724,28.98,0.26,43.55,1
1725,29.0,-1.43,22.17,1
1726,29.01,-13.29,17.63,1
1727,29.03,-13.55,61.85,1
1728,29.04,-9.12,29.36,1
1729,29.05,-9.68,3.85,1
1730,29.07,-2.24,37.98,1
1731,29.08,1.57,15.56,1
1732,29.09,-2.83,2.75,1
1733,29.11,2.34,38.5,1
1734,29.12,4.26,16.28,1
1735,29.13,-1.8,16.31,1
1736,29.15,3.46,61.34,1
1737,29.16,2.99,18.67,1
1738,29.17,-6.31,-11.2,1
1739,29.19,0.65,33.96,1
1740,29.2,3.58,12.7,1
1741,29.21,-6.24,-8.42,1
1742,29.22,-0.72,33.71,1
1743,29.24,0.79,12.74,1
1744,29.25,-17.18,-6.35,1
1745,29.26,-21.48,35.46,1
1746,29.28,-8.89,12.96,1
1747,29.29,4.2,-9.38,1
1748,29.3,14.83,25.68,1
1749,29.32,7.07,-0.42,1
1750,29.33,-10.03,-10.46,1
1751,29.34,-5.21,45.88,1
1752,29.36,7.28,25.54,1
1753,29.37,9.29,-2.44,1
1754,29.38,13.15,28.57,1
1755,29.4,7.78,-5.3,1
1756,29.41,-9.07,-27.18,1
1757,29.42,-7.26,26.16,1
1758,29.44,3.61,17.16,1
1759,29.45,1.94,4.34,1
1760,29.46,3.2,44.22,1
1761,29.48,6.35,12.18,1
1762,29.49,3.05,-12.53,1
1763,29.5,10.54,28.29,1
1764,29.52,19.15,-5.0,1
1765,29.53,9.34,-28.52,1
1766,29.54,4.12,29.59,1
1767,29.56,11.06,15.6,1
1768,29.57,11.08,-9.79,1
1769,29.58,9.76,27.8,1
1770,29.6,6.66,-6.62,1
1771,29.61,-9.3,-38.32,1
1772,29.62,-21.69,12.08,1
1773,29.64,-18.66,-2.21,1
1774,29.65,-4.81,-24.74,1
1775,29.67,14.43,18.24,1
1776,29.68,17.36,-13.6,1
1777,29.69,0.68,-49.5,1
1778,29.71,-2.31,-1.53,1
1779,29.72,6.81,-14.74,1
1780,29.73,4.94,-39.18,1
1781,29.75,4.24,8.54,1
1782,29.76,9.0,-6.34,1
1783,29.77,8.66,-35.41,1
1784,29.79,10.0,3.88,1
1785,29.8,6.53,-10.38,1
1786,29.81,-6.16,-26.6,1
1787,29.83,-7.44,19.73,1
1788,29.84,-2.9,-5.27,1
1789,29.85,-5.95,-35.25,1
1790,29.86,-0.5,13.91,1
1791,29.88,5.29,-0.83,1
1792,29.89,-5.04,-34.66,1
1793,29.9,-5.9,2.12,1
1794,29.92,6.66,-13.43,1
1795,29.93,5.07,-35.91,1
1796,29.94,-2.63,8.42,1
1797,29.96,-2.88,-10.62,1
1798,29.97,-6.21,-36.25,1
1799,29.98,-10.17,11.1,1
1800,30.0,-7.68,-10.4,1
1801,30.01,1.15,-46.47,1
1802,30.02,13.17,-1.54,1
1803,30.04,3.47,-11.58,1
1804,30.05,-30.79,-35.6,1
1805,30.06,-39.83,14.61,1
1806,30.08,-18.48,3.13,1
1807,30.09,-8.97,-29.32,1
1808,30.1,-1.28,10.85,1
1809,30.12,16.56,-6.58,1
1810,30.13,17.52,-38.31,1
1811,30.14,7.59,12.69,1
1812,30.16,1.53,7.44,2
1813,30.17,-8.42,-18.71,2
1814,30.18,-7.42,42.06,2
1815,30.2,8.96,46.92,2
1816,30.21,18.52,15.09,2
1817,30.22,28.0,77.92,2
1818,30.24,38.58,100.57,2
1819,30.25,25.17,46.06,2
1820,30.26,2.13,61.65,2
1821,30.28,-1.83,81.46,2
1822,30.29,8.61,26.9,2
1823,30.3,22.38,19.37,2
1824,30.32,24.06,91.28,2
1825,30.33,8.77,140.27,2
1826,30.35,2.52,56.92,2
1827,30.36,5.13,-126.59,2
1828,30.37,-8.61,-118.48,2
1829,30.39,-25.57,150.02,2
1830,30.4,-32.09,259.34,2
1831,30.41,-36.04,38.11,2
1832,30.43,-20.43,-144.22,2
1833,30.44,14.02,-87.98,2
1834,30.45,25.57,-13.75,2
1835,30.47,5.35,-85.47,2
1836,30.48,-19.07,-129.74,2
1837,30.49,-32.15,32.67,2
1838,30.5,-26.2,120.25,2
1839,30.52,-4.84,-100.55,2
1840,30.53,12.01,-222.6,2
1841,30.54,19.48,-64.02,2
1842,30.56,11.37,-39.09,1
1843,30.57,-15.83,-142.46,1
1844,30.58,-34.44,-93.03,1
1845,30.6,-33.14,-64.7,1
1846,30.61,-22.07,-146.07,1
1847,30.62,-2.93,-131.91,1
1848,30.64,3.85,-43.1,1
1849,30.65,-14.15,-4.86,1
1850,30.67,-16.26,-38.55,1
1851,30.68,3.94,-129.52,1
1852,30.69,0.51,-138.16,1
1853,30.7,-10.34,-8.68,1
1854,30.72,-0.21,66.64,1
1855,30.73,4.32,39.75,1
1856,30.75,2.58,9.77,1
1857,30.76,-7.36,-29.19,1
1858,30.77,-34.29,-31.05,1
1859,30.78,-21.72,14.13,1
1860,30.8,24.48,-9.44,1
1861,30.81,18.19,-51.96,1
1862,30.82,-13.29,-42.23,1
1863,30.84,-6.12,-47.61,1
1864,30.85,13.0,-16.21,1
1865,30.86,26.13,56.1,1
1866,30.88,28.97,4.09,1
1867,30.89,8.17,-84.89,1
1868,30.9,-3.07,-24.77,1
1869,30.92,8.11,12.38,1
1870,30.93,8.46,-71.62,1
1871,30.94,1.94,-67.7,1
1872,30.96,-0.16,14.62,1
1873,30.97,-8.7,31.27,1
1874,30.99,-7.81,25.44,1
1875,31.0,4.98,29.31,1
1876,31.01,4.77,36.02,1
1877,31.03,9.31,51.04,1
1878,31.04,26.76,28.58,1
1879,31.05,19.47,25.86,1
1880,31.07,-3.45,89.07,1
1881,31.08,-9.18,56.04,1
1882,31.09,-5.35,-54.67,1
1883,31.11,7.43,-28.36,1
1884,31.12,19.44,54.47,1
1885,31.13,8.73,28.08,1
1886,31.14,6.33,-38.21,1
1887,31.16,17.4,-59.41,1
1888,31.17,-2.65,-18.5,1
1889,31.18,-19.29,40.03,1
1890,31.2,7.2,22.72,1
1891,31.21,19.77,0.07,1
1892,31.22,4.77,85.76,1
1893,31.24,6.03,140.67,1
1894,31.25,11.27,73.41,1
1895,31.26,14.83,41.73,1
1896,31.28,30.95,72.58,1
1897,31.29,27.17,73.2,1
1898,31.3,-2.79,66.77,1
1899,31.32,-20.27,28.61,1
1900,31.33,-16.2,-39.66,1
1901,31.34,5.18,-20.97,1
1902,31.36,23.95,23.92,1
1903,31.37,6.8,2.93,1
1904,31.38,-16.09,-4.15,1
1905,31.4,-11.26,2.29,1
1906,31.41,-7.39,14.17,1
1907,31.42,-1.38,64.48,1
1908,31.44,13.29,35.83,1
1909,31.45,-2.69,-55.36,1
1910,31.46,-26.44,-12.9,1
1911,31.48,-15.91,81.69,1
1912,31.49,-6.51,47.17,1
1913,31.5,-6.65,-11.41,1
1914,31.52,3.67,5.21,1
1915,31.53,-2.71,23.55,1
1916,31.54,-7.36,12.71,1
1917,31.56,26.84,-26.93,1
1918,31.57,46.47,-58.11,1
1919,31.58,12.29,-7.96,1
1920,31.6,-35.08,59.45,1
1921,31.61,-46.74,72.94,1
1922,31.63,-18.69,68.52,1
1923,31.64,-4.22,14.08,1
1924,31.65,-15.18,-55.21,1
1925,31.67,-3.78,0.37,1
1926,31.68,4.88,82.46,1
1927,31.69,-18.9,46.71,1
1928,31.71,-22.51,21.22,1
1929,31.72,-8.16,49.67,1
1930,31.73,-17.7,18.06,1
1931,31.75,-15.83,-4.83,1
1932,31.76,8.61,31.05,1
1933,31.77,10.26,33.44,1
1934,31.78,7.36,27.75,1
1935,31.8,14.73,26.47,1
1936,31.81,-0.15,7.78,1
1937,31.82,-12.64,52.65,1
1938,31.84,-3.59,90.37,1
1939,31.85,-2.82,19.45,1
1940,31.86,-1.85,-31.04,1
1941,31.88,-3.44,-26.93,1
1942,31.89,-21.66,-36.24,1
1943,31.9,-18.59,7.71,1
1944,31.92,0.32,50.35,1
1945,31.93,1.15,-4.77,1
1946,31.94,7.11,-29.7,1
1947,31.96,10.34,-18.59,1
1948,31.97,-4.11,-62.64,1
1949,31.98,2.58,-47.03,1
1950,32.0,9.34,-0.67,1
1951,32.01,-13.81,-45.01,1
1952,32.03,-12.41,-40.38,1
1953,32.04,9.34,-6.13,1
1954,32.05,0.34,-83.05,1
1955,32.06,-7.38,-81.34,1
1956,32.08,-1.04,37.37,1
1957,32.09,-6.58,46.84,1
1958,32.11,5.38,24.47,1
1959,32.12,23.27,45.09,1
1960,32.13,-0.55,-38.01,1
1961,32.15,-22.77,-102.7,1
1962,32.16,-14.2,-18.46,0
1963,32.17,-12.02,32.3,0
1964,32.19,-6.08,13.35,0
1965,32.2,7.62,9.49,0
1966,32.21,-0.23,-5.96,0
1967,32.22,6.44,27.11,0
1968,32.24,37.9,78.43,0
1969,32.25,29.29,22.36,0
1970,32.27,-0.86,-6.7,0
1971,32.28,0.52,39.09,0
1972,32.29,2.47,-6.97,0
1973,32.31,1.43,-67.42,0
1974,32.32,16.23,-79.3,0
1975,32.33,13.48,-164.84,0
1976,32.35,2.92,-230.56,0
1977,32.36,9.39,-221.61,0
1978,32.37,6.53,-263.02,0
1979,32.39,3.15,-256.6,0
1980,32.4,10.27,-160.03,0
1981,32.41,10.09,-136.45,0
1982,32.43,17.97,-110.36,0
1983,32.44,16.41,-22.38,0
1984,32.45,-17.84,-11.42,0
1985,32.47,-24.86,6.15,0
1986,32.48,4.38,87.67,0
1987,32.49,9.03,78.45,0
1988,32.51,2.9,52.84,0
1989,32.52,4.92,95.11,0
1990,32.53,-10.82,76.36,0
1991,32.54,-18.9,62.49,0
1992,32.56,-2.3,112.87,1
1993,32.57,-1.26,89.41,1
1994,32.59,-7.31,69.08,1
1995,32.6,6.11,114.94,1
1996,32.61,9.15,83.09,1
1997,32.63,-2.18,60.88,1
1998,32.64,-4.5,115.86,1
1999,32.65,-4.24,80.71,1
2000,32.67,3.09,40.49,1
2001,32.68,8.62,95.14,1
2002,32.69,-4.47,75.6,1
2003,32.71,-2.19,30.49,1
2004,32.72,7.16,69.35,1
2005,32.73,-10.42,61.66,1
2006,32.75,-8.94,42.69,1
2007,32.76,9.91,83.72,1
2008,32.77,-7.39,58.88,1
2009,32.79,-17.99,30.12,1
2010,32.8,-3.71,69.22,1
2011,32.81,-12.79,44.09,1
2012,32.83,-12.39,25.85,1
2013,32.84,12.37,78.55,1
2014,32.85,11.53,44.68,1
2015,32.87,12.33,0.42,1
2016,32.88,28.39,46.85,1
2017,32.89,15.37,34.39,1
2018,32.9,6.36,6.61,1
2019,32.92,13.39,48.66,1
2020,32.93,-9.38,25.89,1
2021,32.95,-17.22,-1.66,1
2022,32.96,7.15,49.09,1
2023,32.97,-0.8,25.21,1
2024,32.99,-13.57,-13.32,1
2025,33.0,-4.54,36.96,1
2026,33.01,-16.54,21.62,1
2027,33.03,-15.55,-20.64,1
2028,33.04,12.57,12.66,1
2029,33.05,9.2,-12.53,1
2030,33.06,-0.35,-49.47,1
2031,33.08,9.01,-5.15,1
2032,33.09,-0.31,-16.76,1
2033,33.11,-0.68,-38.05,1
2034,33.12,17.96,14.8,1
2035,33.13,6.31,-6.31,1
2036,33.15,-4.65,-48.93,1
2037,33.16,8.98,-5.31,1
2038,33.17,-0.17,-12.32,1
2039,33.19,-14.97,-37.78,1
2040,33.2,-9.57,4.37,1
2041,33.21,-11.7,-17.84,1
2042,33.22,-4.33,-51.98,1
2043,33.24,11.13,-3.09,1
2044,33.25,-4.72,-18.82,1
2045,33.27,-13.07,-61.12,1
2046,33.28,0.39,-20.8,1
2047,33.29,-13.0,-25.55,1
2048,33.31,-18.59,-46.67,1
2049,33.32,6.09,-0.16,1
2050,33.33,5.94,-19.66,1
2051,33.35,-1.96,-60.5,1
2052,33.36,7.51,-21.33,1
2053,33.37,-0.27,-33.04,1
2054,33.38,-1.99,-62.31,1
2055,33.4,7.28,-17.89,1
2056,33.41,-16.12,-33.91,1
2057,33.43,-22.9,-70.66,1
2058,33.44,8.76,-22.43,1
2059,33.45,9.02,-25.31,1
2060,33.47,-0.93,-59.22,1
2061,33.48,13.71,-20.42,1
2062,33.49,7.09,-28.85,1
2063,33.51,-2.17,-60.67,1
2064,33.52,9.85,-15.38,1
2065,33.53,0.89,-17.77,1
2066,33.54,-5.27,-54.36,1
2067,33.56,11.03,-19.92,1
2068,33.57,4.86,-23.6,1
2069,33.59,1.35,-51.96,1
2070,33.6,16.81,-10.05,1
2071,33.61,-1.54,-12.13,1
2072,33.63,-21.45,-44.86,1
2073,33.64,-3.43,-8.23,1
2074,33.65,3.24,-13.11,1
2075,33.67,3.5,-50.71,1
2076,33.68,14.37,-18.28,1
2077,33.69,0.2,-16.25,1
2078,33.71,-4.41,-39.98,1
2079,33.72,17.5,-3.1,1
2080,33.73,5.21,-13.93,1
2081,33.75,-13.59,-54.93,1
2082,33.76,-4.01,-14.9,1
2083,33.77,-14.55,-5.92,1
2084,33.79,-18.63,-43.27,1
2085,33.8,11.39,-17.08,1
2086,33.81,10.57,-8.21,1
2087,33.83,-9.41,-28.04,1
2088,33.84,-7.13,10.11,1
2089,33.85,-18.22,12.55,1
2090,33.87,-20.06,-28.48,1
2091,33.88,13.18,-6.82,1
2092,33.89,15.83,3.3,1
2093,33.9,-5.39,-12.88,1
2094,33.92,-2.1,24.52,1
2095,33.93,-4.91,25.02,1
2096,33.95,-7.94,-15.92,1
2097,33.96,5.7,9.2,1
2098,33.97,-5.52,19.57,1
2099,33.99,-12.64,-12.68,1
2100,34.0,13.48,4.32,1
2101,34.01,12.96,5.13,1
2102,34.03,-0.31,-19.78,1
2103,34.04,5.04,18.53,1
2104,34.05,-20.53,32.98,1
2105,34.06,-40.59,-0.18,1
2106,34.08,-5.65,20.92,1
2107,34.09,8.19,30.19,1
2108,34.11,-7.15,2.77,1
2109,34.12,6.14,26.99,1
2110,34.13,14.17,29.98,1
2111,34.15,5.99,-10.9,1
2112,34.16,10.49,9.39,0
2113,34.17,5.25,22.12,0
2114,34.19,2.24,-26.84,0
2115,34.2,9.58,-45.46,0
2116,34.21,-9.67,-65.89,0
2117,34.23,-7.76,-109.23,0
2118,34.24,38.65,-92.12,0
2119,34.25,53.19,-80.57,0
2120,34.27,51.28,-120.81,0
2121,34.28,66.41,-116.18,0
2122,34.29,41.95,-98.43,0
2123,34.31,-0.92,-105.47,0
2124,34.32,-13.13,-56.12,0
2125,34.33,-26.63,-4.25,0
2126,34.35,-31.04,-6.13,0
2127,34.36,-13.55,30.05,0
2128,34.37,-17.98,71.66,0
2129,34.38,-23.68,60.38,0
2130,34.4,-10.75,84.55,0
2131,34.41,-19.58,119.87,0
2132,34.43,-24.72,108.12,0
2133,34.44,-10.3,129.46,0
2134,34.45,-22.42,155.69,0
2135,34.47,-23.31,130.99,0
2136,34.48,9.36,140.93,0
2137,34.49,6.57,159.09,0
2138,34.51,-12.23,129.53,0
2139,34.52,-1.38,136.17,0
2140,34.53,-6.04,142.74,0
2141,34.54,-22.23,93.41,0
2142,34.56,-8.58,93.95,1
2143,34.57,3.35,114.08,1
2144,34.59,2.67,73.03,1
2145,34.6,13.25,67.94,1
2146,34.61,6.61,85.86,1
2147,34.63,-13.66,48.22,1
2148,34.64,-3.15,40.79,1
2149,34.65,11.2,52.8,1
2150,34.67,0.65,19.99,1
2151,34.68,-8.96,30.97,1
2152,34.69,-12.56,53.82,1
2153,34.71,-8.19,4.4,1
2154,34.72,9.44,-3.97,1
2155,34.73,9.66,27.68,1
2156,34.75,-0.2,-4.84,1
2157,34.76,9.74,-11.92,1
2158,34.77,10.24,14.87,1
2159,34.79,2.17,-20.88,1
2160,34.8,8.97,-28.95,1
2161,34.81,0.76,1.26,1
2162,34.83,-4.07,-28.98,1
2163,34.84,14.82,-32.22,1
2164,34.85,4.73,-1.13,1
2165,34.87,-7.91,-39.62,1
2166,34.88,14.3,-53.03,1
2167,34.89,8.73,-20.63,1
2168,34.91,-10.4,-50.29,1
2169,34.92,6.21,-59.25,1
2170,34.93,5.85,-23.0,1
2171,34.95,-13.44,-41.38,1
2172,34.96,-9.0,-40.61,1
2173,34.97,-10.98,-9.24,1
2174,34.99,-12.26,-44.8,1
2175,35.0,7.39,-57.61,1
2176,35.01,1.34,-27.3,1
2177,35.03,-4.6,-52.92,1
2178,35.04,24.04,-44.78,1
2179,35.05,14.47,0.35,1
2180,35.06,-27.31,-39.74,1
2181,35.08,-22.62,-54.28,1
2182,35.09,1.77,-6.55,1
2183,35.11,10.66,-35.73,1
2184,35.12,22.57,-57.81,1
2185,35.13,27.7,-19.0,1
2186,35.15,25.51,-37.93,1
2187,35.16,15.95,-44.01,1
2188,35.17,-17.24,-2.64,1
2189,35.19,-26.19,-29.33,1
2190,35.2,1.73,-39.25,1
2191,35.21,-3.89,4.96,1
2192,35.22,-21.83,-21.75,1
2193,35.24,-8.18,-39.21,1
2194,35.25,-8.03,-7.03,1
2195,35.27,-13.53,-44.62,1
2196,35.28,1.94,-59.72,1
2197,35.29,-4.34,-8.32,1
2198,35.31,-16.58,-26.89,1
2199,35.32,-2.6,-37.63,1
2200,35.33,0.76,4.12,1
2201,35.35,4.4,-27.46,1
2202,35.36,20.39,-39.75,1
2203,35.37,6.47,11.12,1
2204,35.38,-3.12,-18.99,1
2205,35.4,15.99,-41.64,1
2206,35.41,1.86,2.29,1
2207,35.43,-16.4,-21.35,1
2208,35.44,9.9,-28.65,1
2209,35.45,15.28,22.61,1
2210,35.47,-4.81,-15.9,1
2211,35.48,1.28,-42.88,1
2212,35.49,2.66,12.29,1
2213,35.51,-3.45,-8.89,1
2214,35.52,7.98,-31.71,1
2215,35.53,2.1,20.19,1
2216,35.55,-9.16,3.01,1
2217,35.56,5.16,-17.48,1
2218,35.57,8.63,24.16,1
2219,35.59,3.25,-8.94,1
2220,35.6,6.57,-34.26,1
2221,35.61,-7.98,19.2,1
2222,35.63,-9.63,-0.49,1
2223,35.64,17.97,-24.04,1
2224,35.65,10.14,26.27,1
2225,35.67,-11.16,6.22,1
2226,35.68,7.71,-16.6,1
2227,35.69,14.61,33.67,1
2228,35.71,-3.53,11.43,1
2229,35.72,-6.18,-15.69,1
2230,35.73,-10.29,31.47,1
2231,35.75,-11.45,6.72,1
2232,35.76,5.76,-21.5,1
2233,35.77,4.99,32.26,1
2234,35.79,0.43,17.77,1
2235,35.8,16.04,-7.65,1
2236,35.81,10.17,41.18,1
2237,35.83,-6.35,17.93,1
2238,35.84,-1.07,-18.89,1
2239,35.85,-6.7,21.77,1
2240,35.87,-15.65,0.54,1
2241,35.88,-4.29,-23.73,1
2242,35.89,-6.87,29.02,1
2243,35.9,-10.04,8.6,1
2244,35.92,9.71,-17.8,1
2245,35.93,9.65,41.5,1
2246,35.95,-3.08,24.02,1
2247,35.96,6.4,-17.49,1
2248,35.97,8.23,26.06,1
2249,35.99,-0.0,13.9,1
2250,36.0,6.2,-13.36,1
2251,36.01,6.55,33.77,1
2252,36.03,2.68,19.87,1
2253,36.04,5.74,-4.66,1
2254,36.05,-9.64,43.18,1
2255,36.06,-21.23,22.24,1
2256,36.08,-7.32,-8.29,1
2257,36.09,-12.8,40.33,1
2258,36.11,-19.72,13.74,1
2259,36.12,9.21,-29.48,1
2260,36.13,16.92,26.15,1
2261,36.15,-4.86,28.51,1
2262,36.16,-5.83,-4.08,2
2263,36.17,-5.61,31.9,2
2264,36.19,-5.57,32.0,2
2265,36.2,16.94,51.43,2
2266,36.21,22.21,167.12,2
2267,36.23,9.43,210.28,2
2268,36.24,15.87,195.59,2
2269,36.25,21.68,221.88,2
2270,36.27,16.21,175.42,2
2271,36.28,5.78,102.51,2
2272,36.29,-24.24,100.67,2
2273,36.31,-36.17,42.2,2
2274,36.32,-4.15,-33.3,2
2275,36.33,6.37,-28.9,2
2276,36.35,-14.19,-78.45,2
2277,36.36,-12.16,-145.1,2
2278,36.37,-7.98,-121.73,2
2279,36.38,-17.02,-135.33,2
2280,36.4,-13.24,-162.16,2
2281,36.41,-16.93,-112.75,2
2282,36.43,-27.89,-115.51,2
2283,36.44,-14.02,-139.01,2
2284,36.45,1.72,-91.11,2
2285,36.47,8.7,-95.87,2
2286,36.48,21.77,-113.31,2
2287,36.49,11.86,-48.49,2
2288,36.51,-9.98,-39.16,2
2289,36.52,2.02,-62.99,2
2290,36.53,17.9,-24.7,2
2291,36.54,14.16,-46.35,2
2292,36.56,15.71,-89.5,1
2293,36.57,11.71,-42.09,1
2294,36.59,2.78,-35.92,1
2295,36.6,6.97,-67.61,1
2296,36.61,-2.71,-25.29,1
2297,36.63,-20.05,-14.95,1
2298,36.64,-7.89,-37.53,1
2299,36.65,9.85,-1.81,1
2300,36.67,16.0,-11.63,1
2301,36.68,21.12,-48.63,1
2302,36.69,5.05,-8.31,1
2303,36.71,-15.64,1.01,1
2304,36.72,-3.04,-20.34,1
2305,36.73,10.75,20.22,1
2306,36.75,2.12,13.6,1
2307,36.76,-4.53,-27.0,1
2308,36.77,-5.71,14.32,1
2309,36.79,2.52,28.65,1
2310,36.8,15.6,-4.94,1
2311,36.81,0.15,18.48,1
2312,36.83,-21.95,21.65,1
2313,36.84,-14.77,-1.82,1
2314,36.85,-8.6,31.53,1
2315,36.87,-6.92,32.55,1
2316,36.88,12.41,4.61,1
2317,36.89,17.69,41.36,1
2318,36.9,7.59,47.85,1
2319,36.92,11.42,15.78,1
2320,36.93,5.6,43.81,1
2321,36.95,-7.8,45.72,1
2322,36.96,-3.96,6.84,1
2323,36.97,-13.51,22.71,1
2324,36.99,-29.49,24.14,1
2325,37.0,-11.06,7.2,1
2326,37.01,5.57,49.11,1
2327,37.03,-2.63,52.87,1
2328,37.04,-1.0,13.08,1
2329,37.05,-0.06,34.74,1
2330,37.06,-9.82,35.73,1
2331,37.08,-3.68,1.91,1
2332,37.09,3.22,33.47,1
2333,37.11,-1.35,41.54,1
2334,37.12,5.38,2.53,1
2335,37.13,9.42,29.72,1
2336,37.15,0.51,48.21,1
2337,37.16,1.6,12.95,1
2338,37.17,1.49,19.75,1
2339,37.19,-6.37,18.63,1
2340,37.2,-0.17,-9.34,1
2341,37.21,1.82,23.75,1
2342,37.22,-7.35,40.35,1
2343,37.24,4.02,4.39,1
2344,37.25,16.16,18.29,1
2345,37.27,6.27,26.88,1
2346,37.28,4.9,-5.12,1
2347,37.29,7.71,19.09,1
2348,37.31,-4.91,36.31,1
2349,37.32,-9.02,-0.72,1
2350,37.33,-5.42,12.69,1
2351,37.35,-6.52,28.93,1
2352,37.36,6.77,-6.26,1
2353,37.37,18.08,3.07,1
2354,37.38,7.73,21.78,1
2355,37.4,3.87,-0.16,1
2356,37.41,3.69,18.16,1
2357,37.43,-6.84,33.33,1
2358,37.44,-8.44,-0.8,1
2359,37.45,-15.29,3.21,1
2360,37.47,-28.44,11.87,1
2361,37.48,-10.53,-12.63,1
2362,37.49,8.96,10.73,1
2363,37.51,2.16,25.49,1
2364,37.52,9.53,-15.19,1
2365,37.53,20.03,-3.47,1
2366,37.54,2.18,18.96,1
2367,37.56,-10.26,-17.11,1
2368,37.57,-8.64,-9.27,1
2369,37.59,-13.49,15.54,1
2370,37.6,-8.3,-16.5,1
2371,37.61,3.63,-8.97,1
2372,37.63,5.65,14.22,1
2373,37.64,10.97,-24.08,1
2374,37.65,8.05,-21.41,1
2375,37.67,-6.95,12.38,1
2376,37.68,1.55,-8.3,1
2377,37.69,16.29,-1.46,1
2378,37.71,11.05,19.55,1
2379,37.72,16.48,-20.81,1
2380,37.73,17.94,-23.54,1
2381,37.75,-6.97,6.63,1
2382,37.76,-11.78,-16.99,1
2383,37.77,2.51,-7.44,1
2384,37.79,-0.33,25.52,1
2385,37.8,-0.17,-7.46,1
2386,37.81,0.13,-14.09,1
2387,37.83,-13.26,6.09,1
2388,37.84,-7.4,-29.17,1
2389,37.85,2.98,-23.14,1
2390,37.87,-9.94,14.19,1
2391,37.88,-4.07,-21.25,1
2392,37.89,17.63,-30.91,1
2393,37.9,11.92,0.59,1
2394,37.92,4.55,-22.81,1
2395,37.93,4.83,-19.3,1
2396,37.95,-7.16,11.7,1
2397,37.96,-1.26,-20.27,1
2398,37.97,11.02,-17.0,1
2399,37.99,-10.03,17.91,1
2400,38.0,-21.49,-23.62,1
2401,38.01,-6.36,-32.03,1
2402,38.03,-3.13,11.28,1
2403,38.04,2.85,-16.59,1
2404,38.05,8.71,-27.31,1
2405,38.06,-10.78,8.86,1
2406,38.08,-11.79,-17.32,1
2407,38.09,9.54,-24.35,1
2408,38.11,6.52,4.28,1
2409,38.12,4.51,-36.45,1
2410,38.13,12.36,-40.01,1
2411,38.15,-3.29,14.85,1
2412,38.16,-11.02,-12.28,2
2413,38.17,3.59,-42.18,2
2414,38.19,9.82,-14.74,2
2415,38.2,24.34,0.25,2
2416,38.21,40.93,49.03,2
2417,38.22,26.41,88.11,2
2418,38.24,5.17,-2.16,2
2419,38.25,-12.4,-94.54,2
2420,38.27,-11.35,60.92,2
2421,38.28,36.16,379.64,2
2422,38.29,42.96,461.36,2
2423,38.31,-14.52,300.36,2
2424,38.32,-14.59,253.17,2
2425,38.33,2.77,302.78,2
2426,38.35,-44.22,208.92,2
2427,38.36,-49.4,35.59,2
2428,38.37,1.53,23.5,2
2429,38.38,5.4,142.5,2
2430,38.4,-7.01,134.99,2
2431,38.41,5.75,1.15,2
2432,38.43,9.38,-79.04,2
2433,38.44,22.33,-92.9,2
2434,38.45,43.69,-68.31,2
2435,38.47,20.28,-37.75,2
2436,38.48,-20.94,-85.1,2
2437,38.49,-40.14,-203.23,2
2438,38.51,-54.85,-286.71,2
2439,38.52,-44.06,-234.86,2
2440,38.53,-16.19,-85.62,2
2441,38.54,-30.99,-55.63,2
2442,38.56,-50.87,-238.27,1
2443,38.57,-31.84,-351.92,1
2444,38.59,-11.24,-200.56,1
2445,38.6,2.5,-47.22,1
2446,38.61,1.31,-59.19,1
2447,38.63,-23.59,-91.96,1
2448,38.64,-20.29,-99.14,1
2449,38.65,2.11,-92.23,1
2450,38.67,-16.56,-94.77,1
2451,38.68,-31.03,-158.36,1
2452,38.69,-5.38,-160.32,1
2453,38.71,4.03,-97.21,1
2454,38.72,6.26,-143.84,1
2455,38.73,26.48,-185.88,1
2456,38.75,16.28,-130.54,1
2457,38.76,-1.83,-117.08,1
2458,38.77,21.66,-85.35,1
2459,38.79,26.2,-42.09,1
2460,38.8,-6.66,-133.89,1
2461,38.81,-8.91,-162.94,1
2462,38.83,8.64,-82.58,1
2463,38.84,6.9,-160.24,1
2464,38.85,6.44,-190.01,1
2465,38.87,16.76,15.21,1
2466,38.88,25.74,79.05,1
2467,38.89,16.84,-64.67,1
2468,38.9,-13.75,-161.88,1
2469,38.92,-15.2,-199.98,1
2470,38.93,26.61,-131.74,1
2471,38.95,43.69,-7.34,1
2472,38.96,26.7,-17.68,1
2473,38.97,15.37,-25.23,1
2474,38.99,4.33,33.3,1
2475,39.0,1.4,5.89,1
2476,39.01,7.93,29.37,1
2477,39.03,-1.62,111.67,1
2478,39.04,-3.79,44.57,1
2479,39.05,0.71,-14.05,1
2480,39.06,-19.86,17.49,1
2481,39.08,-12.96,-47.4,1
2482,39.09,32.19,-46.28,1
2483,39.11,28.43,118.44,1
2484,39.12,-7.32,152.47,1
2485,39.13,-1.94,100.88,1
2486,39.15,12.91,143.51,1
2487,39.16,7.34,102.05,1
2488,39.17,4.43,3.62,1
2489,39.19,12.32,14.42,1
2490,39.2,33.51,25.67,1
2491,39.21,33.81,68.7,1
2492,39.22,-8.84,181.56,1
2493,39.24,-23.1,163.62,1
2494,39.25,-1.17,86.03,1
2495,39.27,-11.88,76.24,1
2496,39.28,-19.42,16.54,1
2497,39.29,6.49,3.53,1
2498,39.31,12.81,102.44,1
2499,39.32,14.38,87.92,1
2500,39.33,24.54,24.41,1
2501,39.35,-2.84,91.28,1
2502,39.36,-22.45,114.46,1
2503,39.37,9.4,34.01,1
2504,39.38,26.17,14.01,1
2505,39.4,17.81,45.12,1
2506,39.41,9.02,70.52,1
2507,39.43,-19.43,82.82,1
2508,39.44,-22.96,64.32,1
2509,39.45,8.78,102.52,1
2510,39.47,5.52,190.13,1
2511,39.48,-6.29,156.54,1
2512,39.49,-2.18,70.51,1
2513,39.51,-26.43,65.71,1
2514,39.52,-31.05,38.5,1
2515,39.53,5.53,20.91,1
2516,39.54,12.41,98.58,1
2517,39.56,12.81,111.0,1
2518,39.57,28.23,68.0,1
2519,39.59,6.17,107.2,1
2520,39.6,-14.6,115.23,1
2521,39.61,-2.65,86.63,1
2522,39.63,-9.69,108.75,1
2523,39.64,-12.55,74.56,1
2524,39.65,1.38,69.46,1
2525,39.67,-15.4,186.29,1
2526,39.68,-20.33,150.62,1
2527,39.69,4.97,-26.69,1
2528,39.71,-4.71,-47.89,1
2529,39.72,-19.12,-1.82,1
2530,39.73,-4.73,3.65,1
2531,39.75,-7.47,43.07,1
2532,39.76,-2.11,18.18,1
2533,39.77,20.71,-15.93,1
2534,39.79,3.55,68.39,1
2535,39.8,-11.22,66.84,1
2536,39.81,2.42,-32.64,1
2537,39.83,-14.17,-19.25,1
2538,39.84,-23.98,22.21,1
2539,39.85,-0.07,16.68,1
2540,39.87,-1.02,28.47,1
2541,39.88,-5.12,9.54,1
2542,39.89,7.28,-6.02,1
2543,39.9,-5.9,27.37,1
2544,39.92,-13.47,4.48,1
2545,39.93,-4.67,-38.05,1
2546,39.95,-18.59,-16.85,1
2547,39.96,-8.18,-15.8,1
2548,39.97,21.08,-19.19,1
2549,39.99,-5.72,33.06,1
2550,40.0,-23.84,49.96,1
2551,40.01,5.7,49.01,1
2552,40.03,-5.93,75.9,1
2553,40.04,-31.69,9.06,1
2554,40.05,-14.3,-69.25,1
2555,40.07,-6.91,-4.07,1
2556,40.08,-5.64,22.69,1
2557,40.09,3.97,-51.73,1
2558,40.11,-14.97,-44.16,1
2559,40.12,-15.58,-23.02,1
2560,40.13,13.23,-68.2,1
2561,40.15,0.01,-64.79,1
2562,40.16,-11.0,-51.59,0
2563,40.17,16.26,-62.26,0
2564,40.19,3.53,-23.03,0
2565,40.2,-23.45,-3.43,0
2566,40.21,0.95,-13.65,0
2567,40.22,23.66,20.5,0
2568,40.24,23.28,11.98,0
2569,40.25,18.94,-38.65,0
2570,40.27,-2.11,-18.87,0
2571,40.28,-6.89,-14.7,0
2572,40.29,0.03,-80.04,0
2573,40.31,-25.65,-120.89,0
2574,40.32,-21.12,-181.19,0
2575,40.33,17.0,-276.76,0
2576,40.35,-5.39,-303.53,0
2577,40.36,-29.72,-306.4,0
2578,40.37,6.63,-309.45,0
2579,40.38,18.11,-230.53,0
2580,40.4,8.45,-156.15,0
2581,40.41,28.26,-145.47,0
2582,40.43,26.1,-93.27,0
2583,40.44,8.11,-33.7,0
2584,40.45,12.79,-19.92,0
2585,40.47,5.43,22.9,0
2586,40.48,-1.71,48.53,0
2587,40.49,5.99,22.35,0
2588,40.51,-8.12,44.47,0
2589,40.52,-5.4,66.14,0
2590,40.53,27.11,30.16,0
2591,40.54,21.27,41.11,0
2592,40.56,6.01,69.2,1
2593,40.57,13.95,45.84,1
2594,40.59,-4.18,59.11,1
2595,40.6,-13.97,83.52,1
2596,40.61,9.13,52.13,1
2597,40.63,-0.81,50.99,1
2598,40.64,-14.2,65.56,1
2599,40.65,8.42,41.76,1
2600,40.67,6.51,60.29,1
2601,40.68,-4.76,80.11,1
2602,40.69,12.49,36.84,1
2603,40.71,10.49,40.58,1
2604,40.72,2.04,68.49,1
2605,40.73,13.1,33.9,1
2606,40.75,1.98,31.08,1
2607,40.76,-4.4,50.54,1
2608,40.77,14.12,18.05,1
2609,40.79,1.04,27.99,1
2610,40.8,-11.42,59.06,1
2611,40.81,10.74,22.53,1
2612,40.83,7.2,23.17,1
2613,40.84,-0.93,56.74,1
2614,40.85,19.1,22.6,1
2615,40.87,7.8,11.47,1
2616,40.88,-10.99,33.43,1
2617,40.89,4.41,4.57,1
2618,40.9,-0.82,8.69,1
2619,40.92,-11.39,36.7,1
2620,40.93,4.63,-3.69,1
2621,40.95,-3.91,-9.88,1
2622,40.96,-12.43,30.08,1
2623,40.97,10.02,6.59,1
2624,40.99,-0.39,-4.3,1
2625,41.0,-21.95,16.75,1
2626,41.01,-5.69,-12.3,1
2627,41.03,-6.41,-6.68,1
2628,41.04,-15.58,24.57,1
2629,41.05,2.51,-18.49,1
2630,41.06,-3.59,-20.45,1
2631,41.08,-17.87,25.97,1
2632,41.09,-2.84,-14.62,1
2633,41.11,-5.67,-36.45,1
2634,41.12,-10.09,8.15,1
2635,41.13,11.58,-8.21,1
2636,41.15,5.97,-15.98,1
2637,41.16,-7.35,18.57,1
2638,41.17,5.97,-13.36,1
2639,41.19,-0.88,-30.0,1
2640,41.2,-11.24,-1.62,1
2641,41.21,-0.61,-34.03,1
2642,41.22,-15.89,-36.43,1
2643,41.24,-24.86,8.31,1
2644,41.25,5.82,-26.27,1
2645,41.27,11.65,-40.36,1
2646,41.28,-1.15,6.79,1
2647,41.29,9.31,-20.75,1
2648,41.31,7.5,-42.57,1
2649,41.32,-1.08,-3.12,1
2650,41.33,3.1,-22.99,1
2651,41.35,-13.0,-33.64,1
2652,41.36,-14.28,5.18,1
2653,41.37,21.07,-24.15,1
2654,41.38,17.96,-35.49,1
2655,41.4,-7.13,10.06,1
2656,41.41,5.45,-21.52,1
2657,41.43,11.85,-41.68,1
2658,41.44,5.12,2.07,1
2659,41.45,8.22,-19.81,1
2660,41.47,-11.42,-25.4,1
2661,41.48,-21.21,21.09,1
2662,41.49,5.55,-17.78,1
2663,41.51,3.73,-38.46,1
2664,41.52,-11.36,14.0,1
2665,41.53,-1.33,-18.01,1
2666,41.54,-13.77,-48.93,1
2667,41.56,-24.87,-0.14,1
2668,41.57,3.24,-9.83,1
2669,41.59,8.35,-15.51,1
2670,41.6,-5.15,31.8,1
2671,41.61,5.46,-3.99,1
2672,41.63,1.98,-32.94,1
2673,41.64,-3.01,13.72,1
2674,41.65,15.84,-9.51,1
2675,41.67,4.64,-31.97,1
2676,41.68,-17.34,11.25,1
2677,41.69,-3.77,-17.11,1
2678,41.71,-2.8,-36.99,1
2679,41.72,-11.05,15.53,1
2680,41.73,9.17,-8.3,1
2681,41.75,13.09,-28.8,1
2682,41.76,-1.69,25.4,1
2683,41.77,0.29,-0.62,1
2684,41.79,-4.47,-30.79,1
2685,41.8,-5.95,21.39,1
2686,41.81,9.06,4.82,1
2687,41.83,0.25,-20.92,1
2688,41.84,-7.07,25.16,1
2689,41.85,8.4,1.47,1
2690,41.87,-5.08,-26.39,1
2691,41.88,-17.35,21.19,1
2692,41.89,8.25,0.37,1
2693,41.9,10.3,-23.75,1
2694,41.92,-1.08,26.7,1
2695,41.93,16.58,3.92,1
2696,41.95,18.3,-27.24,1
2697,41.96,7.28,17.94,1
2698,41.97,13.83,-0.72,1
2699,41.99,1.47,-19.09,1
2700,42.0,-10.14,35.13,1
2701,42.01,10.47,6.94,1
2702,42.03,10.52,-30.05,1
2703,42.04,-1.32,26.42,1
2704,42.05,13.07,17.93,1
2705,42.06,4.32,-18.51,1
2706,42.08,-20.33,18.05,1
2707,42.09,-14.13,4.91,1
2708,42.11,-12.53,-12.22,1
2709,42.12,-10.86,37.36,1
2710,42.13,16.15,13.77,1
2711,42.15,13.56,-18.15,1
2712,42.16,-10.23,30.52,0
2713,42.17,-1.93,11.71,0
2714,42.19,2.74,-19.46,0
2715,42.2,-5.67,31.46,0
2716,42.21,3.69,8.74,0
2717,42.22,-1.06,-56.18,0
2718,42.24,-19.16,-56.57,0
2719,42.25,-11.46,-98.33,0
2720,42.27,10.03,-129.29,0
2721,42.28,39.44,-76.0,0
2722,42.29,62.94,-88.92,0
2723,42.31,38.73,-123.31,0
2724,42.32,5.07,-78.11,0
2725,42.33,5.28,-83.67,0
2726,42.35,-6.96,-96.43,0
2727,42.36,-27.41,-22.58,0
2728,42.37,-17.21,-3.19,0
2729,42.38,-16.55,-9.47,0
2730,42.4,-28.1,46.96,0
2731,42.41,-9.0,43.58,0
2732,42.43,5.26,35.82,0
2733,42.44,-6.94,111.0,0
2734,42.45,-17.9,112.48,0
2735,42.47,-35.75,76.81,0
2736,42.48,-34.33,121.02,0
2737,42.49,5.61,120.18,0
2738,42.51,15.53,98.0,0
2739,42.52,-5.28,147.95,0
2740,42.53,-4.36,140.98,0
2741,42.54,-10.46,102.12,0
2742,42.56,-23.5,130.11,1
2743,42.57,-6.14,111.61,1
2744,42.59,7.26,79.75,1
2745,42.6,5.87,119.01,1
2746,42.61,17.57,94.69,1
2747,42.63,12.69,44.76,1
2748,42.64,-6.18,83.35,1
2749,42.65,3.0,78.54,1
2750,42.66,13.24,36.89,1
2751,42.68,9.71,62.57,1
2752,42.69,11.2,45.27,1
2753,42.71,-2.0,2.29,1
2754,42.72,-12.81,34.92,1
2755,42.73,4.97,34.5,1
2756,42.75,7.42,7.13,1
2757,42.76,-2.47,33.42,1
2758,42.77,13.05,11.95,1
2759,42.79,17.81,-22.22,1
2760,42.8,4.21,17.16,1
2761,42.81,4.77,-0.42,1
2762,42.83,-2.6,-52.66,1
2763,42.84,-11.18,-17.3,1
2764,42.85,7.12,-5.09,1
2765,42.87,11.25,-34.97,1
2766,42.88,-1.08,-14.4,1
2767,42.89,6.78,-21.46,1
2768,42.9,1.58,-45.35,1
2769,42.92,-15.78,-11.53,1
2770,42.93,-6.57,-21.87,1
2771,42.95,-3.58,-52.55,1
2772,42.96,-8.86,-9.99,1
2773,42.97,10.92,-14.24,1
2774,42.99,13.75,-62.75,1
2775,43.0,-4.46,-40.69,1
2776,43.01,4.77,-39.08,1
2777,43.03,11.02,-63.82,1
2778,43.04,-1.07,-24.96,1
2779,43.05,4.47,-26.59,1
2780,43.06,2.14,-70.79,1
2781,43.08,-11.31,-42.15,1
2782,43.09,-2.17,-27.95,1
2783,43.11,-6.12,-55.81,1
2784,43.12,-20.16,-31.75,1
2785,43.13,-2.35,-26.84,1
2786,43.15,-0.31,-54.74,1
2787,43.16,-21.55,-27.59,1
2788,43.17,-10.0,-25.24,1
2789,43.19,3.3,-58.03,1
2790,43.2,-1.37,-28.48,1
2791,43.21,12.57,-21.49,1
2792,43.22,19.19,-57.61,1
2793,43.24,7.1,-32.06,1
2794,43.25,9.74,-19.01,1
2795,43.27,3.26,-50.88,1
2796,43.28,-13.28,-33.48,1
2797,43.29,1.83,-27.43,1
2798,43.3,15.85,-55.12,1
2799,43.32,5.2,-29.97,1
2800,43.33,4.61,-22.86,1
2801,43.35,1.32,-53.27,1
2802,43.36,-9.63,-20.86,1
2803,43.37,-0.04,-2.16,1
2804,43.38,0.7,-39.12,1
2805,43.4,-12.37,-22.93,1
2806,43.41,-1.7,-2.97,1
2807,43.43,0.83,-23.77,1
2808,43.44,-13.28,2.32,1
2809,43.45,4.84,14.33,1
2810,43.47,26.43,-28.72,1
2811,43.48,17.44,-14.56,1
2812,43.49,11.89,11.15,1
2813,43.51,6.63,-18.22,1
2814,43.52,-8.22,-11.21,1
2815,43.53,-1.1,5.08,1
2816,43.54,14.92,-22.22,1
2817,43.56,12.4,-11.04,1
2818,43.57,5.03,9.03,1
2819,43.59,-8.66,-12.39,1
2820,43.6,-20.41,1.99,1
2821,43.61,-6.43,17.97,1
2822,43.63,0.39,-9.5,1
2823,43.64,-11.06,6.31,1
2824,43.65,-5.14,24.2,1
2825,43.67,-7.68,-12.69,1
2826,43.68,-27.81,-4.44,1
2827,43.69,-15.15,22.71,1
2828,43.71,7.18,-2.92,1
2829,43.72,1.78,4.04,1
2830,43.73,-0.65,28.49,1
2831,43.75,-4.72,6.33,1
2832,43.76,-17.25,11.47,1
2833,43.77,-3.49,23.14,1
2834,43.79,7.27,-5.84,1
2835,43.8,-9.26,8.39,1
2836,43.81,-6.55,24.29,1
2837,43.83,2.84,-14.24,1
2838,43.84,-8.78,4.9,1
2839,43.85,-3.59,38.84,1
2840,43.87,5.35,-7.94,1
2841,43.88,-10.37,-9.1,1
2842,43.89,-8.65,38.85,1
2843,43.9,5.1,21.5,1
2844,43.92,-5.06,18.63,1
2845,43.93,-7.95,39.46,1
2846,43.94,-0.56,3.09,1
2847,43.96,-4.58,4.22,1
2848,43.97,6.63,39.86,1
2849,43.99,20.51,4.56,1
2850,44.0,8.34,-6.77,1
2851,44.01,5.08,31.1,1
2852,44.03,11.77,19.18,1
2853,44.04,3.13,21.47,1
2854,44.05,2.57,43.45,1
2855,44.06,-0.02,8.26,1
2856,44.08,-19.08,7.45,1
2857,44.09,-10.03,37.8,1
2858,44.11,11.73,3.38,1
2859,44.12,5.36,4.27,1
2860,44.13,4.71,44.25,1
2861,44.15,7.08,8.71,1
2862,44.16,-8.74,-5.86,2
2863,44.17,-1.9,30.0,2
2864,44.19,13.3,14.08,2
2865,44.2,-1.33,36.01,2
2866,44.21,-4.14,128.07,2
2867,44.22,12.24,180.97,2
2868,44.24,13.09,241.94,2
2869,44.25,11.65,289.92,2
2870,44.27,2.57,214.59,2
2871,44.28,-19.77,144.97,2
2872,44.29,-14.51,132.94,2
2873,44.31,0.09,52.41,2
2874,44.32,-10.05,-10.13,2
2875,44.33,-8.86,-11.24,2
2876,44.35,-1.47,-77.67,2
2877,44.36,-11.24,-130.42,2
2878,44.37,2.4,-122.27,2
2879,44.38,20.75,-167.03,2
2880,44.4,-0.95,-182.81,2
2881,44.41,-12.57,-135.89,2
2882,44.43,-2.99,-154.16,2
2883,44.44,-11.93,-152.82,2
2884,44.45,-6.04,-94.7,2
2885,44.47,13.71,-114.1,2
2886,44.48,4.27,-126.05,2
2887,44.49,-0.86,-78.38,2
2888,44.51,5.71,-94.63,2
2889,44.52,-3.69,-95.25,2
2890,44.53,8.27,-46.37,2
2891,44.54,31.28,-78.65,2
2892,44.56,16.44,-90.22,1
2893,44.57,-0.59,-29.87,1
2894,44.58,-6.52,-49.91,1
2895,44.6,-21.93,-66.59,1
2896,44.61,-8.77,-14.89,1
2897,44.63,17.0,-36.63,1
2898,44.64,6.98,-52.64,1
2899,44.65,5.41,1.69,1
2900,44.67,14.88,-17.35,1
2901,44.68,-13.71,-35.86,1
2902,44.69,-29.34,13.82,1
2903,44.71,-9.72,-9.32,1
2904,44.72,-16.22,-30.24,1
2905,44.73,-22.27,24.75,1
2906,44.75,3.96,13.88,1
2907,44.76,14.51,0.52,1
2908,44.77,11.12,48.0,1
2909,44.79,11.9,17.53,1
2910,44.8,5.86,-11.94,1
2911,44.81,15.87,35.39,1
2912,44.83,27.92,17.56,1
2913,44.84,9.73,1.89,1
2914,44.85,4.25,55.17,1
2915,44.87,17.42,32.47,1
2916,44.88,5.7,9.13,1
2917,44.89,-1.71,62.24,1
2918,44.9,6.7,42.48,1
2919,44.92,-1.03,17.01,1
2920,44.93,7.92,59.54,1
2921,44.95,27.61,23.94,1
2922,44.96,6.37,-8.11,1
2923,44.97,-5.61,48.65,1
2924,44.99,16.63,32.81,1
2925,45.0,7.6,2.36,1
2926,45.01,-13.01,50.37,1
2927,45.03,-8.75,35.26,1
2928,45.04,-15.98,12.21,1
2929,45.05,-18.39,60.56,1
2930,45.06,0.89,37.54,1
2931,45.08,-2.83,6.23,1
2932,45.09,-14.92,51.83,1
2933,45.11,-11.75,27.57,1
2934,45.12,-16.37,-5.87,1
2935,45.13,-6.32,47.07,1
2936,45.15,16.34,39.87,1
2937,45.16,7.65,12.09,1
2938,45.17,-1.56,50.12,1
2939,45.19,5.63,28.65,1
2940,45.2,-0.75,2.06,1
2941,45.21,4.38,42.22,1
2942,45.22,11.65,15.27,1
2943,45.24,-16.63,-7.54,1
2944,45.25,-23.82,51.3,1
2945,45.26,0.74,31.43,1
2946,45.28,-5.63,-9.98,1
2947,45.29,-10.8,29.03,1
2948,45.31,4.52,11.16,1
2949,45.32,-10.7,-12.3,1
2950,45.33,-19.75,45.54,1
2951,45.35,4.95,31.53,1
2952,45.36,4.1,-7.92,1
2953,45.37,-7.72,31.29,1
2954,45.38,-1.3,11.81,1
2955,45.4,-12.82,-24.29,1
2956,45.41,-13.97,23.33,1
2957,45.43,14.7,16.13,1
2958,45.44,14.43,-11.65,1
2959,45.45,1.83,39.66,1
2960,45.47,7.89,31.26,1
2961,45.48,-4.0,-11.78,1
2962,45.49,-10.54,19.8,1
2963,45.51,4.35,9.13,1
2964,45.52,-7.81,-22.26,1
2965,45.53,-15.44,15.5,1
2966,45.54,7.14,6.59,1
2967,45.56,0.29,-20.79,1
2968,45.57,-19.63,14.05,1
2969,45.59,-12.5,-6.41,1
2970,45.6,-9.41,-34.87,1
2971,45.61,-0.9,16.43,1
2972,45.63,17.04,5.84,1
2973,45.64,5.53,-34.53,1
2974,45.65,1.33,2.08,1
2975,45.67,19.5,-6.8,1
2976,45.68,7.4,-34.03,1
2977,45.69,-5.97,14.54,1
2978,45.71,-0.14,1.57,1
2979,45.72,-15.37,-49.44,1
2980,45.73,-14.78,-12.27,1
2981,45.75,9.49,0.12,1
2982,45.76,-2.55,-21.9,1
2983,45.77,-9.91,10.48,1
2984,45.79,16.26,-2.8,1
2985,45.8,14.56,-41.11,1
2986,45.81,3.58,-9.42,1
2987,45.83,12.11,-18.82,1
2988,45.84,0.52,-54.67,1
2989,45.85,-6.97,-11.46,1
2990,45.86,3.88,3.92,1
2991,45.88,-12.58,-19.55,1
2992,45.89,-18.26,6.17,1
2993,45.9,11.08,-2.7,1
2994,45.92,14.93,-31.94,1
2995,45.93,3.74,-0.58,1
2996,45.95,-0.69,-11.79,1
2997,45.96,-21.88,-50.12,1
2998,45.97,-16.25,-13.99,1
2999,45.99,19.97,-6.45,1
3000,46.0,14.99,-37.88,1
3001,46.01,1.51,-10.53,1
3002,46.03,17.13,-4.05,1
3003,46.04,8.15,-23.5,1
3004,46.05,-5.76,11.64,1
3005,46.06,7.64,10.46,1
3006,46.08,0.62,-25.65,1
3007,46.09,-11.22,-5.1,1
3008,46.11,1.48,-12.79,1
3009,46.12,3.23,-42.38,1
3010,46.13,10.13,0.47,1
3011,46.15,22.06,18.14,1
3012,46.16,-8.08,-28.08,2
3013,46.17,-27.59,-42.65,2
3014,46.19,-0.42,8.15,2
3015,46.2,8.6,116.78,2
3016,46.21,11.87,139.51,2
3017,46.22,36.45,-51.68,2
3018,46.24,28.21,-257.35,2
3019,46.25,8.42,-230.36,2
3020,46.27,13.86,64.96,2
3021,46.28,0.78,391.89,2
3022,46.29,-1.45,359.2,2
3023,46.31,26.76,109.14,2
3024,46.32,13.19,98.15,2
3025,46.33,-15.93,185.7,2
3026,46.35,-21.13,75.96,2
3027,46.36,-41.07,-61.9,2
3028,46.37,-35.29,-33.44,2
3029,46.38,8.8,45.88,2
3030,46.4,16.16,28.88,2
3031,46.41,11.01,-55.36,2
3032,46.43,17.06,-131.52,2
3033,46.44,-14.91,-124.93,2
3034,46.45,-37.26,-53.61,2
3035,46.47,-7.04,-75.31,2
3036,46.48,5.51,-112.97,2
3037,46.49,-8.2,-28.74,2
3038,46.5,-10.61,-45.52,2
3039,46.52,-19.86,-196.64,2
3040,46.53,-14.98,-175.94,2
3041,46.54,12.53,-32.97,2
3042,46.56,2.98,-18.45,1
3043,46.57,-17.46,-83.16,1
3044,46.59,-2.94,-99.21,1
3045,46.6,-0.01,-60.75,1
3046,46.61,-6.24,-23.45,1
3047,46.63,0.86,-58.67,1
3048,46.64,-10.88,-85.61,1
3049,46.65,-10.02,-16.51,1
3050,46.67,18.45,-20.19,1
3051,46.68,13.64,-108.5,1
3052,46.69,0.02,-60.66,1
3053,46.71,12.19,18.5,1
3054,46.72,6.43,-13.83,1
3055,46.73,-0.79,0.11,1
3056,46.75,15.13,37.02,1
3057,46.76,8.65,-5.79,1
3058,46.77,-5.8,-10.22,1
3059,46.79,5.8,2.04,1
3060,46.8,8.47,-40.95,1
3061,46.81,0.23,-15.25,1
3062,46.83,-7.94,48.98,1
3063,46.84,-31.76,30.02,1
3064,46.85,-29.98,12.82,1
3065,46.87,2.3,29.15,1
3066,46.88,-2.28,26.86,1
3067,46.89,-12.98,37.98,1
3068,46.9,7.93,2.87,1
3069,46.92,4.68,-91.85,1
3070,46.93,-5.92,-77.45,1
3071,46.95,7.89,6.18,1
3072,46.96,-1.97,8.43,1
3073,46.97,-13.67,18.74,1
3074,46.99,3.98,61.52,1
3075,47.0,3.02,48.22,1
3076,47.01,-3.48,44.81,1
3077,47.03,4.06,50.65,1
3078,47.04,-12.53,19.18,1
3079,47.05,-18.6,52.28,1
3080,47.06,6.34,104.92,1
3081,47.08,0.37,51.42,1
3082,47.09,-11.1,-9.06,1
3083,47.11,11.55,-18.26,1
3084,47.12,9.58,-35.4,1
3085,47.13,-7.04,-17.61,1
3086,47.14,7.99,15.17,1
3087,47.16,14.36,-6.62,1
3088,47.17,16.1,10.87,1
3089,47.18,28.42,60.83,1
3090,47.2,2.59,18.1,1
3091,47.21,-22.33,-11.67,1
3092,47.22,-1.41,34.15,1
3093,47.24,5.9,17.22,1
3094,47.25,2.95,-19.06,1
3095,47.27,14.39,-14.45,1
3096,47.28,-4.36,-44.48,1
3097,47.29,-21.27,-21.86,1
3098,47.31,7.34,70.61,1
3099,47.32,23.84,62.71,1
3100,47.33,19.05,11.82,1
3101,47.35,20.08,26.65,1
3102,47.36,3.52,49.43,1
3103,47.37,-3.38,94.85,1
3104,47.38,11.03,105.97,1
3105,47.4,-11.62,12.59,1
3106,47.41,-31.49,12.21,1
3107,47.43,-7.94,104.16,1
3108,47.44,-9.58,71.55,1
3109,47.45,-17.2,46.01,1
3110,47.47,10.65,98.29,1
3111,47.48,7.48,42.01,1
3112,47.49,-11.14,-9.33,1
3113,47.51,10.45,37.38,1
3114,47.52,17.05,5.67,1
3115,47.53,0.51,-48.21,1
3116,47.54,5.67,-28.42,1
3117,47.56,8.03,-29.87,1
3118,47.57,8.09,-8.51,1
3119,47.59,16.73,25.06,1
3120,47.6,-2.96,-47.76,1
3121,47.61,-18.48,-81.32,1
3122,47.63,3.14,-7.84,1
3123,47.64,8.74,-4.94,1
3124,47.65,0.66,-33.25,1
3125,47.67,-1.21,-12.0,1
3126,47.68,-23.39,-2.05,1
3127,47.69,-15.92,59.49,1
3128,47.71,35.92,130.87,1
3129,47.72,34.72,60.84,1
3130,47.73,2.38,-26.62,1
3131,47.75,11.22,-41.76,1
3132,47.76,7.58,-67.37,1
3133,47.77,-10.5,-16.16,1
3134,47.78,3.81,80.88,1
3135,47.8,4.27,32.93,1
3136,47.81,-10.92,-35.39,1
3137,47.82,-8.13,-23.21,1
3138,47.84,-26.09,-60.36,1
3139,47.85,-39.05,-65.02,1
3140,47.86,-2.08,6.92,1
3141,47.88,18.83,11.59,1
3142,47.89,10.68,3.49,1
3143,47.9,14.02,-7.05,1
3144,47.92,-3.92,-81.04,1
3145,47.93,-25.9,-20.86,1
3146,47.95,-8.42,118.91,1
3147,47.96,0.05,55.25,1
3148,47.97,-10.24,-16.93,1
3149,47.99,-2.67,23.57,1
3150,48.0,-1.2,-75.52,1
3151,48.01,-4.4,-151.48,1
3152,48.03,7.41,-30.87,1
3153,48.04,5.75,-3.41,1
3154,48.05,6.01,-41.31,1
3155,48.06,23.57,39.64,1
3156,48.08,11.23,62.3,1
3157,48.09,-11.41,13.86,1
3158,48.11,-5.83,7.77,1
3159,48.12,-11.54,-30.22,1
3160,48.13,-17.83,-37.92,1
3161,48.15,4.38,21.24,1
3162,48.16,7.65,4.27,0
3163,48.17,2.88,-1.38,0
3164,48.19,21.4,74.34,0
3165,48.2,11.28,38.17,0
3166,48.21,-16.99,-46.25,0
3167,48.22,-14.48,-19.33,0
3168,48.24,-11.3,-5.18,0
3169,48.25,-7.14,1.05,0
3170,48.27,15.06,65.09,0
3171,48.28,9.49,49.86,0
3172,48.29,-13.4,-4.68,0
3173,48.31,-14.74,-9.07,0
3174,48.32,-25.24,-84.96,0
3175,48.33,-31.28,-179.97,0
3176,48.35,-9.61,-192.41,0
3177,48.36,-11.02,-237.07,0
3178,48.37,-14.94,-264.76,0
3179,48.38,14.64,-194.95,0
3180,48.4,13.16,-172.19,0
3181,48.41,-7.68,-156.36,0
3182,48.42,16.39,-60.11,0
3183,48.44,31.69,-22.53,0
3184,48.45,9.97,0.01,0
3185,48.46,6.49,88.69,0
3186,48.48,10.94,91.7,0
3187,48.49,6.0,61.69,0
3188,48.5,14.31,114.88,0
3189,48.52,12.98,107.67,0
3190,48.53,-0.12,65.06,0
3191,48.54,-0.07,100.26,0
3192,48.56,-8.49,91.27,1
3193,48.57,-12.98,58.53,1
3194,48.59,2.82,95.15,1
3195,48.6,-5.81,78.97,1
3196,48.61,-18.98,38.29,1
3197,48.63,4.14,72.78,1
3198,48.64,16.66,69.98,1
3199,48.65,10.77,54.06,1
3200,48.67,17.76,101.57,1
3201,48.68,12.44,84.37,1
3202,48.69,1.57,43.18,1
3203,48.71,8.1,84.46,1
3204,48.72,-2.05,83.37,1
3205,48.73,-14.71,57.5,1
3206,48.75,0.24,92.57,1
3207,48.76,-4.17,66.48,1
3208,48.77,-18.66,23.25,1
3209,48.79,0.98,67.57,1
3210,48.8,5.92,61.03,1
3211,48.81,-9.14,20.5,1
3212,48.83,0.08,55.65,1
3213,48.84,-0.91,49.99,1
3214,48.85,-10.65,17.87,1
3215,48.87,7.64,54.82,1
3216,48.88,9.99,42.42,1
3217,48.89,-4.16,-1.13,1
3218,48.9,7.57,29.3,1
3219,48.92,3.58,20.87,1
3220,48.93,-20.08,-18.69,1
3221,48.95,-13.69,13.26,1
3222,48.96,-9.07,12.77,1
3223,48.97,-18.19,-20.66,1
3224,48.99,-0.98,6.65,1
3225,49.0,12.02,4.76,1
3226,49.01,2.69,-18.77,1
3227,49.03,5.28,11.07,1
3228,49.04,4.99,-8.4,1
3229,49.05,-2.8,-48.89,1
3230,49.06,2.47,-9.18,1
3231,49.08,-3.28,-8.3,1
3232,49.09,-12.74,-49.23,1
3233,49.1,-2.43,-14.82,1
3234,49.12,-2.05,2.46,1
3235,49.13,-3.34,-26.19,1
3236,49.14,9.98,-14.3,1
3237,49.16,-2.78,-29.92,1
3238,49.17,-17.58,-60.96,1
3239,49.19,8.1,-18.85,1
3240,49.2,17.92,-6.27,1
3241,49.21,1.47,-41.53,1
3242,49.22,3.96,-22.26,1
3243,49.24,-2.23,-20.63,1
3244,49.25,-13.48,-55.0,1
3245,49.27,4.02,-35.32,1
3246,49.28,3.63,-29.51,1
3247,49.29,-10.1,-53.54,1
3248,49.31,12.33,-30.69,1
3249,49.32,18.87,-31.16,1
3250,49.33,-4.68,-50.83,1
3251,49.35,3.45,-10.64,1
3252,49.36,15.5,-11.18,1
3253,49.37,2.94,-58.15,1
3254,49.38,3.89,-31.84,1
3255,49.4,3.92,-10.86,1
3256,49.41,-5.83,-40.58,1
3257,49.43,2.94,-23.32,1
3258,49.44,4.07,-11.32,1
3259,49.45,-5.41,-39.22,1
3260,49.47,0.72,-21.8,1
3261,49.48,-10.28,-8.66,1
3262,49.49,-26.29,-29.36,1
3263,49.51,-1.52,-12.79,1
3264,49.52,14.37,-17.45,1
3265,49.53,-2.4,-50.4,1
3266,49.54,-2.44,-16.04,1
3267,49.56,1.52,3.4,1
3268,49.57,-4.82,-38.38,1
3269,49.59,4.63,-28.4,1
3270,49.6,6.31,-14.38,1
3271,49.61,-4.69,-48.8,1
3272,49.63,4.65,-27.37,1
3273,49.64,7.76,4.96,1
3274,49.65,-3.68,-24.54,1
3275,49.67,4.49,-21.59,1
3276,49.68,5.34,-1.2,1
3277,49.69,-7.53,-21.87,1
3278,49.7,5.81,-14.15,1
3279,49.72,13.74,-3.53,1
3280,49.73,-3.69,-26.91,1
3281,49.74,-7.02,-3.99,1
3282,49.76,-9.17,17.9,1
3283,49.77,-16.87,-16.54,1
3284,49.78,1.61,-10.81,1
3285,49.8,13.89,8.68,1
3286,49.81,1.46,-17.43,1
3287,49.83,4.75,-6.24,1
3288,49.84,6.65,9.59,1
3289,49.85,-10.65,-20.89,1
3290,49.87,-5.05,1.27,1
3291,49.88,10.67,30.99,1
3292,49.89,3.66,-12.2,1
3293,49.9,1.81,-14.45,1
3294,49.92,5.16,18.37,1
3295,49.93,-3.57,-1.62,1
3296,49.95,-3.58,5.39,1
3297,49.96,-3.47,29.29,1
3298,49.97,-9.04,-1.81,1
3299,49.99,4.36,2.15,1
3300,50.0,7.75,27.09,1
3301,50.01,-11.99,-8.27,1
3302,50.03,-8.34,-4.18,1
3303,50.04,2.08,32.35,1
3304,50.05,-6.6,-2.16,1
3305,50.06,1.12,-17.02,1
3306,50.08,7.73,7.17,1
3307,50.09,-10.07,-15.1,1
3308,50.11,-6.68,-7.41,1
3309,50.12,6.37,26.6,1
3310,50.13,-9.43,-5.6,1
3311,50.15,-17.6,-11.37,1
3312,50.16,-7.74,20.44,0
3313,50.17,-3.61,-5.67,0
3314,50.19,7.96,-1.27,0
3315,50.2,12.89,36.39,0
3316,50.21,2.29,0.8,0
3317,50.22,15.46,-8.4,0
3318,50.24,27.57,20.82,0
3319,50.25,6.07,-33.15,0
3320,50.27,4.44,-69.77,0
3321,50.28,20.23,-52.64,0
3322,50.29,5.21,-98.27,0
3323,50.31,-0.57,-114.98,0
3324,50.32,18.89,-69.49,0
3325,50.33,16.22,-93.06,0
3326,50.34,2.63,-110.39,0
3327,50.36,-3.48,-70.8,0
3328,50.37,-13.77,-75.18,0
3329,50.38,-11.5,-56.54,0
3330,50.4,-2.26,0.66,0
3331,50.41,-3.44,-9.19,0
3332,50.42,-1.53,10.65,0
3333,50.44,-11.01,81.11,0
3334,50.45,-32.65,66.64,0
3335,50.46,-27.85,60.14,0
3336,50.48,-15.28,115.17,0
3337,50.49,-21.13,103.63,0
3338,50.51,-15.26,94.51,0
3339,50.52,-4.98,133.49,0
3340,50.53,-9.63,110.55,0
3341,50.54,-1.69,108.55,0
3342,50.56,0.89,160.86,1
3343,50.57,-18.74,135.81,1
3344,50.59,-6.33,114.29,1
3345,50.6,20.62,143.46,1
3346,50.61,11.77,105.49,1
3347,50.63,11.43,89.35,1
3348,50.64,21.6,129.53,1
3349,50.65,-1.3,86.23,1
3350,50.67,-14.15,54.86,1
3351,50.68,2.68,88.9,1
3352,50.69,11.16,43.41,1
3353,50.71,16.37,7.57,1
3354,50.72,10.36,48.7,1
3355,50.73,-8.98,24.69,1
3356,50.75,6.47,3.85,1
3357,50.76,25.28,44.25,1
3358,50.77,0.59,18.07,1
3359,50.79,-3.59,-1.14,1
3360,50.8,20.02,31.95,1
3361,50.81,7.16,-9.84,1
3362,50.83,-9.45,-29.73,1
3363,50.84,-2.57,22.92,1
3364,50.85,-5.61,-8.11,1
3365,50.87,2.95,-38.13,1
3366,50.88,15.75,8.66,1
3367,50.89,-9.75,-12.54,1
3368,50.9,-26.95,-34.74,1
3369,50.92,-14.46,8.41,1
3370,50.93,-11.32,-23.56,1
3371,50.95,0.41,-54.52,1
3372,50.96,14.61,-7.68,1
3373,50.97,-0.4,-30.6,1
3374,50.98,-1.26,-62.0,1
3375,51.0,13.54,-17.59,1
3376,51.01,1.64,-33.08,1
3377,51.02,0.56,-55.02,1
3378,51.04,14.84,-12.39,1
3379,51.05,2.02,-36.92,1
3380,51.06,0.91,-60.42,1
3381,51.08,21.42,-16.33,1
3382,51.09,15.77,-48.46,1
3383,51.1,6.76,-74.97,1
3384,51.12,6.24,-15.21,1
3385,51.13,-12.15,-34.82,1
3386,51.15,-15.59,-73.44,1
3387,51.16,-5.01,-28.49,1
3388,51.17,-15.29,-41.66,1
3389,51.19,-3.47,-69.9,1
3390,51.2,24.02,-29.03,1
3391,51.21,5.76,-47.05,1
3392,51.22,-9.15,-66.28,1
3393,51.24,8.55,-11.45,1
3394,51.25,1.9,-25.59,1
3395,51.27,-8.42,-49.96,1
3396,51.28,-1.84,-2.32,1
3397,51.29,-12.21,-27.04,1
3398,51.31,-6.66,-60.36,1
3399,51.32,18.37,-9.4,1
3400,51.33,10.44,-23.98,1
3401,51.35,0.61,-51.72,1
3402,51.36,3.05,2.18,1
3403,51.37,-15.47,-13.06,1
3404,51.38,-14.8,-52.86,1
3405,51.4,6.57,-11.42,1
3406,51.41,-1.79,-23.31,1
3407,51.43,-2.27,-51.85,1
3408,51.44,14.92,-0.29,1
3409,51.45,1.72,-1.22,1
3410,51.47,-8.33,-27.57,1
3411,51.48,-0.28,9.35,1
3412,51.49,-13.34,-7.83,1
3413,51.51,-12.58,-36.32,1
3414,51.52,6.56,8.68,1
3415,51.53,-6.94,0.16,1
3416,51.54,-9.6,-25.02,1
3417,51.56,16.03,15.22,1
3418,51.57,4.15,0.26,1
3419,51.59,-15.99,-20.22,1
3420,51.6,-3.06,33.99,1
3421,51.61,2.18,22.13,1
3422,51.62,3.12,-15.9,1
3423,51.64,4.41,17.56,1
3424,51.65,-12.73,2.19,1
3425,51.66,-4.0,-20.63,1
3426,51.68,18.59,31.06,1
3427,51.69,-3.05,15.58,1
3428,51.7,-14.17,-25.08,1
3429,51.72,7.13,19.02,1
3430,51.73,-0.11,13.58,1
3431,51.74,-2.15,-23.21,1
3432,51.76,18.84,10.96,1
3433,51.77,4.09,0.65,1
3434,51.79,-10.47,-24.89,1
3435,51.8,6.66,29.67,1
3436,51.81,3.07,33.56,1
3437,51.83,-0.61,-0.95,1
3438,51.84,12.08,27.42,1
3439,51.85,-3.02,18.76,1
3440,51.87,-12.37,-8.48,1
3441,51.88,1.9,25.44,1
3442,51.89,-9.15,13.75,1
3443,51.9,-16.21,-14.39,1
3444,51.92,-0.5,25.57,1
3445,51.93,-6.52,15.79,1
3446,51.95,-9.16,-17.31,1
3447,51.96,4.05,26.0,1
3448,51.97,-4.71,25.96,1
3449,51.99,-0.01,-10.45,1
3450,52.0,19.73,20.53,1
3451,52.01,3.15,18.16,1
3452,52.03,-0.93,-12.95,1
3453,52.04,20.62,16.02,1
3454,52.05,0.93,6.71,1
3455,52.06,-16.74,-23.7,1
3456,52.08,-1.65,17.75,1
3457,52.09,-10.5,22.43,1
3458,52.11,-9.58,-4.64,1
3459,52.12,15.85,32.05,1
3460,52.13,-0.83,30.34,1
3461,52.15,-15.22,-7.52,1
3462,52.16,11.13,23.87,2
3463,52.17,8.32,33.29,2
3464,52.19,-8.73,8.24,2
3465,52.2,-1.37,51.57,2
3466,52.21,-4.02,97.27,2
3467,52.22,2.92,131.45,2
3468,52.24,21.52,211.51,2
3469,52.25,7.26,228.56,2
3470,52.26,10.06,178.19,2
3471,52.28,37.43,169.08,2
3472,52.29,14.28,127.01,2
3473,52.3,-12.19,46.21,2
3474,52.32,2.23,28.64,2
3475,52.33,-2.44,-4.03,2
3476,52.34,-5.91,-68.32,2
3477,52.36,14.81,-71.33,2
3478,52.37,3.64,-97.49,2
3479,52.38,-10.57,-157.41,2
3480,52.4,3.12,-135.27,2
3481,52.41,-9.87,-112.8,2
3482,52.425,-26.6,-137.19,2
3483,52.44,-13.96,-115.56,2
3484,52.45,-17.18,-104.59,2
3485,52.47,-17.58,-127.01,2
3486,52.48,-1.66,-94.03,2
3487,52.49,-17.95,-73.52,2
3488,52.51,-21.95,-91.38,2
3489,52.52,9.27,-57.17,2
3490,52.53,4.92,-40.99,2
3491,52.54,-5.05,-71.05,2
3492,52.56,13.1,-40.35,1
3493,52.57,1.18,-9.15,1
3494,52.59,-13.04,-34.94,1
3495,52.6,4.42,-29.73,1
3496,52.61,0.46,-23.47,1
3497,52.63,-4.19,-44.4,1
3498,52.64,15.46,-15.57,1
3499,52.65,6.24,2.34,1
3500,52.67,-8.65,-30.52,1
3501,52.68,-0.22,-17.83,1
3502,52.69,-12.37,-0.36,1
3503,52.71,-16.93,-23.78,1
3504,52.72,7.21,-8.43,1
3505,52.73,3.0,2.43,1
3506,52.75,-7.96,-27.08,1
3507,52.76,4.8,-3.64,1
3508,52.77,1.67,24.12,1
3509,52.79,5.13,-4.11,1
3510,52.8,24.41,7.88,1
3511,52.81,6.55,32.08,1
3512,52.83,-10.11,5.52,1
3513,52.84,6.07,13.2,1
3514,52.85,2.37,33.93,1
3515,52.87,0.66,14.81,1
3516,52.88,19.05,32.5,1
3517,52.89,-0.96,48.25,1
3518,52.9,-22.11,10.58,1
3519,52.92,1.87,19.56,1
3520,52.93,9.01,42.32,1
3521,52.94,0.3,7.55,1
3522,52.96,10.13,13.31,1
3523,52.97,3.71,38.8,1
3524,52.98,-0.99,7.95,1
3525,53.0,14.51,16.28,1
3526,53.01,1.67,49.57,1
3527,53.02,-12.43,24.7,1
3528,53.04,3.36,26.98,1
3529,53.05,0.16,45.2,1
3530,53.06,-6.51,7.36,1
3531,53.08,5.16,14.28,1
3532,53.09,-3.0,53.03,1
3533,53.11,1.0,20.03,1
3534,53.12,26.82,9.13,1
3535,53.13,12.29,44.05,1
3536,53.15,-3.28,31.45,1
3537,53.16,14.6,26.68,1
3538,53.17,0.94,32.26,1
3539,53.19,-19.83,-9.89,1
3540,53.2,-4.25,-0.79,1
3541,53.21,-6.63,43.59,1
3542,53.22,-12.4,11.1,1
3543,53.24,13.9,0.4,1
3544,53.25,16.97,37.87,1
3545,53.27,1.22,16.4,1
3546,53.28,0.8,8.38,1
3547,53.29,-12.67,35.43,1
3548,53.31,-17.05,6.44,1
3549,53.32,3.14,0.82,1
3550,53.33,-1.01,30.0,1
3551,53.35,-7.66,-3.55,1
3552,53.36,3.16,-7.53,1
3553,53.37,-9.77,33.81,1
3554,53.38,-6.5,8.82,1
3555,53.4,31.56,4.27,1
3556,53.41,24.64,38.82,1
3557,53.43,-5.98,-0.63,1
3558,53.44,-2.87,-16.99,1
3559,53.45,-9.29,21.83,1
3560,53.47,-17.75,-7.58,1
3561,53.48,4.06,-22.41,1
3562,53.49,8.43,15.53,1
3563,53.51,1.66,-8.06,1
3564,53.52,12.03,-13.36,1
3565,53.53,1.13,32.13,1
3566,53.54,-10.82,9.38,1
3567,53.56,3.65,-1.18,1
3568,53.57,-1.65,33.89,1
3569,53.58,-6.68,-9.73,1
3570,53.6,14.95,-40.69,1
3571,53.61,11.04,0.69,1
3572,53.62,-1.88,-10.45,1
3573,53.64,2.93,-16.71,1
3574,53.65,-15.5,18.39,1
3575,53.66,-19.27,-16.32,1
3576,53.68,13.35,-34.68,1
3577,53.69,3.79,5.12,1
3578,53.7,-21.01,-22.56,1
3579,53.72,-1.07,-33.99,1
3580,53.73,5.63,16.19,1
3581,53.75,-8.33,-7.32,1
3582,53.76,-2.71,-26.01,1
3583,53.77,-4.45,15.17,1
3584,53.79,-6.76,-14.13,1
3585,53.8,7.27,-35.56,1
3586,53.81,-2.77,9.06,1
3587,53.83,-17.56,-13.69,1
3588,53.84,-5.77,-30.98,1
3589,53.85,-6.46,15.07,1
3590,53.87,-5.37,-11.51,1
3591,53.88,14.76,-35.81,1
3592,53.89,1.28,8.38,1
3593,53.9,-17.22,-16.36,1
3594,53.92,1.53,-43.94,1
3595,53.93,-0.21,-5.22,1
3596,53.95,-14.52,-24.15,1
3597,53.96,5.2,-30.89,1
3598,53.97,14.21,27.12,1
3599,53.99,3.92,8.38,1
3600,54.0,2.13,-10.53,1
3601,54.01,-10.8,39.42,1
3602,54.03,-9.62,10.73,1
3603,54.04,17.94,-22.44,1
3604,54.05,12.74,29.66,1
3605,54.06,-5.37,14.49,1
3606,54.08,1.26,-24.77,1
3607,54.09,-8.15,3.06,1
3608,54.11,-14.64,-20.79,1
3609,54.12,11.26,-39.58,1
3610,54.13,11.34,9.11,1
3611,54.15,-7.29,-24.26,1
3612,54.16,3.42,-66.48,2
3613,54.17,5.44,-7.85,2
3614,54.18,-7.85,13.16,2
3615,54.2,-3.66,38.31,2
3616,54.21,-2.28,150.06,2
3617,54.22,2.97,208.02,2
3618,54.24,24.05,208.72,2
3619,54.25,25.94,171.85,2
3620,54.26,25.83,55.49,2
3621,54.28,33.48,2.92,2
3622,54.29,8.16,19.05,2
3623,54.3,-11.5,-29.47,2
3624,54.32,-3.6,-47.08,2
3625,54.33,-29.09,-10.23,2
3626,54.34,-47.43,-6.45,2
3627,54.36,-10.23,108.07,2
3628,54.37,5.02,296.54,2
3629,54.38,-8.03,225.93,2
3630,54.4,17.9,8.25,2
3631,54.41,48.09,-30.37,2
3632,54.43,26.37,-39.3,2
3633,54.44,-9.82,-114.78,2
3634,54.45,-15.27,-105.95,2
3635,54.47,-4.01,-104.03,2
3636,54.48,-1.51,-106.2,2
3637,54.49,-10.04,-45.27,2
3638,54.51,-10.74,-105.63,2
3639,54.52,-6.58,-196.37,2
3640,54.53,-23.04,-189.97,2
3641,54.54,-29.26,-247.54,2
3642,54.56,-2.9,-204.94,1
3643,54.57,-3.59,-15.51,1
3644,54.59,-30.73,-73.86,1
3645,54.6,-24.29,-221.45,1
3646,54.61,-7.97,-69.37,1
3647,54.63,-9.64,81.16,1
3648,54.64,-6.53,-22.63,1
3649,54.65,-7.31,-128.13,1
3650,54.67,-10.49,-103.45,1
3651,54.68,3.41,-3.26,1
3652,54.69,13.45,73.15,1
3653,54.71,15.43,23.71,1
3654,54.72,21.98,-29.98,1
3655,54.73,13.7,-5.33,1
3656,54.75,12.4,-17.22,1
3657,54.76,39.18,-32.34,1
3658,54.77,27.85,-14.87,1
3659,54.79,-19.46,-52.64,1
3660,54.8,-18.47,-81.96,1
3661,54.81,8.55,-65.71,1
3662,54.82,13.28,-84.57,1
3663,54.84,11.89,-61.54,1
3664,54.85,-10.12,7.3,1
3665,54.86,-42.24,-34.24,1
3666,54.88,-29.4,-117.29,1
3667,54.89,5.76,-105.84,1
3668,54.9,19.3,-75.11,1
3669,54.92,20.07,-70.76,1
3670,54.93,12.51,-39.23,1
3671,54.94,6.97,25.37,1
3672,54.96,8.05,115.97,1
3673,54.97,-7.97,152.13,1
3674,54.98,-16.74,58.53,1
3675,55.0,6.51,-0.01,1
3676,55.01,13.59,38.55,1
3677,55.025000000000006,-1.5,8.33,1
3678,55.04,0.22,-2.98,1
3679,55.05,2.07,71.1,1
3680,55.06,1.02,8.91,1
3681,55.08,15.81,-99.8,1
3682,55.09,16.11,-5.59,1
3683,55.11,2.07,104.33,1
3684,55.12,1.93,38.54,1
3685,55.13,-10.66,-47.33,1
3686,55.15,-26.83,-71.55,1
3687,55.16,-11.09,-44.08,1
3688,55.17,-9.66,47.17,1
3689,55.19,-28.16,64.59,1
3690,55.2,-11.04,23.04,1
3691,55.21,12.75,90.85,1
3692,55.22,24.08,161.23,1
3693,55.24,45.68,147.87,1
3694,55.25,37.72,145.03,1
3695,55.27,7.12,129.12,1
3696,55.28,7.7,86.81,1
3697,55.29,7.94,42.15,1
3698,55.31,-7.0,-41.38,1
3699,55.32,-2.69,-85.76,1
3700,55.33,-0.47,-56.89,1
3701,55.35,-5.54,-40.21,1
3702,55.36,7.74,26.28,1
3703,55.37,9.07,115.0,1
3704,55.38,-10.87,73.27,1
3705,55.4,-11.97,49.15,1
3706,55.41,-2.39,162.84,1
3707,55.43,2.63,160.49,1
3708,55.44,15.64,3.27,1
3709,55.45,11.6,-12.01,1
3710,55.46,-13.84,86.57,1
3711,55.48,-19.5,58.2,1
3712,55.49,-14.52,-44.34,1
3713,55.5,-11.64,-80.91,1
3714,55.52,11.68,-41.12,1
3715,55.53,23.51,45.14,1
3716,55.54,-1.16,97.46,1
3717,55.56,-13.34,80.47,1
3718,55.57,-0.39,43.9,1
3719,55.58,7.92,-0.5,1
3720,55.6,5.72,-5.07,1
3721,55.61,-8.31,48.95,1
3722,55.62,-13.14,29.69,1
3723,55.64,9.83,-67.72,1
3724,55.65,19.39,-116.34,1
3725,55.66,3.21,-84.1,1
3726,55.68,-4.85,39.26,1
3727,55.69,-16.37,144.96,1
3728,55.71,-26.27,74.32,1
3729,55.72,2.47,-14.97,1
3730,55.73,25.08,36.32,1
3731,55.75,7.79,65.25,1
3732,55.76,3.64,17.71,1
3733,55.77,11.8,11.63,1
3734,55.79,5.94,29.09,1
3735,55.8,9.31,47.65,1
3736,55.81,11.53,79.75,1
3737,55.83,6.91,56.82,1
3738,55.84,16.11,4.33,1
3739,55.85,5.25,5.36,1
3740,55.87,-29.45,-23.82,1
3741,55.88,-31.96,-100.3,1
3742,55.89,-17.91,-72.11,1
3743,55.9,-24.85,11.46,1
3744,55.92,-23.09,25.49,1
3745,55.93,-7.79,39.88,1
3746,55.95,-5.53,30.26,1
3747,55.96,-4.49,-43.8,1
3748,55.97,-3.29,-29.86,1
3749,55.99,-7.43,37.24,1
3750,56.0,3.5,6.93,1
3751,56.01,14.38,-21.65,1
3752,56.03,3.46,-8.4,1
3753,56.04,-5.01,-34.46,1
3754,56.05,-6.93,-37.25,1
3755,56.06,-13.55,-47.01,1
3756,56.08,-12.55,-102.93,1
3757,56.09,-16.24,-48.85,1
3758,56.1,-24.1,36.9,1
3759,56.12,-0.02,3.18,1
3760,56.13,28.79,12.55,1
3761,56.14,26.85,56.1,1
3762,56.16,21.92,-33.3,0
3763,56.17,9.89,-103.97,0
3764,56.18,-7.97,-48.79,0
3765,56.2,9.91,-4.75,0
3766,56.21,27.29,12.48,0
3767,56.22,4.77,16.19,0
3768,56.24,-6.0,-17.33,0
3769,56.25,2.89,-11.55,0
3770,56.26,-0.76,-12.36,0
3771,56.28,2.28,-81.37,0
3772,56.29,2.9,-76.35,0
3773,56.3,-15.35,-12.31,0
3774,56.32,-12.01,-21.88,0
3775,56.33,2.03,-19.01,0
3776,56.35,-8.8,21.23,0
3777,56.36,-8.91,5.3,0
3778,56.37,5.07,2.97,0
3779,56.38,-0.49,23.15,0
3780,56.4,-4.88,-18.12,0
3781,56.41,-0.5,-36.74,0
3782,56.43,-4.87,-40.67,0
3783,56.44,-5.73,-137.59,0
3784,56.45,-13.56,-213.55,0
3785,56.47,-31.27,-219.96,0
3786,56.48,-17.2,-255.92,0
3787,56.49,8.21,-246.73,0
3788,56.51,1.46,-183.68,0
3789,56.52,-4.4,-181.33,0
3790,56.53,2.12,-143.62,0
3791,56.54,-3.19,-40.81,0
3792,56.56,-0.43,-11.23,1
3793,56.57,3.75,14.23,1
3794,56.59,-6.99,81.52,1
3795,56.6,5.24,81.79,1
3796,56.61,21.43,89.41,1
3797,56.63,-0.35,137.04,1
3798,56.64,-12.13,110.32,1
3799,56.65,0.39,93.47,1
3800,56.67,-5.44,128.42,1
3801,56.68,-10.53,96.97,1
3802,56.69,1.28,74.17,1
3803,56.71,7.98,104.9,1
3804,56.72,15.11,80.77,1
3805,56.73,13.43,76.35,1
3806,56.74,0.0,122.03,1
3807,56.76,5.7,101.66,1
3808,56.77,5.97,91.87,1
3809,56.78,-12.19,107.91,1
3810,56.8,0.88,39.43,1
3811,56.81,17.12,26.49,1
3812,56.82,-6.77,102.25,1
3813,56.84,-13.5,71.24,1
3814,56.85,1.53,27.87,1
3815,56.86,-11.47,80.34,1
3816,56.88,-9.93,82.91,1
3817,56.89,20.4,67.13,1
3818,56.9,18.76,86.33,1
3819,56.92,2.07,33.43,1
3820,56.93,0.18,6.08,1
3821,56.94,-5.66,59.78,1
3822,56.96,3.94,40.19,1
3823,56.97,21.12,21.46,1
3824,56.99,9.6,69.33,1
3825,57.0,4.15,39.34,1
3826,57.01,11.35,9.42,1
3827,57.03,-1.82,51.5,1
3828,57.04,-3.51,22.69,1
3829,57.05,9.63,0.39,1
3830,57.06,2.55,56.08,1
3831,57.08,5.39,34.26,1
3832,57.09,18.01,-0.18,1
3833,57.11,2.16,36.62,1
3834,57.12,-5.1,8.3,1
3835,57.13,7.57,-23.85,1
3836,57.15,2.56,11.78,1
3837,57.16,3.44,-17.23,1
3838,57.17,9.11,-39.03,1
3839,57.19,-6.98,11.18,1
3840,57.2,-0.66,-18.06,1
3841,57.21,19.41,-52.83,1
3842,57.22,-1.24,-3.97,1
3843,57.24,-19.56,-17.81,1
3844,57.25,-11.56,-43.78,1
3845,57.27,-15.17,-3.49,1
3846,57.28,-11.33,-27.58,1
3847,57.29,0.39,-51.81,1
3848,57.31,-8.85,-5.91,1
3849,57.32,-5.7,-35.95,1
3850,57.33,4.37,-66.76,1
3851,57.35,-12.29,-3.98,1
3852,57.36,-8.23,-12.82,1
3853,57.37,15.76,-54.88,1
3854,57.38,3.51,-21.5,1
3855,57.4,-9.77,-42.63,1
3856,57.41,-5.44,-81.32,1
3857,57.42,-18.68,-40.16,1
3858,57.44,-14.13,-41.92,1
3859,57.45,9.62,-55.25,1
3860,57.46,1.03,-8.47,1
3861,57.48,-2.05,-27.25,1
3862,57.49,16.43,-50.47,1
3863,57.5,6.01,3.13,1
3864,57.52,-4.51,-16.83,1
3865,57.53,6.43,-55.0,1
3866,57.54,-1.89,-10.6,1
3867,57.56,-8.23,-28.05,1
3868,57.57,1.83,-58.11,1
3869,57.58,-3.08,-0.71,1
3870,57.6,1.26,-11.17,1
3871,57.61,12.46,-59.22,1
3872,57.625,-11.82,-28.46,1
3873,57.64,-25.94,-35.68,1
3874,57.65,-4.79,-54.82,1
3875,57.67,-0.13,-6.17,1
3876,57.68,-1.11,-17.16,1
3877,57.69,7.0,-45.14,1
3878,57.71,-3.43,-3.47,1
3879,57.72,-1.07,-24.09,1
3880,57.73,18.76,-57.7,1
3881,57.75,11.41,-7.31,1
3882,57.76,7.3,-16.02,1
3883,57.77,13.02,-50.61,1
3884,57.79,-11.48,-5.44,1
3885,57.8,-15.28,-9.77,1
3886,57.81,13.85,-41.1,1
3887,57.83,6.87,-4.93,1
3888,57.84,-4.16,-17.14,1
3889,57.85,12.56,-39.28,1
3890,57.87,8.07,16.96,1
3891,57.88,4.88,10.87,1
3892,57.89,18.28,-30.31,1
3893,57.9,3.87,6.76,1
3894,57.92,-4.14,2.75,1
3895,57.93,5.35,-28.4,1
3896,57.95,-17.05,8.29,1
3897,57.96,-26.05,-7.62,1
3898,57.97,-0.35,-50.31,1
3899,57.99,-3.09,-2.89,1
3900,58.0,-11.53,16.29,1
3901,58.01,1.56,-7.54,1
3902,58.02,-2.85,15.54,1
3903,58.04,-3.95,-1.48,1
3904,58.05,4.48,-33.11,1
3905,58.06,-13.67,7.72,1
3906,58.08,-13.96,10.06,1
3907,58.09,12.88,-13.35,1
3908,58.1,6.63,22.44,1
3909,58.12,-1.38,11.83,1
3910,58.13,12.98,-19.98,1
3911,58.14,0.63,21.65,1
3912,58.16,-10.07,19.15,0
3913,58.17,8.71,-19.0,0
3914,58.18,9.68,16.95,0
3915,58.2,5.79,22.61,0
3916,58.21,15.54,-16.61,0
3917,58.22,0.59,2.55,0
3918,58.24,-12.94,3.66,0
3919,58.25,0.0,-24.7,0
3920,58.26,2.08,-17.41,0
3921,58.28,13.03,-70.19,0
3922,58.29,35.9,-147.7,0
3923,58.31,12.13,-122.68,0
3924,58.32,-20.15,-101.11,0
3925,58.33,-9.62,-118.12,0
3926,58.35,0.78,-85.83,0
3927,58.36,4.18,-84.62,0
3928,58.37,10.72,-106.92,0
3929,58.38,-2.74,-50.67,0
3930,58.4,-4.31,-17.1,0
3931,58.41,14.98,-26.34,0
3932,58.43,6.81,25.13,0
3933,58.44,-6.56,57.09,0
3934,58.45,-9.07,51.42,0
3935,58.47,-27.3,101.33,0
3936,58.48,-23.39,124.68,0
3937,58.49,1.19,102.42,0
3938,58.51,-5.54,129.91,0
3939,58.52,-5.13,135.0,0
3940,58.53,11.97,104.93,0
3941,58.54,-10.66,134.43,0
3942,58.56,-32.52,144.23,1
3943,58.57,-13.06,112.26,1
3944,58.59,-0.67,139.89,1
3945,58.6,1.65,155.19,1
3946,58.61,4.96,116.12,1
3947,58.63,-8.9,117.3,1
3948,58.64,-3.32,116.08,1
3949,58.65,19.09,81.75,1
3950,58.66,1.29,90.82,1
3951,58.68,-14.45,92.69,1
3952,58.69,3.42,60.83,1
3953,58.7,0.49,68.29,1
3954,58.72,-4.45,61.73,1
3955,58.73,12.08,25.5,1
3956,58.74,3.37,42.64,1
3957,58.76,-7.34,45.88,1
3958,58.77,6.93,4.06,1
3959,58.78,3.49,18.06,1
3960,58.8,2.22,34.49,1
3961,58.81,21.23,1.84,1
3962,58.82,12.34,11.3,1
3963,58.84,-2.55,21.81,1
3964,58.85,3.64,-16.74,1
3965,58.86,-6.67,-13.83,1
3966,58.88,-9.03,-2.84,1
3967,58.89,11.39,-30.78,1
3968,58.9,3.91,-15.56,1
3969,58.92,-6.23,-6.96,1
3970,58.93,2.21,-48.24,1
3971,58.95,-18.48,-31.23,1
3972,58.96,-31.48,-6.44,1
3973,58.97,-2.75,-46.08,1
3974,58.99,8.39,-39.53,1
3975,59.0,7.67,-9.53,1
3976,59.01,19.18,-35.17,1
3977,59.03,8.59,-30.34,1
3978,59.04,3.09,-13.65,1
3979,59.05,14.87,-49.18,1
3980,59.06,-9.51,-47.96,1
3981,59.08,-26.01,-28.92,1
3982,59.09,4.61,-56.2,1
3983,59.11,11.28,-44.36,1
3984,59.12,-3.67,-21.85,1
3985,59.13,0.18,-55.09,1
3986,59.15,-2.97,-45.1,1
3987,59.16,10.06,-19.8,1
3988,59.17,40.1,-57.59,1
3989,59.19,16.4,-47.75,1
3990,59.2,-19.98,-8.08,1
3991,59.21,-6.45,-40.21,1
3992,59.22,-1.77,-47.0,1
3993,59.24,-14.57,-21.71,1
3994,59.25,-3.24,-46.09,1
3995,59.27,-0.15,-37.04,1
3996,59.28,-5.72,-9.79,1
3997,59.29,4.27,-49.86,1
3998,59.3,0.79,-52.26,1
3999,59.32,-3.62,-14.88,1
4000,59.33,6.17,-36.96,1
4001,59.34,-2.91,-29.35,1
4002,59.36,-2.58,6.85,1
4003,59.37,17.87,-31.33,1
4004,59.38,5.19,-46.4,1
4005,59.4,-6.7,-18.2,1
4006,59.41,8.75,-42.02,1
4007,59.42,-4.85,-33.92,1
4008,59.44,-15.52,7.58,1
4009,59.45,9.94,-21.22,1
4010,59.46,7.67,-28.68,1
4011,59.48,-8.48,-2.5,1
4012,59.49,-1.1,-39.78,1
4013,59.5,-9.06,-38.72,1
4014,59.52,-12.7,5.71,1
4015,59.53,8.36,-26.27,1
4016,59.54,6.97,-26.94,1
4017,59.56,4.49,26.35,1
4018,59.57,16.99,0.63,1
4019,59.59,-1.59,-13.17,1
4020,59.6,-9.69,19.83,1
4021,59.61,17.05,-13.34,1
4022,59.63,4.49,-17.3,1
4023,59.64,-20.0,27.31,1
4024,59.65,-0.08,-12.82,1
4025,59.67,7.7,-32.34,1
4026,59.68,-5.71,17.29,1
4027,59.69,-4.05,-6.47,1
4028,59.71,-6.05,-25.8,1
4029,59.72,-1.7,16.83,1
4030,59.73,10.77,-1.23,1
4031,59.75,-4.66,-10.19,1
4032,59.76,-10.95,34.2,1
4033,59.77,7.18,11.38,1
4034,59.79,-4.93,-2.65,1
4035,59.8,-13.61,33.84,1
4036,59.81,12.25,-1.47,1
4037,59.83,8.55,-20.07,1
4038,59.84,-11.39,25.5,1
4039,59.85,-1.27,-0.02,1
4040,59.87,-2.42,-15.75,1
4041,59.88,-10.82,29.34,1
4042,59.89,3.97,3.64,1
4043,59.9,2.54,-10.08,1
4044,59.92,-5.97,37.11,1
4045,59.93,4.45,10.34,1
4046,59.94,-2.3,-6.99,1
4047,59.96,-3.53,37.49,1
4048,59.97,19.44,9.43,1
4049,59.98,6.08,-6.55,1
4050,60.0,-19.16,43.36,1
4051,60.01,-5.28,17.33,1
4052,60.02,1.33,-3.63,1
4053,60.04,-0.88,42.74,1
4054,60.05,10.22,15.51,1
4055,60.06,-5.75,-8.48,1
4056,60.08,-21.16,37.81,1
4057,60.09,-0.24,13.7,1
4058,60.1,0.16,-12.93,1
4059,60.12,-10.99,25.45,1
4060,60.13,3.91,4.04,1
4061,60.14,3.35,0.97,1
4062,60.16,0.55,62.33,2
4063,60.17,19.61,34.76,2
4064,60.18,10.81,21.62,2
4065,60.2,-5.37,117.59,2
4066,60.21,7.59,150.39,2
4067,60.22,-0.15,160.23,2
4068,60.24,-15.5,222.6,2
4069,60.25,3.97,191.93,2
4070,60.27,10.89,135.08,2
4071,60.28,0.9,148.46,2
4072,60.29,4.77,94.48,2
4073,60.31,-12.36,28.58,2
4074,60.32,-31.69,37.53,2
4075,60.33,-9.56,-17.67,2
4076,60.35,4.25,-81.68,2
4077,60.36,-5.5,-68.4,2
4078,60.37,0.38,-114.62,2
4079,60.38,10.01,-162.42,2
4080,60.4,18.64,-123.37,2
4081,60.41,26.69,-134.96,2
4082,60.43,7.33,-151.55,2
4083,60.44,-12.77,-101.18,2
4084,60.45,-7.54,-121.81,2
4085,60.47,-12.86,-145.02,2
4086,60.48,-15.06,-80.09,2
4087,60.49,7.02,-80.03,2
4088,60.51,4.59,-102.87,2
4089,60.52,-9.95,-54.74,2
4090,60.53,2.28,-62.2,2
4091,60.54,0.83,-72.83,2
4092,60.56,-6.59,-16.13,1
4093,60.57,11.61,-40.01,1
4094,60.58,8.6,-76.1,1
4095,60.6,-8.01,-23.66,1
4096,60.61,6.33,-32.85,1
4097,60.62,14.92,-57.79,1
4098,60.64,10.46,-3.84,1
4099,60.65,19.71,-14.32,1
4100,60.66,14.03,-37.98,1
4101,60.68,2.24,23.08,1
4102,60.69,8.75,16.27,1
4103,60.7,-2.06,-24.86,1
4104,60.72,-14.05,7.06,1
4105,60.73,3.03,-4.26,1
4106,60.74,3.21,-15.45,1
4107,60.76,-5.25,46.3,1
4108,60.77,12.65,30.01,1
4109,60.78,9.3,-12.3,1
4110,60.8,-12.88,34.96,1
4111,60.81,-7.72,33.92,1
4112,60.82,-5.75,4.36,1
4113,60.84,-11.82,42.67,1
4114,60.85,1.35,26.95,1
4115,60.865,1.92,-9.09,1
4116,60.88,-9.44,29.12,1
4117,60.89,0.38,18.79,1
4118,60.9,5.53,-6.07,1
4119,60.92,-1.87,44.0,1
4120,60.93,-0.44,40.15,1
4121,60.95,-5.37,7.76,1
4122,60.96,-6.74,41.96,1
4123,60.97,9.05,33.64,1
4124,60.99,5.33,12.64,1
4125,61.0,-6.9,54.92,1
4126,61.01,-0.5,34.4,1
4127,61.03,-7.89,-1.64,1
4128,61.04,-18.19,48.11,1
4129,61.05,-2.4,45.4,1
4130,61.06,1.57,11.52,1
4131,61.08,-5.61,54.25,1
4132,61.09,4.78,45.38,1
4133,61.11,1.9,-5.14,1
4134,61.12,-7.45,22.78,1
4135,61.13,6.28,32.3,1
4136,61.15,6.95,16.16,1
4137,61.16,-3.79,48.01,1
4138,61.17,5.22,29.56,1
4139,61.19,-1.44,-9.01,1
4140,61.2,-19.11,28.44,1
4141,61.21,-7.26,30.5,1
4142,61.22,0.83,-0.05,1
4143,61.24,-7.18,29.36,1
4144,61.25,-5.21,24.88,1
4145,61.26,-8.32,-1.75,1
4146,61.28,-2.44,38.75,1
4147,61.29,23.91,35.78,1
4148,61.3,14.76,-10.66,1
4149,61.32,-16.42,7.75,1
4150,61.33,-8.55,8.65,1
4151,61.34,0.97,-11.0,1
4152,61.36,-11.27,30.78,1
4153,61.37,-2.31,30.42,1
4154,61.38,11.2,-12.67,1
4155,61.4,7.7,12.08,1
4156,61.41,7.59,22.31,1
4157,61.42,-0.29,-2.57,1
4158,61.44,-9.3,17.5,1
4159,61.45,2.17,5.99,1
4160,61.46,3.23,-27.55,1
4161,61.48,-8.95,7.49,1
4162,61.49,-5.14,14.25,1
4163,61.5,-0.75,-17.48,1
4164,61.52,3.32,10.62,1
4165,61.53,17.86,17.36,1
4166,61.54,13.85,-15.07,1
4167,61.56,1.5,1.34,1
4168,61.57,6.28,-1.83,1
4169,61.59,-1.44,-25.98,1
4170,61.6,-10.64,9.58,1
4171,61.61,9.8,10.82,1
4172,61.63,19.14,-29.46,1
4173,61.64,6.99,-2.12,1
4174,61.65,6.71,10.33,1
4175,61.67,4.7,-27.91,1
4176,61.68,4.96,-14.01,1
4177,61.69,18.75,-0.99,1
4178,61.71,2.23,-22.3,1
4179,61.72,-28.32,-1.23,1
4180,61.73,-15.54,0.76,1
4181,61.75,-1.68,-34.19,1
4182,61.76,-19.41,-12.51,1
4183,61.77,-18.33,2.65,1
4184,61.79,4.96,-23.97,1
4185,61.8,18.46,-4.04,1
4186,61.81,20.08,4.91,1
4187,61.83,4.43,-29.84,1
4188,61.84,-8.9,-10.46,1
4189,61.85,3.0,5.97,1
4190,61.86,6.91,-29.94,1
4191,61.88,1.03,-16.18,1
4192,61.89,16.86,8.8,1
4193,61.9,21.04,-14.19,1
4194,61.92,-0.93,-2.76,1
4195,61.93,-6.26,11.74,1
4196,61.94,-4.23,-14.49,1
4197,61.96,-13.95,0.12,1
4198,61.97,-11.15,9.97,1
4199,61.98,-4.42,-36.26,1
4200,62.0,-2.32,-36.0,1
4201,62.01,9.87,-11.66,1
4202,62.02,3.98,-25.91,1
4203,62.04,-17.73,-6.66,1
4204,62.05,-10.63,6.14,1
4205,62.06,-0.94,-33.61,1
4206,62.08,-10.61,-17.56,1
4207,62.09,-5.21,11.06,1
4208,62.1,2.47,-27.69,1
4209,62.12,-4.94,-20.0,1
4210,62.13,-2.05,9.47,1
4211,62.14,0.07,-32.28,1
4212,62.16,-7.12,-11.92,2
4213,62.17,2.14,104.53,2
4214,62.19,3.89,196.26,2
4215,62.2,-13.55,220.83,2
4216,62.21,-2.93,123.76,2
4217,62.22,19.38,43.7,2
4218,62.24,19.05,165.02,2
4219,62.25,20.77,212.46,2
4220,62.27,16.03,100.26,2
4221,62.28,-1.23,177.07,2
4222,62.29,2.39,344.09,2
4223,62.31,1.9,297.49,2
4224,62.32,-26.02,172.76,2
4225,62.33,-31.04,149.13,2
4226,62.35,-1.82,152.39,2
4227,62.36,16.01,111.22,2
4228,62.37,6.89,65.31,2
4229,62.38,-22.03,43.69,2
4230,62.4,-32.18,24.69,2
4231,62.41,6.61,-3.08,2
4232,62.43,21.5,-58.15,2
4233,62.44,-23.88,-159.84,2
4234,62.45,-36.86,-217.26,2
4235,62.47,1.19,-159.04,2
4236,62.48,18.41,-155.29,2
4237,62.49,17.85,-352.5,2
4238,62.5,10.21,-472.37,2
4239,62.52,-20.86,-268.87,2
4240,62.53,-26.54,-101.44,2
4241,62.54,6.19,-189.45,2
4242,62.56,18.65,-229.21,1
4243,62.57,13.36,-197.71,1
4244,62.58,12.83,-233.88,1
4245,62.6,1.26,-229.55,1
4246,62.61,0.55,-200.0,1
4247,62.62,21.85,-201.59,1
4248,62.64,18.59,-196.09,1
4249,62.65,-3.01,-290.66,1
4250,62.66,-9.13,-375.92,1
4251,62.68,-11.73,-212.39,1
4252,62.69,5.27,-89.15,1
4253,62.7,45.67,-149.91,1
4254,62.72,45.04,-45.08,1
4255,62.73,0.22,71.4,1
4256,62.74,-24.1,-97.35,1
4257,62.76,-22.97,-200.1,1
4258,62.77,-17.56,-36.91,1
4259,62.78,-6.41,82.96,1
4260,62.8,7.85,34.83,1
4261,62.81,26.0,-63.1,1
4262,62.82,18.18,-115.05,1
4263,62.84,-24.25,-49.49,1
4264,62.85,-24.12,11.18,1
4265,62.87,10.89,-63.37,1
4266,62.88,-2.4,-86.5,1
4267,62.89,-29.51,-12.88,1
4268,62.9,-17.95,-32.17,1
4269,62.92,5.85,-68.74,1
4270,62.93,29.44,-12.38,1
4271,62.95,34.7,36.27,1
4272,62.96,1.91,37.9,1
4273,62.97,-22.3,-7.52,1
4274,62.99,-17.27,-55.82,1
4275,63.0,-14.05,23.67,1
4276,63.01,-3.9,105.34,1
4277,63.03,10.44,38.86,1
4278,63.04,4.36,63.72,1
4279,63.05,-0.26,202.4,1
4280,63.06,2.32,144.88,1
4281,63.08,-1.4,14.74,1
4282,63.09,11.53,43.88,1
4283,63.11,25.38,64.36,1
4284,63.12,10.08,47.57,1
4285,63.13,7.79,87.34,1
4286,63.14,23.68,85.08,1
4287,63.16,8.52,53.33,1
4288,63.17,-20.7,38.84,1
4289,63.18,-37.23,63.25,1
4290,63.2,-37.41,222.53,1
4291,63.21,-1.21,307.6,1
4292,63.22,18.88,114.05,1
4293,63.24,-22.45,-11.04,1
4294,63.25,-35.04,105.34,1
4295,63.26,4.25,148.29,1
4296,63.28,8.27,101.06,1
4297,63.29,-8.88,108.37,1
4298,63.3,-4.93,69.12,1
4299,63.32,-11.34,40.96,1
4300,63.33,-16.19,85.63,1
4301,63.34,4.76,85.5,1
4302,63.36,10.38,139.75,1
4303,63.37,-6.89,224.81,1
4304,63.38,-12.92,122.69,1
4305,63.4,-6.0,32.5,1
4306,63.41,3.29,102.13,1
4307,63.42,-6.84,80.66,1
4308,63.44,-33.18,10.8,1
4309,63.45,-17.91,56.94,1
4310,63.46,20.68,71.32,1
4311,63.48,14.83,36.5,1
4312,63.49,3.23,34.32,1
4313,63.51,19.1,11.99,1
4314,63.52,12.58,55.43,1
4315,63.53,-3.49,134.27,1
4316,63.54,6.85,49.33,1
4317,63.56,9.62,-0.28,1
4318,63.57,4.03,137.01,1
4319,63.59,8.6,154.79,1
4320,63.6,3.27,46.88,1
4321,63.61,1.35,47.84,1
4322,63.63,2.86,74.61,1
4323,63.64,-14.56,93.8,1
4324,63.65,-6.04,150.39,1
4325,63.67,34.17,127.54,1
4326,63.68,41.02,73.92,1
4327,63.69,20.9,60.11,1
4328,63.71,2.14,-23.27,1
4329,63.72,-18.2,-69.18,1
4330,63.73,-10.95,-1.62,1
4331,63.75,16.09,-17.22,1
4332,63.76,18.75,-49.31,1
4333,63.77,20.33,15.2,1
4334,63.78,23.76,-6.14,1
4335,63.8,-6.15,-64.54,1
4336,63.81,-20.94,-22.15,1
4337,63.82,-0.58,-27.18,1
4338,63.84,-6.54,-40.67,1
4339,63.85,-18.92,46.76,1
4340,63.86,-13.39,26.78,1
4341,63.88,-29.42,-76.17,1
4342,63.89,-31.43,-22.64,1
4343,63.9,-2.83,63.54,1
4344,63.92,-4.91,60.36,1
4345,63.93,-11.23,68.9,1
4346,63.94,8.1,55.66,1
4347,63.96,6.88,22.22,1
4348,63.97,1.32,24.48,1
4349,63.98,10.89,-29.83,1
4350,64.0,3.65,-68.02,1
4351,64.01,2.81,-0.83,1
4352,64.02,16.25,-13.51,1
4353,64.04,5.34,-88.06,1
4354,64.05,-0.1,-49.64,1
4355,64.06,14.2,-13.05,1
4356,64.08,4.29,-42.54,1
4357,64.09,-4.55,-63.58,1
4358,64.1,3.14,-124.27,1
4359,64.12,-6.75,-135.07,1
4360,64.13,0.14,-44.05,1
4361,64.14,18.22,-64.37,1
4362,64.16,-10.09,-134.24,0
4363,64.17,-24.3,-74.23,0
4364,64.18,8.56,-51.62,0
4365,64.2,12.15,-98.2,0
4366,64.21,0.11,-63.74,0
4367,64.22,9.22,-35.89,0
4368,64.24,1.85,-43.59,0
4369,64.25,-4.8,-5.96,0
4370,64.26,3.79,-8.54,0
4371,64.28,-7.54,-32.13,0
4372,64.29,-3.83,-4.53,0
4373,64.3,16.59,-48.36,0
4374,64.32,-13.08,-130.29,0
4375,64.33,-41.51,-134.73,0
4376,64.34,-13.49,-179.68,0
4377,64.36,3.12,-263.0,0
4378,64.37,-0.05,-268.74,0
4379,64.38,6.93,-290.42,0
4380,64.4,-10.5,-334.85,0
4381,64.41,-26.91,-295.2,0
4382,64.42,-7.58,-246.19,0
4383,64.44,-3.65,-201.72,0
4384,64.45,-8.14,-101.16,0
4385,64.46,13.36,-43.02,0
4386,64.48,22.19,-14.46,0
4387,64.49,19.32,72.79,0
4388,64.5,22.64,102.73,0
4389,64.52,4.25,69.82,0
4390,64.53,-11.48,100.67,0
4391,64.54,-4.28,121.28,0
4392,64.56,-10.79,100.36,1
4393,64.57,-10.64,117.28,1
4394,64.58,11.14,108.38,1
4395,64.6,12.52,83.94,1
4396,64.61,11.15,125.13,1
4397,64.62,19.42,128.36,1
4398,64.64,3.25,84.06,1
4399,64.65,-3.58,103.6,1
4400,64.66,13.02,108.2,1
4401,64.68,4.18,73.83,1
4402,64.69,-0.24,105.61,1
4403,64.7,22.04,130.3,1
4404,64.72,14.25,98.37,1
4405,64.73,-7.1,93.25,1
4406,64.74,-3.22,74.16,1
4407,64.76,-4.33,37.82,1
4408,64.77,-1.84,64.99,1
4409,64.79,6.73,71.82,1
4410,64.8,-14.25,31.59,1
4411,64.81,-21.72,48.59,1
4412,64.82,3.33,65.29,1
4413,64.84,2.45,42.85,1
4414,64.85,-5.66,61.58,1
4415,64.86,3.62,58.28,1
4416,64.88,-7.34,11.99,1
4417,64.89,-11.47,33.64,1
4418,64.9,7.6,55.89,1
4419,64.92,0.23,18.13,1
4420,64.93,-5.29,24.86,1
4421,64.94,14.28,44.02,1
4422,64.96,7.16,23.04,1
4423,64.97,-3.01,35.42,1
4424,64.98,7.15,36.66,1
4425,65.0,-11.9,-2.15,1
4426,65.01,-28.72,13.55,1
4427,65.02,-5.34,27.76,1
4428,65.04,5.45,-12.67,1
4429,65.05,3.93,-4.14,1
4430,65.06,11.51,16.66,1
4431,65.08,-0.5,-15.5,1
4432,65.09,-8.08,-7.82,1
4433,65.1,2.53,8.69,1
4434,65.12,-11.64,-30.69,1
4435,65.13,-21.78,-27.13,1
4436,65.14,-5.92,-1.21,1
4437,65.16,-10.39,-23.37,1
4438,65.17,-11.25,-7.76,1
4439,65.18,8.46,18.45,1
4440,65.2,0.64,-18.94,1
4441,65.21,-3.34,-28.17,1
4442,65.22,15.11,-15.76,1
4443,65.24,-0.43,-41.88,1
4444,65.25,-15.43,-25.6,1
4445,65.26,4.77,-4.74,1
4446,65.28,2.04,-48.38,1
4447,65.29,-8.71,-40.45,1
4448,65.3,7.66,0.81,1
4449,65.32,6.52,-28.32,1
4450,65.33,-2.12,-37.19,1
4451,65.34,9.19,-18.34,1
4452,65.36,3.32,-49.38,1
4453,65.37,-3.5,-42.9,1
4454,65.38,12.43,-5.32,1
4455,65.4,6.85,-29.14,1
4456,65.41,-6.98,-31.3,1
4457,65.42,0.98,-7.58,1
4458,65.44,-5.44,-40.5,1
4459,65.45,-13.59,-44.75,1
4460,65.46,-1.16,-17.02,1
4461,65.48,-3.41,-37.49,1
4462,65.49,-1.97,-21.72,1
4463,65.5,15.56,14.8,1
4464,65.52,-0.35,-26.57,1
4465,65.53,-22.8,-41.02,1
4466,65.54,-8.9,-9.01,1
4467,65.56,2.9,-32.63,1
4468,65.57,6.65,-27.29,1
4469,65.58,11.27,17.06,1
4470,65.6,-4.15,-10.32,1
4471,65.61,-5.87,-22.79,1
4472,65.62,16.04,3.32,1
4473,65.64,6.88,-33.53,1
4474,65.65,-8.36,-40.04,1
4475,65.66,4.1,2.24,1
4476,65.68,-1.4,-27.54,1
4477,65.69,-11.91,-38.15,1
4478,65.7,3.77,2.43,1
4479,65.72,5.46,-26.05,1
4480,65.73,2.34,-37.59,1
4481,65.74,12.63,2.37,1
4482,65.76,-1.99,-22.09,1
4483,65.77,-10.59,-25.96,1
4484,65.78,8.27,19.36,1
4485,65.8,-4.23,-11.74,1
4486,65.81,-18.35,-33.92,1
4487,65.82,7.69,2.83,1
4488,65.84,12.29,-16.64,1
4489,65.85,4.19,-25.77,1
4490,65.86,23.59,10.81,1
4491,65.88,17.66,-12.67,1
4492,65.89,-5.89,-14.1,1
4493,65.9,-1.84,33.18,1
4494,65.92,-5.16,5.03,1
4495,65.93,-8.97,-2.18,1
4496,65.94,8.64,48.36,1
4497,65.96,4.36,9.76,1
4498,65.97,-6.5,-24.65,1
4499,65.98,0.78,10.12,1
4500,66.0,-12.55,-20.14,1
4501,66.01,-18.48,-32.37,1
4502,66.02,12.03,30.19,1
4503,66.04,20.7,20.39,1
4504,66.05,8.89,1.3,1
4505,66.06,5.14,31.34,1
4506,66.08,-16.91,-3.78,1
4507,66.09,-25.88,-12.0,1
4508,66.11,-1.19,42.89,1
4509,66.12,-1.09,3.84,1
4510,66.13,-5.74,-26.94,1
4511,66.14,19.38,26.35,1
4512,66.16,23.38,3.65,0
4513,66.17,13.01,-21.63,0
4514,66.18,17.52,25.84,0
4515,66.2,6.43,-0.15,0
4516,66.21,1.22,-26.62,0
4517,66.22,15.24,20.76,0
4518,66.24,0.27,-6.78,0
4519,66.25,-9.46,-53.82,0
4520,66.26,12.47,-48.23,0
4521,66.28,0.39,-107.39,0
4522,66.29,-23.69,-145.22,0
4523,66.3,-12.84,-95.56,0
4524,66.32,-12.64,-108.36,0
4525,66.33,-10.4,-120.28,0
4526,66.34,16.42,-68.04,0
4527,66.36,9.64,-89.71,0
4528,66.37,-8.39,-94.64,0
4529,66.38,9.81,-8.2,0
4530,66.4,15.15,-2.12,0
4531,66.41,2.8,-13.52,0
4532,66.42,1.29,57.1,0
4533,66.44,-9.77,64.8,0
4534,66.45,-12.0,52.64,0
4535,66.46,-1.77,100.58,0
4536,66.48,-20.03,86.45,0
4537,66.49,-15.92,78.45,0
4538,66.5,32.06,143.3,0
4539,66.52,23.45,131.39,0
4540,66.53,-23.75,114.08,0
4541,66.54,-14.93,173.46,0
4542,66.56,3.83,154.75,1
4543,66.57,-3.61,123.17,1
4544,66.58,0.37,164.42,1
4545,66.6,-1.71,125.33,1
4546,66.61,-3.79,78.46,1
4547,66.62,12.49,123.33,1
4548,66.64,0.15,97.84,1
4549,66.65,-18.31,51.33,1
4550,66.66,1.29,89.43,1
4551,66.68,3.82,70.92,1
4552,66.69,-13.63,36.3,1
4553,66.7,-9.19,71.54,1
4554,66.72,-15.11,39.69,1
4555,66.73,-25.11,1.09,1
4556,66.75,-6.88,49.9,1
4557,66.76,-2.67,32.56,1
4558,66.77,-10.87,-8.82,1
4559,66.79,-1.07,27.74,1
4560,66.8,-6.17,3.86,1
4561,66.81,-12.54,-36.77,1
4562,66.82,9.0,6.4,1
4563,66.84,14.42,-4.71,1
4564,66.85,5.78,-34.29,1
4565,66.86,16.33,8.35,1
4566,66.88,13.0,-14.22,1
4567,66.89,-6.85,-54.28,1
4568,66.9,-10.24,-9.93,1
4569,66.92,-14.19,-20.64,1
4570,66.93,-16.49,-50.05,1
4571,66.94,-1.26,-3.34,1
4572,66.96,-1.05,-18.55,1
4573,66.97,-7.29,-55.69,1
4574,66.98,6.02,-17.1,1
4575,67.0,4.01,-34.77,1
4576,67.01,-2.14,-63.77,1
4577,67.02,19.35,-13.15,1
4578,67.04,22.05,-28.1,1
4579,67.05,2.5,-69.18,1
4580,67.06,2.35,-29.65,1
4581,67.08,-1.01,-38.51,1
4582,67.09,-6.57,-62.66,1
4583,67.1,8.57,-11.05,1
4584,67.12,8.74,-27.71,1
4585,67.13,1.04,-71.21,1
4586,67.14,17.52,-18.54,1
4587,67.16,15.36,-15.42,1
4588,67.17,-9.19,-56.6,1
4589,67.18,-9.35,-24.3,1
4590,67.2,-2.18,-35.64,1
4591,67.21,-2.41,-74.85,1
4592,67.22,2.87,-31.34,1
4593,67.24,-0.89,-25.71,1
4594,67.25,-0.78,-55.14,1
4595,67.26,13.32,-24.59,1
4596,67.28,6.28,-41.73,1
4597,67.29,-2.39,-76.65,1
4598,67.3,14.6,-25.35,1
4599,67.32,9.24,-16.62,1
4600,67.33,-13.91,-50.82,1
4601,67.34,-5.01,-18.42,1
4602,67.36,4.22,-16.68,1
4603,67.37,-5.81,-44.48,1
4604,67.38,-3.59,-13.61,1
4605,67.4,0.79,-22.9,1
4606,67.41,6.1,-50.79,1
4607,67.43,22.63,-0.18,1
4608,67.44,15.63,4.04,1
4609,67.45,-7.5,-40.68,1
4610,67.46,-12.82,-12.53,1
4611,67.48,-18.58,-4.75,1
4612,67.49,-14.25,-37.49,1
4613,67.5,14.47,-11.91,1
4614,67.52,16.66,-5.76,1
4615,67.53,-5.49,-23.66,1
4616,67.54,-6.15,17.83,1
4617,67.56,-5.49,18.03,1
4618,67.57,-5.44,-24.91,1
4619,67.58,17.68,0.39,1
4620,67.6,24.63,7.84,1
4621,67.61,2.91,-18.59,1
4622,67.62,-6.61,16.02,1
4623,67.64,-7.05,23.05,1
4624,67.65,-2.84,-9.03,1
4625,67.66,16.12,16.76,1
4626,67.68,17.19,12.42,1
4627,67.69,0.29,-25.6,1
4628,67.7,0.04,10.81,1
4629,67.72,-4.99,27.45,1
4630,67.73,-17.92,-3.8,1
4631,67.74,-7.11,18.07,1
4632,67.76,1.32,18.58,1
4633,67.77,-8.16,-17.21,1
4634,67.78,-6.38,11.41,1
4635,67.8,-0.6,24.57,1
4636,67.81,1.93,-5.87,1
4637,67.82,9.33,15.98,1
4638,67.84,-0.02,20.56,1
4639,67.85,-15.37,-9.7,1
4640,67.86,-5.87,22.87,1
4641,67.88,-0.03,34.52,1
4642,67.89,-9.84,-7.07,1
4643,67.9,-7.58,10.6,1
4644,67.92,-6.41,23.7,1
4645,67.93,-13.32,-6.81,1
4646,67.94,-6.31,19.32,1
4647,67.96,-3.98,33.49,1
4648,67.97,-10.77,-8.49,1
4649,67.98,1.89,3.71,1
4650,68.0,8.9,23.62,1
4651,68.01,-5.6,4.77,1
4652,68.02,-9.02,36.14,1
4653,68.04,-6.47,58.34,1
4654,68.05,-4.75,23.11,1
4655,68.06,7.63,30.48,1
4656,68.08,2.85,37.72,1
4657,68.09,-13.15,3.37,1
4658,68.11,0.67,24.53,1
4659,68.12,14.53,41.21,1
4660,68.13,1.95,-2.25,1
4661,68.14,-4.13,11.6,1
4662,68.16,1.11,42.47,2
4663,68.17,9.03,11.52,2
4664,68.18,23.07,16.4,2
4665,68.2,18.48,30.72,2
4666,68.21,-0.34,-14.96,2
4667,68.22,6.1,-13.81,2
4668,68.24,14.14,31.03,2
4669,68.25,-6.93,52.55,2
4670,68.26,-18.18,124.92,2
4671,68.28,-2.84,207.42,2
4672,68.29,10.44,214.33,2
4673,68.3,5.23,222.09,2
4674,68.32,-18.33,212.88,2
4675,68.33,-28.97,144.31,2
4676,68.34,-8.65,123.25,2
4677,68.36,-2.71,104.94,2
4678,68.37,-17.23,1.81,2
4679,68.38,-7.84,-51.4,2
4680,68.4,3.15,-38.24,2
4681,68.41,-5.02,-73.03,2
4682,68.42,9.17,-103.14,2
4683,68.44,32.5,-124.39,2
4684,68.45,26.81,-183.61,2
4685,68.46,14.22,-173.45,2
4686,68.48,1.51,-123.79,2
4687,68.49,-15.08,-151.95,2
4688,68.5,-10.58,-151.53,2
4689,68.52,-0.2,-105.68,2
4690,68.53,0.46,-122.58,2
4691,68.54,16.03,-116.97,2
4692,68.56,26.1,-79.32,1
4693,68.57,11.25,-105.66,1
4694,68.58,1.18,-98.51,1
4695,68.6,-14.92,-57.84,1
4696,68.61,-31.66,-102.69,1
4697,68.62,-3.21,-122.49,1
4698,68.64,23.03,-71.69,1
4699,68.65,6.71,-68.25,1
4700,68.66,13.5,-54.78,1
4701,68.68,34.03,-17.24,1
4702,68.69,6.68,-42.45,1
4703,68.7,-18.91,-32.37,1
4704,68.72,-8.08,15.7,1
4705,68.73,-3.35,-16.92,1
4706,68.75,-2.95,-21.66,1
4707,68.76,-1.37,25.78,1
4708,68.77,-6.14,-5.47,1
4709,68.79,5.8,-13.87,1
4710,68.8,12.36,38.16,1
4711,68.81,-9.23,10.32,1
4712,68.82,-11.02,-4.6,1
4713,68.84,5.7,49.38,1
4714,68.85,3.27,29.5,1
4715,68.86,6.67,3.96,1
4716,68.88,12.76,37.88,1
4717,68.89,-5.8,17.61,1
4718,68.9,-11.97,4.48,1
4719,68.92,2.76,40.38,1
4720,68.93,4.66,20.63,1
4721,68.94,3.78,22.74,1
4722,68.96,-2.65,65.43,1
4723,68.97,-17.9,23.72,1
4724,68.98,-4.6,6.38,1
4725,69.0,12.52,56.13,1
4726,69.01,-1.62,26.71,1
4727,69.02,-2.73,10.56,1
4728,69.04,5.26,54.17,1
4729,69.05,-12.47,17.19,1
4730,69.06,-14.39,1.22,1
4731,69.08,3.15,61.83,1
4732,69.09,-1.13,42.35,1
4733,69.1,-3.63,20.08,1
4734,69.12,7.18,59.02,1
4735,69.13,10.83,25.79,1
4736,69.14,17.54,4.66,1
4737,69.16,13.82,54.29,1
4738,69.17,-8.05,28.31,1
4739,69.18,-9.49,6.38,1
4740,69.2,-8.0,52.18,1
4741,69.21,-28.91,18.92,1
4742,69.22,-21.69,-6.76,1
4743,69.24,7.15,52.36,1
4744,69.25,4.76,35.33,1
4745,69.26,-2.07,1.63,1
4746,69.28,1.81,39.62,1
4747,69.29,-7.05,21.13,1
4748,69.3,-8.38,4.57,1
4749,69.32,-4.72,45.76,1
4750,69.33,-12.97,9.36,1
4751,69.34,-5.54,-12.91,1
4752,69.36,-3.46,48.55,1
4753,69.37,-28.81,27.33,1
4754,69.38,-23.45,-2.42,1
4755,69.4,5.62,48.6,1
4756,69.41,7.89,26.53,1
4757,69.43,16.08,-2.82,1
4758,69.44,29.73,42.99,1
4759,69.45,11.42,10.82,1
4760,69.46,0.77,-25.95,1
4761,69.48,6.95,27.9,1
4762,69.49,-7.95,12.29,1
4763,69.5,-10.88,-23.98,1
4764,69.52,9.39,16.15,1
4765,69.53,10.62,0.46,1
4766,69.54,7.61,-16.88,1
4767,69.56,7.79,39.06,1
4768,69.57,-4.82,20.16,1
4769,69.58,3.28,-14.88,1
4770,69.6,18.53,20.61,1
4771,69.61,-3.16,-9.43,1
4772,69.62,-19.11,-38.84,1
4773,69.64,-11.14,10.47,1
4774,69.65,-16.74,-13.88,1
4775,69.66,-13.51,-41.05,1
4776,69.68,3.74,22.56,1
4777,69.69,-1.2,10.24,1
4778,69.7,-2.86,-29.72,1
4779,69.72,4.68,10.13,1
4780,69.73,-10.01,-7.89,1
4781,69.74,-10.01,-34.4,1
4782,69.76,13.31,17.46,1
4783,69.77,12.84,0.39,1
4784,69.78,11.91,-28.22,1
4785,69.8,22.06,26.28,1
4786,69.81,9.52,10.88,1
4787,69.82,6.31,-26.19,1
4788,69.84,14.6,15.48,1
4789,69.85,-9.4,-6.71,1
4790,69.86,-21.98,-40.97,1
4791,69.88,-1.96,13.15,1
4792,69.89,2.4,4.15,1
4793,69.9,7.42,-29.4,1
4794,69.92,18.82,15.32,1
4795,69.93,-1.3,-2.35,1
4796,69.94,-17.7,-42.54,1
4797,69.96,-7.38,-4.18,1
4798,69.97,-3.9,-18.33,1
4799,69.98,4.74,-40.82,1
4800,70.0,12.29,9.16,1
4801,70.01,-9.29,-18.15,1
4802,70.02,-12.66,-62.25,1
4803,70.04,8.09,-7.8,1
4804,70.05,0.82,-7.41,1
4805,70.06,-2.04,-42.58,1
4806,70.08,11.13,-6.91,1
4807,70.09,-7.31,-15.47,1
4808,70.11,-16.77,-31.66,1
4809,70.12,6.62,25.83,1
4810,70.13,6.81,21.21,1
4811,70.14,2.55,-6.85,1
4812,70.16,13.08,39.06,2
4813,70.17,-1.78,61.4,2
4814,70.18,-10.55,58.7,2
4815,70.2,6.28,33.04,2
4816,70.21,1.64,-30.76,2
4817,70.22,4.99,13.04,2
4818,70.24,34.91,174.54,2
4819,70.25,30.11,264.68,2
4820,70.26,10.24,214.42,2
4821,70.28,21.12,117.25,2
4822,70.29,36.54,45.8,2
4823,70.3,38.42,22.34,2
4824,70.32,9.11,3.74,2
4825,70.33,-32.94,-37.89,2
4826,70.34,-22.43,14.04,2
4827,70.36,2.96,72.11,2
4828,70.37,-21.77,-76.51,2
4829,70.38,-42.03,-210.81,2
4830,70.4,-26.84,-112.35,2
4831,70.41,-21.1,-29.46,2
4832,70.42,-13.44,-99.28,2
4833,70.44,0.45,-167.44,2
4834,70.45,-11.02,-214.09,2
4835,70.46,-9.84,-249.85,2
4836,70.48,10.13,-175.57,2
4837,70.49,1.09,-59.3,2
