,Timestamp,Data1,Data2,Label
0,6.0,-4.55,14.41,1
1,6.01,-13.39,-0.12,1
2,6.03,-13.22,-31.57,1
3,6.04,-15.4,28.62,1
4,6.05,-1.99,19.91,1
5,6.07,15.7,-15.47,1
6,6.08,11.78,31.2,1
7,6.09,0.91,8.32,1
8,6.11,-1.76,-28.56,1
9,6.12,6.09,30.74,1
10,6.13,24.19,16.86,1
11,6.15,27.32,-24.57,2
12,6.16,8.18,27.54,2
13,6.17,-0.1,19.1,2
14,6.19,7.99,7.6,2
15,6.2,15.39,95.65,2
16,6.21,17.28,69.44,2
17,6.23,-2.89,-5.91,2
18,6.24,-25.43,33.1,2
19,6.25,-9.8,-29.99,2
20,6.27,6.87,-113.16,2
21,6.28,-2.42,15.64,2
22,6.29,-2.18,142.21,2
23,6.31,2.44,203.25,2
24,6.32,0.32,303.19,2
25,6.33,11.7,287.84,2
26,6.35,12.43,173.18,2
27,6.36,-19.1,143.74,2
28,6.37,-36.73,143.5,2
29,6.39,-17.69,104.53,2
30,6.4,5.64,20.91,2
31,6.41,16.9,-129.52,2
32,6.43,17.73,-142.21,2
33,6.44,5.12,35.17,2
34,6.45,-22.79,32.69,2
35,6.47,-51.81,-158.13,2
36,6.48,-46.42,-195.32,2
37,6.49,0.93,-154.55,2
38,6.51,30.07,-166.15,2
39,6.52,2.89,-116.13,2
40,6.53,-20.34,-85.4,2
41,6.55,2.53,-116.79,2
42,6.56,23.66,-98.28,1
43,6.57,15.78,-114.52,1
44,6.59,2.81,-141.94,1
45,6.6,-6.9,-58.29,1
46,6.61,-11.51,-29.05,1
47,6.63,-6.68,-88.28,1
48,6.64,-8.33,-99.57,1
49,6.65,-21.32,-169.59,1
50,6.67,-28.6,-254.73,1
51,6.68,-24.44,-176.59,1
52,6.69,-13.97,-99.39,1
53,6.71,-3.48,-113.66,1
54,6.72,1.98,-111.33,1
55,6.73,2.95,-127.03,1
56,6.75,-1.29,-79.37,1
57,6.76,-10.19,75.32,1
58,6.77,-12.24,71.68,1
59,6.79,-6.04,-59.99,1
60,6.8,-0.62,-32.15,1
61,6.81,7.98,48.92,1
62,6.82,18.4,32.99,1
63,6.84,20.06,40.67,1
64,6.85,15.51,55.36,1
65,6.86,4.32,1.13,1
66,6.88,-10.31,-53.66,1
67,6.89,-4.61,-81.27,1
68,6.91,17.4,-50.61,1
69,6.92,18.86,44.76,1
70,6.93,-4.01,67.91,1
71,6.95,-23.48,10.32,1
72,6.96,-18.19,2.46,1
73,6.97,6.97,7.04,1
74,6.99,16.6,-22.99,1
75,7.0,2.81,-9.66,1
76,7.01,-1.16,5.25,1
77,7.03,4.31,-14.74,1
78,7.04,6.23,25.27,1
79,7.05,16.3,57.37,1
80,7.07,21.4,12.62,1
81,7.08,13.07,6.95,1
82,7.09,16.62,8.31,1
83,7.11,23.41,-21.0,1
84,7.12,12.91,34.46,1
85,7.13,3.19,95.25,1
86,7.15,-2.06,79.61,1
87,7.16,-7.48,82.84,1
88,7.17,3.78,45.35,1
89,7.19,15.4,-50.96,1
90,7.2,2.11,-32.18,1
91,7.21,-13.06,53.15,1
92,7.23,-14.68,62.58,1
93,7.24,-9.91,77.05,1
94,7.25,0.48,103.98,1
95,7.27,-1.14,62.02,1
96,7.28,-13.36,43.42,1
97,7.29,-3.99,60.23,1
98,7.31,7.4,6.89,1
99,7.32,-6.37,-47.52,1
100,7.33,-7.28,-36.49,1
101,7.35,10.91,-23.17,1
102,7.36,15.69,-3.0,1
103,7.37,20.04,47.99,1
104,7.39,19.38,98.81,1
105,7.4,-4.42,121.8,1
106,7.41,-12.67,76.15,1
107,7.43,0.48,21.12,1
108,7.44,0.48,66.33,1
109,7.45,1.47,90.85,1
110,7.47,8.53,19.99,1
111,7.48,-1.83,32.58,1
112,7.49,-5.47,79.07,1
113,7.51,17.55,19.19,1
114,7.52,26.55,18.42,1
115,7.53,6.66,85.89,1
116,7.55,-9.62,72.55,1
117,7.56,-9.74,73.33,1
118,7.57,-1.99,77.15,1
119,7.59,1.12,-0.93,1
120,7.6,-6.49,3.72,1
121,7.61,-6.05,79.29,1
122,7.63,1.33,68.08,1
123,7.64,-4.3,49.98,1
124,7.65,-5.5,5.75,1
125,7.67,3.03,-93.41,1
126,7.68,2.8,-30.74,1
127,7.69,8.44,88.43,1
128,7.71,14.08,20.32,1
129,7.72,-3.1,-37.07,1
130,7.73,-11.43,-7.43,1
131,7.75,-0.05,-35.36,1
132,7.76,-1.62,2.22,1
133,7.77,-7.1,78.45,1
134,7.79,-1.18,14.11,1
135,7.8,7.05,-13.21,1
136,7.81,21.49,62.82,1
137,7.83,24.61,45.32,1
138,7.84,-2.57,16.84,1
139,7.85,-19.91,45.9,1
140,7.87,-12.77,-6.4,1
141,7.88,-14.34,-47.98,1
142,7.89,-12.05,-4.52,1
143,7.91,4.63,-18.42,1
144,7.92,6.42,-40.39,1
145,7.93,-1.18,-7.48,1
146,7.95,-4.63,-21.89,1
147,7.96,-11.78,-9.82,1
148,7.97,-9.04,39.96,1
149,7.99,-0.92,-39.01,1
150,8.0,-9.81,-123.33,1
151,8.01,-14.65,-66.6,1
152,8.03,-10.38,-32.06,1
153,8.04,-21.16,-57.21,1
154,8.05,-23.73,-37.93,1
155,8.07,-7.5,-14.05,1
156,8.08,-0.71,1.79,1
157,8.09,8.67,7.32,1
158,8.1,19.35,-37.27,1
159,8.12,5.67,-18.86,1
160,8.13,-1.97,48.29,1
161,8.15,4.52,-7.38,0
162,8.16,-11.12,-90.12,0
163,8.17,-25.96,-110.1,0
164,8.19,-11.67,-119.18,0
165,8.2,3.23,-27.96,0
166,8.21,6.64,76.45,0
167,8.23,4.68,10.61,0
168,8.24,-2.97,-47.69,0
169,8.25,1.55,-6.03,0
170,8.27,10.21,-12.29,0
171,8.28,-5.1,15.73,0
172,8.29,-16.05,92.23,0
173,8.31,-6.58,52.63,0
174,8.32,-5.64,29.81,0
175,8.33,9.29,78.52,0
176,8.35,41.02,-3.53,0
177,8.36,30.92,-105.81,0
178,8.37,-1.48,-127.55,0
179,8.39,-7.83,-238.12,0
180,8.4,-14.46,-323.01,0
181,8.41,-31.49,-270.73,0
182,8.43,-36.7,-263.77,0
183,8.44,-32.8,-238.74,0
184,8.45,-20.07,-116.48,0
185,8.47,-7.62,-76.1,0
186,8.48,-9.79,-52.52,0
187,8.49,-0.07,33.4,0
188,8.51,21.11,27.25,0
189,8.52,17.94,24.96,0
190,8.53,8.46,102.64,0
191,8.55,7.14,78.35,1
192,8.56,-5.79,47.04,1
193,8.57,-4.74,109.39,1
194,8.59,16.66,89.51,1
195,8.6,15.31,66.71,1
196,8.61,7.91,129.93,1
197,8.63,17.85,95.33,1
198,8.64,11.64,48.95,1
199,8.65,0.32,106.05,1
200,8.67,9.29,88.14,1
201,8.68,9.65,59.23,1
202,8.69,4.32,124.11,1
203,8.71,9.75,102.08,1
204,8.72,2.46,53.95,1
205,8.73,-7.02,98.43,1
206,8.75,-0.66,72.72,1
207,8.76,-0.02,32.34,1
208,8.77,1.25,82.21,1
209,8.78,11.66,60.08,1
210,8.8,12.93,28.05,1
211,8.81,15.04,85.35,1
212,8.82,12.37,57.05,1
213,8.84,-11.02,10.36,1
214,8.85,-13.18,64.62,1
215,8.87,6.76,47.23,1
216,8.88,-1.71,6.96,1
217,8.89,-9.42,53.62,1
218,8.91,10.19,25.37,1
219,8.92,8.93,-14.66,1
220,8.93,-6.09,41.27,1
221,8.95,-0.07,17.88,1
222,8.96,3.45,-20.67,1
223,8.97,3.26,42.46,1
224,8.99,9.76,22.57,1
225,9.0,1.45,-28.15,1
226,9.01,-5.49,22.27,1
227,9.03,0.64,6.74,1
228,9.04,-11.04,-35.22,1
229,9.05,-16.5,13.48,1
230,9.07,6.8,-2.65,1
231,9.08,10.87,-34.99,1
232,9.09,-1.42,20.54,1
233,9.11,3.26,-1.03,1
234,9.12,1.23,-40.24,1
235,9.13,-4.43,18.68,1
236,9.15,4.38,2.33,1
237,9.16,1.97,-41.42,1
238,9.17,-3.19,12.27,1
239,9.19,5.51,-0.63,1
240,9.2,-2.0,-42.0,1
241,9.21,-11.19,7.78,1
242,9.23,-1.48,-8.36,1
243,9.24,-8.32,-49.66,1
244,9.25,-14.87,3.96,1
245,9.27,1.9,-9.4,1
246,9.28,-2.06,-58.1,1
247,9.29,-10.72,-12.94,1
248,9.31,9.6,-23.48,1
249,9.32,11.09,-65.82,1
250,9.33,-9.67,-15.15,1
251,9.35,-10.31,-14.27,1
252,9.36,-4.6,-46.37,1
253,9.37,0.1,-1.51,1
254,9.39,8.87,-18.04,1
255,9.4,3.02,-61.53,1
256,9.41,-2.07,-12.59,1
257,9.43,3.44,-16.23,1
258,9.44,-4.53,-53.99,1
259,9.45,-6.13,-12.99,1
260,9.47,8.24,-27.29,1
261,9.48,0.46,-65.24,1
262,9.49,-10.73,-11.93,1
263,9.51,1.62,-18.44,1
264,9.52,-0.25,-66.82,1
265,9.53,-11.81,-18.95,1
266,9.55,-2.37,-10.22,1
267,9.56,-0.03,-50.61,1
268,9.57,-2.89,-15.09,1
269,9.59,11.35,-13.38,1
270,9.6,10.19,-43.94,1
271,9.61,-2.39,-0.65,1
272,9.63,3.58,-5.63,1
273,9.64,1.92,-46.7,1
274,9.65,-8.69,-2.14,1
275,9.67,-2.96,1.88,1
276,9.68,-2.28,-41.08,1
277,9.69,-7.67,-4.08,1
278,9.71,3.86,3.58,1
279,9.72,14.91,-34.17,1
280,9.73,20.72,-3.92,1
281,9.75,24.25,-8.01,1
282,9.76,3.51,-51.24,1
283,9.77,-14.98,-12.8,1
284,9.79,-6.57,0.0,1
285,9.8,-7.49,-37.3,1
286,9.81,-6.68,-6.56,1
287,9.83,15.92,4.03,1
288,9.84,11.3,-24.04,1
289,9.85,-13.35,15.15,1
290,9.87,-8.78,19.83,1
291,9.88,-0.84,-26.32,1
292,9.89,-3.73,1.8,1
293,9.91,6.84,12.09,1
294,9.92,12.14,-24.23,1
295,9.93,5.54,6.36,1
296,9.95,3.17,11.79,1
297,9.96,-6.24,-30.99,1
298,9.97,-8.53,1.3,1
299,9.99,9.39,18.54,1
300,10.0,10.9,-16.75,1
301,10.01,-0.16,13.05,1
302,10.02,0.66,27.48,1
303,10.04,-12.05,-11.03,1
304,10.05,-24.92,13.77,1
305,10.06,-6.25,26.55,1
306,10.08,7.92,-10.38,1
307,10.09,3.39,19.75,1
308,10.1,1.87,36.35,1
309,10.12,-5.92,-10.83,1
310,10.13,-5.59,6.67,1
311,10.15,15.03,30.1,0
312,10.16,11.95,-2.95,0
313,10.17,-6.7,15.31,0
314,10.19,2.07,30.64,0
315,10.2,8.5,-12.48,0
316,10.21,0.16,-4.72,0
317,10.23,8.11,1.59,0
318,10.24,12.24,-55.45,0
319,10.25,4.28,-69.47,0
320,10.27,12.18,-81.24,0
321,10.28,22.01,-138.65,0
322,10.29,24.09,-128.73,0
323,10.31,23.12,-102.29,0
324,10.32,2.03,-126.81,0
325,10.33,-15.05,-96.53,0
326,10.35,-8.02,-57.65,0
327,10.36,-12.6,-73.68,0
328,10.37,-13.51,-33.77,0
329,10.39,7.85,13.25,0
330,10.4,1.88,-4.41,0
331,10.41,-19.44,33.4,0
332,10.43,-16.63,89.26,0
333,10.44,-22.1,75.05,0
334,10.45,-30.15,96.95,0
335,10.47,-9.08,131.97,0
336,10.48,4.17,108.19,0
337,10.49,-3.37,132.2,0
338,10.51,-6.64,171.25,0
339,10.52,-16.18,145.26,0
340,10.53,-25.3,163.28,0
341,10.55,-18.03,187.26,1
342,10.56,-10.8,125.56,1
343,10.57,0.83,114.43,1
344,10.59,11.72,145.68,1
345,10.6,-3.59,97.24,1
346,10.61,-12.46,76.98,1
347,10.63,1.94,103.01,1
348,10.64,-3.26,74.69,1
349,10.65,-15.27,76.05,1
350,10.67,-4.54,90.82,1
351,10.68,-3.0,28.61,1
352,10.69,-9.38,22.73,1
353,10.71,5.2,69.01,1
354,10.72,12.58,28.59,1
355,10.73,2.27,7.07,1
356,10.75,-0.76,33.3,1
357,10.76,-4.64,0.16,1
358,10.77,-4.76,1.99,1
359,10.78,7.7,34.95,1
360,10.8,5.35,-18.22,1
361,10.81,-1.06,-30.98,1
362,10.83,8.88,12.13,1
363,10.84,5.75,-29.69,1
364,10.85,-2.47,-41.06,1
365,10.87,7.56,7.63,1
366,10.88,7.08,-30.47,1
367,10.89,1.04,-50.86,1
368,10.91,8.99,-10.49,1
369,10.92,3.69,-47.48,1
370,10.93,-3.71,-65.75,1
371,10.95,9.19,-24.97,1
372,10.96,7.68,-59.11,1
373,10.97,-5.9,-69.05,1
374,10.99,-1.32,-19.45,1
375,11.0,0.3,-51.85,1
376,11.01,-6.82,-65.54,1
377,11.03,-2.05,-21.02,1
378,11.04,1.86,-57.51,1
379,11.05,1.39,-67.78,1
380,11.07,7.25,-14.42,1
381,11.08,7.3,-50.32,1
382,11.09,5.07,-64.42,1
383,11.11,7.63,-6.98,1
384,11.12,-1.41,-38.9,1
385,11.13,-7.16,-58.68,1
386,11.15,6.12,-10.83,1
387,11.16,12.94,-52.92,1
388,11.17,13.95,-80.1,1
389,11.19,18.14,-25.8,1
390,11.2,5.08,-46.8,1
391,11.21,-8.08,-57.97,1
392,11.23,2.14,-6.95,1
393,11.24,7.54,-40.1,1
394,11.25,3.46,-55.21,1
395,11.27,6.21,-4.09,1
396,11.28,-0.14,-44.93,1
397,11.29,-7.29,-62.58,1
398,11.31,4.29,2.24,1
399,11.32,9.86,-31.7,1
400,11.33,4.73,-59.22,1
401,11.35,8.85,3.57,1
402,11.36,7.98,-18.33,1
403,11.37,1.94,-42.3,1
404,11.39,7.71,7.98,1
405,11.4,3.69,-22.08,1
406,11.41,-7.94,-39.57,1
407,11.43,0.56,15.6,1
408,11.44,5.74,-23.18,1
409,11.45,-2.41,-45.47,1
410,11.47,0.38,27.4,1
411,11.48,-0.17,4.69,1
412,11.49,-7.41,-32.49,1
413,11.51,-2.64,13.93,1
414,11.52,-5.51,-15.05,1
415,11.53,-11.19,-38.0,1
416,11.55,5.6,24.2,1
417,11.56,11.03,-0.16,1
418,11.57,-7.7,-23.72,1
419,11.59,-13.31,39.68,1
420,11.6,-8.54,8.74,1
421,11.61,-7.18,-27.9,1
422,11.63,-4.25,33.31,1
423,11.64,-8.35,9.85,1
424,11.65,-11.52,-25.92,1
425,11.67,-1.01,28.79,1
426,11.68,4.55,0.12,1
427,11.69,3.99,-35.55,1
428,11.71,10.79,26.72,1
429,11.72,6.93,5.47,1
430,11.73,-7.43,-33.26,1
431,11.75,-3.51,26.83,1
432,11.76,9.0,14.59,1
433,11.77,10.06,-19.2,1
434,11.79,6.6,27.92,1
435,11.8,-2.52,1.06,1
436,11.81,-9.86,-25.06,1
437,11.83,-1.82,44.45,1
438,11.84,-0.03,25.72,1
439,11.85,-8.67,-12.84,1
440,11.87,-6.38,46.19,1
441,11.88,-4.27,30.49,1
442,11.89,-2.65,-6.76,1
443,11.91,12.11,46.03,1
444,11.92,14.11,32.73,1
445,11.93,-2.03,7.67,1
446,11.94,-5.08,60.34,1
447,11.96,-2.22,23.58,1
448,11.97,-6.35,-23.76,1
449,11.98,-0.9,37.24,1
450,12.0,5.79,26.95,1
451,12.01,-0.33,-7.11,1
452,12.02,-4.01,46.65,1
453,12.04,-3.82,19.08,1
454,12.05,-5.45,-25.81,1
455,12.06,-2.6,40.22,1
456,12.08,-0.28,36.0,1
457,12.09,2.31,-7.98,1
458,12.1,6.07,38.82,1
459,12.12,-7.67,25.64,1
460,12.13,-20.97,-16.48,1
461,12.15,-7.96,26.09,2
462,12.16,0.05,11.83,2
463,12.17,-5.22,-16.88,2
464,12.19,4.74,37.54,2
465,12.2,13.14,19.79,2
466,12.21,5.47,-17.76,2
467,12.23,1.56,32.34,2
468,12.24,-5.17,13.78,2
469,12.25,-18.08,-9.64,2
470,12.27,-14.83,90.71,2
471,12.28,-14.73,144.32,2
472,12.29,-37.5,166.88,2
473,12.31,-45.68,247.68,2
474,12.32,-29.79,211.84,2
475,12.33,-18.11,120.24,2
476,12.35,-10.6,131.83,2
477,12.36,-4.58,90.9,2
478,12.37,-0.27,15.31,2
479,12.39,15.53,34.82,2
480,12.4,29.25,-0.07,2
481,12.41,24.73,-79.36,2
482,12.43,21.8,-85.8,2
483,12.44,22.48,-144.15,2
484,12.45,12.51,-204.51,2
485,12.47,7.89,-140.3,2
486,12.48,16.14,-117.49,2
487,12.49,21.55,-146.08,2
488,12.51,19.76,-104.29,2
489,12.52,9.67,-107.48,2
490,12.53,-2.34,-131.32,2
491,12.55,2.84,-70.23,1
492,12.56,14.06,-71.08,1
493,12.57,10.24,-112.4,1
494,12.59,8.79,-65.01,1
495,12.6,15.87,-62.24,1
496,12.61,19.18,-94.2,1
497,12.63,25.29,-42.04,1
498,12.64,19.66,-40.03,1
499,12.65,-4.63,-81.96,1
500,12.67,-10.49,-35.14,1
501,12.68,-2.46,-14.45,1
502,12.69,-7.74,-36.99,1
503,12.71,-7.25,-1.4,1
504,12.72,3.12,-6.8,1
505,12.73,6.29,-42.59,1
506,12.75,9.72,-6.15,1
507,12.76,9.97,-8.93,1
508,12.77,0.42,-39.37,1
509,12.79,-1.54,11.35,1
510,12.8,-3.11,19.56,1
511,12.81,-17.29,-17.39,1
512,12.83,-17.6,19.88,1
513,12.84,-5.56,23.07,1
514,12.85,-9.56,-13.44,1
515,12.87,-7.36,24.85,1
516,12.88,19.04,25.17,1
517,12.89,34.09,-21.21,1
518,12.91,18.28,20.42,1
519,12.92,-7.02,48.58,1
520,12.93,-16.91,20.24,1
521,12.95,-9.43,42.85,1
522,12.96,-6.28,38.79,1
523,12.97,-8.73,-1.87,1
524,12.99,-1.77,30.18,1
525,13.0,0.26,38.99,1
526,13.01,-4.99,3.77,1
527,13.03,2.87,38.68,1
528,13.04,2.48,51.27,1
529,13.05,-22.53,12.04,1
530,13.07,-29.39,38.89,1
531,13.08,-2.11,50.98,1
532,13.09,20.59,10.24,1
533,13.11,18.24,27.45,1
534,13.12,-0.29,36.73,1
535,13.13,-12.37,8.89,1
536,13.15,1.56,41.23,1
537,13.16,11.88,48.66,1
538,13.17,-14.27,1.34,1
539,13.19,-40.77,23.0,1
540,13.2,-30.52,42.43,1
541,13.21,-6.22,5.49,1
542,13.23,0.1,29.0,1
543,13.24,-16.65,60.38,1
544,13.25,-27.29,31.58,1
545,13.27,-5.5,32.67,1
546,13.28,11.7,31.72,1
547,13.29,-2.9,1.38,1
548,13.31,-8.37,29.53,1
549,13.32,3.36,38.7,1
550,13.33,1.96,-15.04,1
551,13.35,-1.3,1.89,1
552,13.36,2.35,38.3,1
553,13.37,-2.36,14.46,1
554,13.39,-3.86,29.02,1
555,13.4,2.41,37.43,1
556,13.41,0.04,-11.24,1
557,13.43,2.13,6.91,1
558,13.44,14.02,35.13,1
559,13.45,15.58,-16.53,1
560,13.47,14.95,-17.69,1
561,13.48,14.05,21.43,1
562,13.49,-6.84,8.56,1
563,13.51,-24.95,23.45,1
564,13.52,-18.24,31.97,1
565,13.53,-4.34,-28.02,1
566,13.55,14.15,-24.68,1
567,13.56,25.52,19.66,1
568,13.57,6.9,-1.86,1
569,13.59,-12.01,4.18,1
570,13.6,-9.44,20.82,1
571,13.61,-9.72,-30.72,1
572,13.63,-10.18,-25.52,1
573,13.64,-1.78,18.8,1
574,13.65,2.91,-13.98,1
575,13.67,9.94,-11.23,1
576,13.68,11.9,27.26,1
577,13.69,-6.34,-13.03,1
578,13.71,-10.49,-19.2,1
579,13.72,11.01,19.68,1
580,13.73,20.24,-16.59,1
581,13.75,17.71,-29.02,1
582,13.76,15.89,1.17,1
583,13.77,6.37,-29.7,1
584,13.79,1.48,-29.53,1
585,13.8,1.24,3.18,1
586,13.81,-5.34,-31.87,1
587,13.83,2.04,-26.79,1
588,13.84,15.68,13.13,1
589,13.85,7.39,-28.9,1
590,13.86,-2.1,-30.33,1
591,13.88,-0.58,21.77,1
592,13.89,-2.14,-10.77,1
593,13.9,5.61,-23.94,1
594,13.92,14.23,13.83,1
595,13.93,3.97,-18.46,1
596,13.94,1.33,-23.04,1
597,13.96,5.46,15.04,1
598,13.97,-9.77,-28.33,1
599,13.98,-11.8,-33.08,1
600,14.0,11.29,22.95,1
601,14.01,18.71,-10.35,1
602,14.02,15.34,-24.48,1
603,14.04,11.21,22.02,1
604,14.05,-15.41,-10.45,1
605,14.07,-38.1,-20.77,1
606,14.08,-28.52,27.63,1
607,14.09,-17.78,-6.91,1
608,14.11,-14.25,-21.25,1
609,14.12,0.74,25.73,1
610,14.13,10.32,-6.21,1
611,14.15,2.97,-8.91,2
612,14.16,-1.82,52.36,2
613,14.17,10.79,14.38,2
614,14.19,36.68,-19.75,2
615,14.2,34.28,27.52,2
616,14.21,-17.14,40.74,2
617,14.23,-45.32,86.53,2
618,14.24,-17.35,153.68,2
619,14.25,3.02,84.59,2
620,14.27,11.94,-0.71,2
621,14.28,19.85,-5.02,2
622,14.29,-12.55,-46.59,2
623,14.31,-35.03,-31.47,2
624,14.32,0.31,71.12,2
625,14.33,26.31,29.5,2
626,14.35,19.53,-62.14,2
627,14.36,1.93,-11.86,2
628,14.37,-31.2,27.14,2
629,14.39,-41.67,-3.53,2
630,14.4,-11.06,-55.14,2
631,14.41,15.51,-137.47,2
632,14.43,28.43,-104.97,2
633,14.44,23.9,-5.29,2
634,14.45,-7.56,-57.75,2
635,14.47,-12.3,-84.62,2
636,14.48,21.79,11.22,2
637,14.49,26.6,-5.83,2
638,14.51,-0.09,-41.9,2
639,14.52,-13.52,25.95,2
640,14.53,-9.05,2.46,2
641,14.55,10.02,-65.39,1
642,14.56,25.45,-59.87,1
643,14.57,13.21,-88.58,1
644,14.59,0.57,-83.07,1
645,14.6,-0.74,-6.93,1
646,14.61,-18.64,-34.2,1
647,14.63,-24.96,-85.63,1
648,14.64,2.72,-61.6,1
649,14.65,15.5,-85.16,1
650,14.67,5.75,-70.16,1
651,14.68,-0.5,30.1,1
652,14.69,-14.15,12.85,1
653,14.71,-23.11,-38.61,1
654,14.72,-10.88,9.52,1
655,14.73,1.44,11.99,1
656,14.75,11.71,-15.35,1
657,14.76,11.41,-17.92,1
658,14.77,-12.38,-73.09,1
659,14.79,-15.86,-52.36,1
660,14.8,2.65,54.37,1
661,14.81,-6.67,28.44,1
662,14.83,-14.85,3.17,1
663,14.84,3.6,97.57,1
664,14.85,1.75,74.06,1
665,14.87,-13.04,-12.01,1
666,14.88,-4.42,5.67,1
667,14.89,7.13,-16.14,1
668,14.91,17.72,-30.72,1
669,14.92,30.83,38.52,1
670,14.93,15.05,-0.28,1
671,14.95,-8.03,-53.58,1
672,14.96,-6.54,16.13,1
673,14.97,-13.92,-0.79,1
674,14.99,-19.9,-57.01,1
675,15.0,2.96,10.07,1
676,15.01,7.74,25.45,1
677,15.03,-8.08,-27.54,1
678,15.04,-3.89,-10.69,1
679,15.05,-2.61,8.5,1
680,15.07,-10.74,31.03,1
681,15.08,-1.2,46.97,1
682,15.09,11.34,-45.26,1
683,15.11,20.09,-67.36,1
684,15.12,21.89,55.09,1
685,15.13,-4.97,59.33,1
686,15.15,-22.62,2.85,1
687,15.16,-1.79,62.13,1
688,15.17,11.47,63.13,1
689,15.19,7.81,1.68,1
690,15.2,-0.57,30.11,1
691,15.21,-22.57,29.93,1
692,15.23,-19.57,-12.95,1
693,15.24,14.5,12.6,1
694,15.25,12.93,8.97,1
695,15.27,-15.3,-10.82,1
696,15.28,-11.13,32.55,1
697,15.29,10.24,14.44,1
698,15.31,18.09,-12.29,1
699,15.32,9.85,52.31,1
700,15.33,-7.14,47.78,1
701,15.35,0.45,11.0,1
702,15.36,24.82,54.47,1
703,15.37,17.11,26.34,1
704,15.39,2.7,-22.54,1
705,15.4,10.05,28.92,1
706,15.41,1.49,10.98,1
707,15.43,-9.87,-22.71,1
708,15.44,4.83,71.7,1
709,15.45,9.28,76.84,1
710,15.47,0.64,-23.78,1
711,15.48,-3.36,-12.24,1
712,15.49,-21.63,24.94,1
713,15.51,-31.22,9.21,1
714,15.52,-11.39,19.79,1
715,15.53,-6.02,7.14,1
716,15.55,-13.63,-16.95,1
717,15.56,-0.79,-4.3,1
718,15.57,9.85,-37.12,1
719,15.59,8.08,-43.94,1
720,15.6,4.39,43.13,1
721,15.61,-11.33,64.63,1
722,15.63,-14.73,37.42,1
723,15.64,6.74,63.3,1
724,15.65,11.58,38.84,1
725,15.67,8.69,-3.76,1
726,15.68,17.18,35.84,1
727,15.69,-3.3,37.93,1
728,15.71,-38.9,6.78,1
729,15.72,-39.16,45.94,1
730,15.73,-14.93,51.07,1
731,15.75,17.43,12.7,1
732,15.76,39.76,20.42,1
733,15.77,25.65,-6.22,1
734,15.78,6.15,-34.28,1
735,15.8,4.2,32.98,1
736,15.81,-6.19,54.31,1
737,15.82,-8.5,-7.76,1
738,15.84,9.14,-22.98,1
739,15.85,5.14,-17.01,1
740,15.86,-9.38,-2.19,1
741,15.88,-3.59,43.56,1
742,15.89,-5.78,21.67,1
743,15.9,-11.99,-20.59,1
744,15.92,0.92,17.8,1
745,15.93,4.64,20.6,1
746,15.94,3.03,-13.87,1
747,15.96,13.46,4.3,1
748,15.97,5.27,-23.78,1
749,15.98,-9.06,-57.4,1
750,16.0,-0.33,13.99,1
751,16.01,3.31,28.48,1
752,16.03,0.65,-40.0,1
753,16.04,6.19,-26.24,1
754,16.05,-2.04,-7.92,1
755,16.07,-6.17,-36.02,1
756,16.08,9.81,9.73,1
757,16.09,1.4,43.29,1
758,16.11,-15.22,-17.73,1
759,16.12,2.66,-41.34,1
760,16.13,10.53,-27.19,1
761,16.15,-6.49,-26.21,1
762,16.16,-6.54,17.51,0
763,16.17,0.79,28.29,0
764,16.19,6.15,-16.99,0
765,16.2,15.62,-5.98,0
766,16.21,3.65,-19.55,0
767,16.23,-13.84,-80.17,0
768,16.24,-5.21,-38.97,0
769,16.25,0.92,9.24,0
770,16.27,2.98,-44.35,0
771,16.28,17.76,-92.25,0
772,16.29,12.3,-148.89,0
773,16.31,-7.11,-234.13,0
774,16.32,-9.66,-231.04,0
775,16.33,-15.7,-180.3,0
776,16.35,-17.16,-145.89,0
777,16.36,0.45,-73.15,0
778,16.37,-3.32,-28.52,0
779,16.39,-21.43,-32.58,0
780,16.4,-20.58,26.1,0
781,16.41,-23.75,76.25,0
782,16.42,-20.63,57.79,0
783,16.44,12.19,79.39,0
784,16.45,26.91,91.51,0
785,16.46,12.79,43.05,0
786,16.48,10.84,57.44,0
787,16.49,13.39,91.12,0
788,16.5,12.72,62.31,0
789,16.52,16.13,75.5,0
790,16.53,6.17,99.7,0
791,16.54,1.13,56.61,0
792,16.56,12.73,51.33,1
793,16.57,2.46,71.4,1
794,16.58,-12.0,50.37,1
795,16.6,-1.62,76.75,1
796,16.61,-0.05,104.75,1
797,16.62,1.31,53.26,1
798,16.64,20.91,44.06,1
799,16.65,15.12,66.94,1
800,16.67,-6.02,29.13,1
801,16.68,-3.28,30.1,1
802,16.69,-3.22,55.94,1
803,16.71,-4.43,17.54,1
804,16.72,11.31,21.74,1
805,16.73,8.14,51.76,1
806,16.75,-6.54,9.68,1
807,16.76,-0.35,12.07,1
808,16.77,1.62,48.66,1
809,16.79,-0.88,2.39,1
810,16.8,6.45,-10.27,1
811,16.81,-1.9,25.3,1
812,16.83,-6.93,-10.48,1
813,16.84,9.56,-21.44,1
814,16.85,4.58,11.11,1
815,16.87,-6.93,-18.3,1
816,16.88,8.88,-14.99,1
817,16.89,8.23,23.98,1
818,16.91,-12.26,-17.94,1
819,16.92,-9.57,-31.78,1
820,16.93,-5.79,6.65,1
821,16.95,-13.58,-21.51,1
822,16.96,-4.77,-26.24,1
823,16.97,5.0,6.15,1
824,16.99,2.99,-33.64,1
825,17.0,3.23,-35.28,1
826,17.01,-3.64,16.59,1
827,17.03,-5.7,-13.79,1
828,17.04,9.84,-30.5,1
829,17.05,2.02,2.71,1
830,17.06,-23.51,-28.02,1
831,17.08,-15.15,-27.85,1
832,17.09,3.89,18.76,1
833,17.1,-0.54,-21.85,1
834,17.12,-2.36,-44.2,1
835,17.13,1.75,-6.27,1
836,17.14,-4.23,-36.97,1
837,17.16,-10.9,-39.74,1
838,17.17,-15.13,13.65,1
839,17.18,-10.64,-22.06,1
840,17.2,5.42,-43.63,1
841,17.21,5.7,2.28,1
842,17.22,-5.55,-26.14,1
843,17.24,-3.34,-42.78,1
844,17.25,-4.26,-2.56,1
845,17.26,-5.11,-35.69,1
846,17.28,11.82,-40.46,1
847,17.29,16.72,16.33,1
848,17.3,7.43,-24.03,1
849,17.32,9.07,-52.46,1
850,17.33,0.56,-1.51,1
851,17.35,-12.89,-25.05,1
852,17.36,0.04,-37.02,1
853,17.37,11.23,16.29,1
854,17.39,4.21,-17.58,1
855,17.4,1.65,-42.14,1
856,17.41,-2.06,12.47,1
857,17.43,-2.99,-5.21,1
858,17.44,8.21,-22.68,1
859,17.45,1.98,11.25,1
860,17.47,-14.15,-36.25,1
861,17.48,-3.66,-54.03,1
862,17.49,9.41,10.6,1
863,17.51,4.94,-19.26,1
864,17.52,7.14,-47.97,1
865,17.53,10.4,7.74,1
866,17.55,4.99,-16.61,1
867,17.56,2.86,-37.35,1
868,17.57,-1.83,24.63,1
869,17.59,-2.2,1.5,1
870,17.6,5.96,-27.3,1
871,17.61,-3.08,21.91,1
872,17.63,-14.19,-12.5,1
873,17.64,0.13,-44.32,1
874,17.65,8.96,14.98,1
875,17.67,-1.01,-9.29,1
876,17.68,-3.67,-42.1,1
877,17.69,-2.39,17.93,1
878,17.7,1.47,5.99,1
879,17.72,13.53,-15.5,1
880,17.73,6.69,40.1,1
881,17.75,-12.39,10.86,1
882,17.76,-9.17,-27.43,1
883,17.77,-3.22,22.27,1
884,17.78,-10.52,2.79,1
885,17.8,-9.16,-16.31,1
886,17.81,-3.58,45.06,1
887,17.82,-1.95,19.17,1
888,17.84,3.27,-11.84,1
889,17.85,-1.4,46.41,1
890,17.86,-8.31,18.77,1
891,17.88,4.89,-23.35,1
892,17.89,12.06,22.86,1
893,17.9,-1.27,-3.45,1
894,17.92,-10.75,-30.37,1
895,17.93,-13.83,31.21,1
896,17.94,-8.2,4.52,1
897,17.96,8.97,-32.59,1
898,17.97,9.71,29.25,1
899,17.99,-7.02,8.45,1
900,18.0,-9.25,-31.73,1
901,18.01,-2.18,29.07,1
902,18.03,-3.58,15.31,1
903,18.04,-7.49,-25.99,1
904,18.05,-12.02,28.03,1
905,18.07,-10.73,19.54,1
906,18.08,4.2,-16.57,1
907,18.09,9.85,28.37,1
908,18.11,-3.01,18.61,1
909,18.12,-7.28,2.1,1
910,18.13,-2.06,56.94,1
911,18.15,-2.53,22.52,1
912,18.16,3.4,-23.23,0
913,18.17,13.32,39.19,0
914,18.19,12.48,29.52,0
915,18.2,11.74,-25.87,0
916,18.21,7.22,-12.57,0
917,18.23,-4.39,-69.99,0
918,18.24,8.04,-138.75,0
919,18.25,37.52,-100.38,0
920,18.27,40.75,-110.2,0
921,18.28,21.72,-139.89,0
922,18.29,9.66,-94.12,0
923,18.31,9.93,-115.23,0
924,18.32,14.8,-139.32,0
925,18.33,14.62,-60.87,0
926,18.34,6.23,-52.01,0
927,18.36,-2.38,-68.42,0
928,18.37,-10.28,16.85,0
929,18.38,-14.34,46.88,0
930,18.4,-4.36,42.83,0
931,18.41,6.5,112.73,0
932,18.42,3.52,115.79,0
933,18.44,-5.04,94.94,0
934,18.45,-19.54,153.32,0
935,18.46,-33.75,134.22,0
936,18.48,-28.96,86.05,0
937,18.49,-17.84,136.24,0
938,18.5,-9.86,136.2,0
939,18.52,2.26,111.96,0
940,18.53,-1.09,166.97,0
941,18.54,-17.3,149.91,0
942,18.56,-12.52,99.68,1
943,18.57,-0.05,138.69,1
944,18.58,-1.49,120.56,1
945,18.6,-3.48,71.25,1
946,18.61,-3.03,111.95,1
947,18.63,-0.4,97.73,1
948,18.64,6.31,39.94,1
949,18.65,3.05,62.78,1
950,18.67,-4.65,46.23,1
951,18.68,-4.22,5.26,1
952,18.69,-9.52,43.82,1
953,18.71,-15.02,29.08,1
954,18.72,-3.64,-18.77,1
955,18.73,2.91,21.76,1
956,18.75,-6.01,20.96,1
957,18.76,-7.76,-23.08,1
958,18.77,-3.82,5.27,1
959,18.79,-4.22,-4.24,1
960,18.8,-2.0,-45.26,1
961,18.81,-4.75,-8.31,1
962,18.83,-11.54,-9.94,1
963,18.84,-4.59,-48.11,1
964,18.85,2.46,-11.65,1
965,18.87,-0.24,-15.48,1
966,18.88,8.61,-57.53,1
967,18.89,17.27,-20.34,1
968,18.91,4.16,-19.49,1
969,18.92,-6.33,-63.84,1
970,18.93,-0.02,-33.29,1
971,18.95,6.66,-28.12,1
972,18.96,7.99,-58.73,1
973,18.97,3.43,-21.46,1
974,18.98,-0.06,-27.54,1
975,19.0,7.75,-80.64,1
976,19.01,9.14,-51.27,1
977,19.02,-0.37,-37.28,1
978,19.04,4.36,-66.61,1
979,19.05,9.93,-35.11,1
980,19.06,-2.35,-30.33,1
981,19.08,-3.99,-58.98,1
982,19.09,8.73,-21.31,1
983,19.1,10.58,-24.96,1
984,19.12,12.27,-74.61,1
985,19.13,19.44,-40.06,1
986,19.14,14.36,-21.07,1
987,19.16,4.03,-57.9,1
988,19.17,1.86,-37.45,1
989,19.18,8.81,-35.58,1
990,19.2,19.72,-72.22,1
991,19.21,13.74,-36.03,1
992,19.22,-4.69,-18.53,1
993,19.24,-3.44,-53.97,1
994,19.25,4.61,-25.74,1
995,19.27,-3.21,-17.13,1
996,19.28,-5.79,-64.16,1
997,19.29,-1.78,-36.88,1
998,19.31,-7.73,-9.49,1
999,19.32,-6.49,-45.46,1
1000,19.33,5.7,-32.51,1
1001,19.35,7.62,-18.44,1
1002,19.36,4.79,-49.42,1
1003,19.37,3.75,-30.58,1
1004,19.39,-6.47,-19.22,1
1005,19.4,-15.63,-48.57,1
1006,19.41,-12.35,-12.89,1
1007,19.43,-6.37,17.89,1
1008,19.44,-0.47,-17.47,1
1009,19.45,2.63,-11.59,1
1010,19.47,-3.09,-1.54,1
1011,19.48,-6.23,-31.77,1
1012,19.49,-3.82,-5.09,1
1013,19.51,-1.54,16.0,1
1014,19.52,7.33,-26.71,1
1015,19.53,10.82,-12.78,1
1016,19.55,-1.09,16.57,1
1017,19.56,-2.55,-13.89,1
1018,19.57,5.61,-1.47,1
1019,19.59,-0.59,22.98,1
1020,19.6,-7.63,-2.98,1
1021,19.61,-8.4,19.26,1
1022,19.62,-12.74,43.05,1
1023,19.64,-6.01,-3.01,1
1024,19.65,7.03,-5.12,1
1025,19.67,6.12,9.99,1
1026,19.68,4.85,-24.52,1
1027,19.69,7.27,4.76,1
1028,19.7,1.54,49.05,1
1029,19.72,7.57,4.43,1
1030,19.73,25.32,-0.17,1
1031,19.75,21.76,35.62,1
1032,19.76,4.76,7.37,1
1033,19.77,-4.47,9.6,1
1034,19.78,-10.47,35.5,1
1035,19.8,-8.95,0.2,1
1036,19.81,-6.78,13.72,1
1037,19.82,-12.63,53.5,1
1038,19.84,-5.5,9.22,1
1039,19.85,1.48,3.27,1
1040,19.86,-13.19,42.94,1
1041,19.88,-11.36,12.7,1
1042,19.89,10.22,12.42,1
1043,19.9,7.68,46.82,1
1044,19.92,-7.23,8.14,1
1045,19.93,-9.39,1.6,1
1046,19.95,-6.03,35.83,1
1047,19.96,3.92,1.59,1
1048,19.97,10.69,1.16,1
1049,19.99,0.05,37.45,1
1050,20.0,-5.71,-4.81,1
1051,20.01,1.84,-11.45,1
1052,20.03,3.41,32.57,1
1053,20.04,0.05,-0.04,1
1054,20.05,-8.39,-5.77,1
1055,20.07,-18.0,36.94,1
1056,20.08,-6.59,5.95,1
1057,20.09,5.25,3.44,1
1058,20.11,-5.3,46.56,1
1059,20.12,-3.84,4.88,1
1060,20.13,8.47,-9.17,1
1061,20.15,-1.53,42.74,1
1062,20.16,-10.06,18.94,2
1063,20.17,-1.19,11.41,2
1064,20.19,2.73,73.21,2
1065,20.2,3.99,88.8,2
1066,20.21,-0.52,147.85,2
1067,20.23,-18.45,257.27,2
1068,20.24,-23.54,244.64,2
1069,20.25,-20.25,200.9,2
1070,20.26,-26.87,197.53,2
1071,20.28,-12.81,116.1,2
1072,20.29,14.91,46.66,2
1073,20.3,12.26,38.89,2
1074,20.32,-1.93,-28.71,2
1075,20.33,-1.53,-66.06,2
1076,20.34,-0.01,-51.28,2
1077,20.36,4.97,-129.74,2
1078,20.37,12.31,-183.31,2
1079,20.38,9.25,-143.61,2
1080,20.4,9.9,-160.43,2
1081,20.41,11.88,-160.15,2
1082,20.42,2.06,-107.35,2
1083,20.44,7.88,-142.76,2
1084,20.45,24.36,-151.3,2
1085,20.46,12.59,-82.66,2
1086,20.48,0.11,-104.77,2
1087,20.49,11.66,-118.26,2
1088,20.5,9.81,-60.26,2
1089,20.52,-3.81,-84.68,2
1090,20.53,-2.86,-91.86,2
1091,20.54,2.67,-31.84,2
1092,20.56,12.99,-67.46,1
1093,20.57,20.47,-82.27,1
1094,20.59,1.06,-8.86,1
1095,20.6,-14.29,-29.9,1
1096,20.61,-4.45,-53.69,1
1097,20.63,-1.38,1.29,1
1098,20.64,4.1,-28.67,1
1099,20.65,20.44,-50.72,1
1100,20.67,11.93,15.17,1
1101,20.68,-5.94,-5.1,1
1102,20.69,-5.06,-28.49,1
1103,20.71,-4.79,32.13,1
1104,20.72,0.48,7.71,1
1105,20.73,12.43,-18.22,1
1106,20.75,2.62,42.11,1
1107,20.76,-6.84,13.99,1
1108,20.77,1.98,-22.14,1
1109,20.79,-2.2,34.29,1
1110,20.8,-7.87,15.68,1
1111,20.81,2.71,-9.33,1
1112,20.83,3.09,48.19,1
1113,20.84,-0.05,26.87,1
1114,20.85,4.91,2.74,1
1115,20.87,-1.74,58.92,1
1116,20.88,-3.3,27.27,1
1117,20.89,3.2,-6.71,1
1118,20.9,-14.51,53.71,1
1119,20.92,-24.59,32.8,1
1120,20.93,-4.76,1.05,1
1121,20.94,1.94,60.89,1
1122,20.96,1.94,43.41,1
1123,20.97,9.8,10.8,1
1124,20.98,-2.09,62.96,1
1125,21.0,-10.46,40.06,1
1126,21.01,-1.43,9.38,1
1127,21.02,-13.36,62.94,1
1128,21.04,-23.15,32.5,1
1129,21.05,-5.97,-6.37,1
1130,21.06,-2.44,51.55,1
1131,21.08,-4.79,34.04,1
1132,21.09,10.69,2.73,1
1133,21.1,11.17,58.07,1
1134,21.12,1.06,31.66,1
1135,21.13,4.23,-7.36,1
1136,21.14,2.29,51.57,1
1137,21.16,4.34,34.36,1
1138,21.17,11.95,-4.51,1
1139,21.18,-7.95,47.45,1
1140,21.2,-20.91,25.54,1
1141,21.21,-0.9,-13.93,1
1142,21.23,-0.35,40.18,1
1143,21.24,-11.63,18.97,1
1144,21.25,0.43,-20.29,1
1145,21.27,-0.2,41.17,1
1146,21.28,-12.21,29.14,1
1147,21.29,-3.52,-10.39,1
1148,21.31,0.19,44.6,1
1149,21.32,-3.81,25.19,1
1150,21.33,5.48,-22.38,1
1151,21.35,8.19,29.08,1
1152,21.36,4.49,16.32,1
1153,21.37,1.87,-21.74,1
1154,21.39,-17.34,34.78,1
1155,21.4,-22.08,22.69,1
1156,21.41,5.43,-21.44,1
1157,21.43,10.68,29.86,1
1158,21.44,-3.13,26.37,1
1159,21.45,4.05,-6.25,1
1160,21.47,6.98,36.03,1
1161,21.48,1.12,7.56,1
1162,21.49,6.15,-36.88,1
1163,21.51,0.27,18.91,1
1164,21.52,-8.91,9.3,1
1165,21.53,-2.09,-31.37,1
1166,21.54,-4.39,17.7,1
1167,21.56,-8.58,2.04,1
1168,21.57,3.84,-44.48,1
1169,21.58,4.63,5.87,1
1170,21.6,-2.06,3.24,1
1171,21.61,5.31,-34.07,1
1172,21.62,5.35,15.63,1
1173,21.64,4.38,11.16,1
1174,21.65,13.12,-31.54,1
1175,21.67,2.63,10.44,1
1176,21.68,-7.08,9.68,1
1177,21.69,4.59,-21.14,1
1178,21.7,-3.04,24.58,1
1179,21.72,-15.31,15.3,1
1180,21.73,0.23,-31.91,1
1181,21.75,5.22,-1.78,1
1182,21.76,-4.1,-14.91,1
1183,21.77,-0.72,-46.86,1
1184,21.78,-2.31,11.0,1
1185,21.8,0.14,8.51,1
1186,21.81,19.18,-45.46,1
1187,21.82,16.57,-10.69,1
1188,21.84,-0.46,-9.18,1
1189,21.85,-2.78,-53.49,1
1190,21.87,-9.15,-18.47,1
1191,21.88,-8.37,-6.9,1
1192,21.89,9.46,-38.46,1
1193,21.91,6.39,-14.1,1
1194,21.92,-2.42,-18.21,1
1195,21.93,7.52,-35.77,1
1196,21.95,2.83,16.78,1
1197,21.96,-4.56,11.6,1
1198,21.97,9.46,-36.29,1
1199,21.99,9.8,-2.93,1
1200,22.0,-0.06,-5.65,1
1201,22.01,3.14,-53.12,1
1202,22.03,-3.86,-17.01,1
1203,22.04,-13.23,5.67,1
1204,22.05,-9.1,-19.56,1
1205,22.07,-10.99,-2.21,1
1206,22.08,-4.02,-18.95,1
1207,22.09,14.55,-52.89,1
1208,22.11,5.84,-5.88,1
1209,22.12,-6.05,5.72,1
1210,22.13,7.07,-23.82,1
1211,22.15,2.58,19.89,1
1212,22.16,-13.47,29.92,2
1213,22.17,2.75,-33.25,2
1214,22.18,31.22,-64.46,2
1215,22.2,41.14,-52.57,2
1216,22.21,19.99,75.71,2
1217,22.22,-21.95,265.82,2
1218,22.24,-21.57,227.08,2
1219,22.25,20.59,72.35,2
1220,22.26,17.52,107.8,2
1221,22.28,-15.55,137.91,2
1222,22.29,-8.27,16.48,2
1223,22.3,3.73,4.81,2
1224,22.32,-10.35,144.52,2
1225,22.33,-19.74,193.26,2
1226,22.34,-17.14,96.57,2
1227,22.36,-4.03,-12.76,2
1228,22.37,2.87,-47.72,2
1229,22.38,-14.42,-39.21,2
1230,22.4,-18.59,-122.01,2
1231,22.41,0.84,-238.04,2
1232,22.42,0.8,-167.68,2
1233,22.44,-6.78,-48.53,2
1234,22.45,2.68,-84.95,2
1235,22.46,5.93,-142.22,2
1236,22.48,10.88,-151.13,2
1237,22.49,23.04,-131.52,2
1238,22.5,9.66,-60.04,2
1239,22.52,-9.8,-65.79,2
1240,22.53,-10.08,-120.67,2
1241,22.55,-12.74,-29.34,1
1242,22.56,-7.17,32.28,1
1243,22.57,10.61,-84.46,1
1244,22.59,2.15,-108.22,1
1245,22.6,-16.69,-37.6,1
1246,22.61,-15.17,-114.66,1
1247,22.63,-12.98,-164.67,1
1248,22.64,-2.77,-43.42,1
1249,22.65,13.72,27.94,1
1250,22.67,-1.72,-1.24,1
1251,22.68,-12.53,-29.85,1
1252,22.69,12.89,-44.3,1
1253,22.71,18.57,-15.39,1
1254,22.72,10.32,2.84,1
1255,22.73,27.96,-34.36,1
1256,22.75,29.83,-29.86,1
1257,22.76,10.84,-9.79,1
1258,22.77,10.97,-34.32,1
1259,22.79,5.52,-24.79,1
1260,22.8,-11.28,0.15,1
1261,22.81,-6.32,-4.77,1
1262,22.82,3.13,15.6,1
1263,22.84,2.02,8.93,1
1264,22.85,-0.92,-34.63,1
1265,22.86,-13.12,20.32,1
1266,22.88,-9.99,84.34,1
1267,22.89,19.7,30.96,1
1268,22.9,19.62,3.39,1
1269,22.92,-9.27,16.03,1
1270,22.93,-12.63,-6.06,1
1271,22.94,-6.4,41.35,1
1272,22.96,-11.66,86.86,1
1273,22.97,-12.77,16.83,1
1274,22.98,-13.32,18.85,1
1275,23.0,-5.18,89.52,1
1276,23.01,13.6,26.75,1
1277,23.02,8.03,-25.09,1
1278,23.04,-5.63,53.5,1
1279,23.05,7.97,74.04,1
1280,23.06,13.77,24.24,1
1281,23.08,0.03,16.42,1
1282,23.09,-1.95,29.27,1
1283,23.1,-4.71,62.09,1
1284,23.12,-12.22,66.11,1
1285,23.13,-7.41,16.83,1
1286,23.14,-4.65,47.93,1
1287,23.16,-0.24,69.59,1
1288,23.17,9.62,-47.63,1
1289,23.19,-3.99,-59.92,1
1290,23.2,-17.52,48.83,1
1291,23.21,0.36,10.01,1
1292,23.23,9.76,-27.48,1
1293,23.24,-3.36,71.47,1
1294,23.25,-9.02,73.73,1
1295,23.27,-7.36,-2.92,1
1296,23.28,0.32,-7.78,1
1297,23.29,11.18,-3.01,1
1298,23.31,-0.48,31.62,1
1299,23.32,-19.65,82.29,1
1300,23.33,-11.7,30.92,1
1301,23.35,9.21,2.6,1
1302,23.36,18.53,79.33,1
1303,23.37,6.72,96.94,1
1304,23.39,-15.65,50.35,1
1305,23.4,-4.08,21.22,1
1306,23.41,32.51,-2.93,1
1307,23.43,27.86,21.36,1
1308,23.44,-1.91,53.39,1
1309,23.45,-10.61,14.1,1
1310,23.46,-19.15,18.99,1
1311,23.48,-16.96,62.7,1
1312,23.49,11.51,21.61,1
1313,23.5,12.83,12.15,1
1314,23.52,-7.41,49.53,1
1315,23.53,-3.02,-8.93,1
1316,23.54,-5.31,-30.79,1
1317,23.56,-17.72,26.1,1
1318,23.57,-0.96,-23.24,1
1319,23.58,15.25,-70.8,1
1320,23.6,15.19,-9.41,1
1321,23.61,22.63,2.34,1
1322,23.62,15.28,-7.5,1
1323,23.64,-3.65,31.07,1
1324,23.65,0.37,13.41,1
1325,23.67,4.43,6.66,1
1326,23.68,-10.58,53.09,1
1327,23.69,-23.3,9.87,1
1328,23.7,-21.15,-38.57,1
1329,23.72,2.21,-18.84,1
1330,23.73,22.71,-55.17,1
1331,23.75,6.09,-49.61,1
1332,23.76,-8.27,33.49,1
1333,23.77,10.57,1.33,1
1334,23.78,14.63,-44.28,1
1335,23.8,-2.84,9.17,1
1336,23.81,-6.64,3.16,1
1337,23.83,-10.07,-3.7,1
1338,23.84,-16.37,60.84,1
1339,23.85,-9.64,34.48,1
1340,23.87,-10.34,-17.26,1
1341,23.88,-16.29,4.63,1
1342,23.89,-6.16,-9.36,1
1343,23.91,-1.51,-5.4,1
1344,23.92,-7.31,22.33,1
1345,23.93,-2.51,-48.56,1
1346,23.95,-0.96,-65.37,1
1347,23.96,-6.51,-7.59,1
1348,23.97,-3.63,-86.19,1
1349,23.99,-6.73,-109.97,1
1350,24.0,-12.73,43.19,1
1351,24.01,1.28,69.11,1
1352,24.03,11.37,6.34,1
1353,24.04,-1.28,42.23,1
1354,24.05,-9.82,32.23,1
1355,24.07,-7.27,-7.58,1
1356,24.08,-0.41,2.8,1
1357,24.09,9.28,-49.63,1
1358,24.1,-0.11,-64.53,1
1359,24.12,-17.76,3.9,1
1360,24.13,-5.84,-43.82,1
1361,24.14,10.44,-76.37,1
1362,24.16,4.95,33.34,0
1363,24.17,-0.07,38.13,0
1364,24.18,-5.52,-28.99,0
1365,24.2,-8.95,-10.37,0
1366,24.21,3.89,-39.68,0
1367,24.22,5.77,-61.65,0
1368,24.24,2.61,-1.27,0
1369,24.25,29.39,-37.3,0
1370,24.26,43.86,-73.95,0
1371,24.28,15.25,7.22,0
1372,24.29,-10.01,5.05,0
1373,24.3,-13.48,-29.7,0
1374,24.32,-5.23,32.49,0
1375,24.33,11.03,22.03,0
1376,24.34,13.21,-17.09,0
1377,24.36,2.8,42.99,0
1378,24.37,6.14,48.27,0
1379,24.38,13.87,32.62,0
1380,24.4,10.14,103.18,0
1381,24.41,1.08,98.64,0
1382,24.42,-7.52,39.35,0
1383,24.44,-2.09,23.31,0
1384,24.45,13.12,-71.52,0
1385,24.46,7.42,-161.89,0
1386,24.48,-5.61,-142.8,0
1387,24.49,-0.2,-194.11,0
1388,24.51,-0.83,-266.06,0
1389,24.52,-10.78,-220.78,0
1390,24.53,-6.85,-209.7,0
1391,24.55,-9.12,-206.71,1
1392,24.56,-21.3,-107.01,1
1393,24.57,-10.33,-71.97,1
1394,24.59,3.99,-74.47,1
1395,24.6,-5.33,10.08,1
1396,24.61,-8.67,50.08,1
1397,24.63,-0.67,60.27,1
1398,24.64,-1.5,121.92,1
1399,24.65,-2.19,102.05,1
1400,24.67,-0.04,64.81,1
1401,24.68,0.77,126.31,1
1402,24.69,6.49,125.43,1
1403,24.71,5.05,76.66,1
1404,24.72,-2.67,95.78,1
1405,24.73,7.54,59.82,1
1406,24.75,21.87,13.85,1
1407,24.76,16.93,77.07,1
1408,24.77,8.56,94.2,1
1409,24.78,5.93,64.45,1
1410,24.8,2.3,103.75,1
1411,24.81,-0.25,92.31,1
1412,24.82,-5.53,50.22,1
1413,24.84,-10.27,97.51,1
1414,24.85,-4.84,107.3,1
1415,24.86,-4.17,71.2,1
1416,24.88,-10.19,99.57,1
1417,24.89,-4.71,88.61,1
1418,24.9,-2.44,40.52,1
1419,24.92,-10.55,58.92,1
1420,24.93,-4.05,44.41,1
1421,24.94,6.51,11.54,1
1422,24.96,1.32,57.07,1
1423,24.97,-2.49,58.88,1
1424,24.98,-3.21,21.45,1
1425,25.0,-9.02,52.18,1
1426,25.01,-4.67,38.93,1
1427,25.02,6.64,-8.12,1
1428,25.04,6.54,31.71,1
1429,25.05,0.36,41.87,1
1430,25.06,-6.0,1.47,1
1431,25.08,-8.6,25.87,1
1432,25.09,-0.94,21.64,1
1433,25.1,0.61,-23.1,1
1434,25.12,-8.21,8.03,1
1435,25.13,-4.49,22.6,1
1436,25.15,5.72,-9.34,1
1437,25.16,5.89,10.63,1
1438,25.17,5.98,0.54,1
1439,25.19,6.15,-47.6,1
1440,25.2,4.49,-22.55,1
1441,25.21,13.72,-12.28,1
1442,25.23,18.83,-44.26,1
1443,25.24,6.22,-15.39,1
1444,25.25,-0.24,-8.47,1
1445,25.27,3.32,-44.67,1
1446,25.28,3.98,-15.68,1
1447,25.29,7.08,-4.2,1
1448,25.31,1.67,-40.44,1
1449,25.32,-15.27,-19.3,1
1450,25.33,-14.75,-13.33,1
1451,25.35,-0.45,-47.48,1
1452,25.36,4.42,-23.68,1
1453,25.37,5.88,-20.54,1
1454,25.38,3.92,-59.51,1
1455,25.4,-4.0,-28.93,1
1456,25.41,-0.79,-11.07,1
1457,25.42,3.01,-50.12,1
1458,25.44,-10.78,-27.31,1
1459,25.45,-14.44,-7.01,1
1460,25.46,4.01,-49.0,1
1461,25.48,13.0,-43.72,1
1462,25.49,6.95,-31.04,1
1463,25.5,2.11,-57.68,1
1464,25.52,0.5,-32.2,1
1465,25.53,2.81,-17.88,1
1466,25.54,3.52,-60.6,1
1467,25.56,-1.42,-40.43,1
1468,25.57,-3.09,-5.98,1
1469,25.58,-8.01,-31.29,1
1470,25.6,-15.14,-22.84,1
1471,25.61,-3.12,-14.48,1
1472,25.62,8.66,-50.49,1
1473,25.64,-4.99,-29.0,1
1474,25.65,-14.35,-1.49,1
1475,25.67,-6.2,-32.79,1
1476,25.68,1.2,-19.53,1
1477,25.69,13.88,-4.14,1
1478,25.7,24.02,-50.63,1
1479,25.72,12.09,-41.51,1
1480,25.73,1.09,-5.74,1
1481,25.75,3.74,-26.49,1
1482,25.76,2.15,-13.13,1
1483,25.77,2.33,3.61,1
1484,25.79,3.24,-36.25,1
1485,25.8,-8.97,-19.28,1
1486,25.81,-9.23,11.66,1
1487,25.83,5.69,-30.17,1
1488,25.84,-0.83,-20.64,1
1489,25.85,-13.52,17.71,1
1490,25.87,-4.8,-17.67,1
1491,25.88,5.57,-17.52,1
1492,25.89,6.89,8.96,1
1493,25.91,1.51,-27.26,1
1494,25.92,-8.87,-16.99,1
1495,25.93,-8.36,21.04,1
1496,25.95,-7.15,-17.9,1
1497,25.96,-19.41,-22.83,1
1498,25.97,-11.98,10.66,1
1499,25.99,14.75,-14.03,1
1500,26.0,12.97,-2.96,1
1501,26.01,-6.46,30.28,1
1502,26.02,-9.41,-10.07,1
1503,26.04,-9.69,-5.99,1
1504,26.05,-11.26,37.32,1
1505,26.06,-3.39,-5.55,1
1506,26.08,2.0,-21.17,1
1507,26.09,9.19,17.61,1
1508,26.1,21.83,-8.31,1
1509,26.12,12.3,-9.45,1
1510,26.13,-12.25,29.92,1
1511,26.14,-18.14,1.77,1
1512,26.16,-9.33,-0.01,0
1513,26.17,0.92,28.71,0
1514,26.18,7.86,-14.56,0
1515,26.2,8.41,-14.09,0
1516,26.21,15.3,19.84,0
1517,26.22,21.77,-50.39,0
1518,26.24,10.32,-89.43,0
1519,26.25,6.38,-66.68,0
1520,26.26,21.87,-129.87,0
1521,26.28,28.41,-158.19,0
1522,26.29,25.13,-104.56,0
1523,26.3,16.85,-115.73,0
1524,26.32,0.17,-99.43,0
1525,26.33,0.84,-29.87,0
1526,26.34,9.96,-51.15,0
1527,26.36,-5.59,-51.97,0
1528,26.37,-12.0,17.37,0
1529,26.38,-0.13,11.34,0
1530,26.4,-17.41,14.34,0
1531,26.41,-36.78,68.45,0
1532,26.43,-17.21,48.15,0
1533,26.44,0.6,55.21,0
1534,26.45,-3.88,123.01,0
1535,26.47,-8.91,103.13,0
1536,26.48,-11.55,100.22,0
1537,26.49,-8.84,162.13,0
1538,26.51,-8.54,129.36,0
1539,26.52,-20.02,103.84,0
1540,26.53,-16.73,156.24,0
1541,26.55,-3.67,131.35,1
1542,26.56,-10.45,112.64,1
1543,26.57,-7.37,162.31,1
1544,26.59,15.38,130.29,1
1545,26.6,11.02,101.49,1
1546,26.61,-6.0,138.33,1
1547,26.63,-2.67,96.55,1
1548,26.64,-3.79,68.61,1
1549,26.65,-10.49,113.46,1
1550,26.67,-7.28,72.51,1
1551,26.68,-3.5,38.1,1
1552,26.69,10.05,83.29,1
1553,26.7,18.38,45.96,1
1554,26.72,-9.7,8.61,1
1555,26.73,-27.0,57.44,1
1556,26.75,-1.75,35.4,1
1557,26.76,5.14,0.37,1
1558,26.77,-15.36,26.54,1
1559,26.78,-13.85,-13.64,1
1560,26.8,-0.55,-29.71,1
1561,26.81,3.15,29.54,1
1562,26.82,0.64,-10.32,1
1563,26.84,-7.7,-50.23,1
1564,26.85,-6.42,1.87,1
1565,26.86,1.2,-26.17,1
1566,26.88,-3.29,-55.95,1
1567,26.89,-0.2,1.09,1
1568,26.9,7.86,-25.04,1
1569,26.92,-10.03,-58.09,1
1570,26.93,-24.42,-4.69,1
1571,26.94,-9.32,-29.53,1
1572,26.96,0.39,-58.43,1
1573,26.97,0.68,1.28,1
1574,26.98,8.15,-18.23,1
1575,27.0,4.88,-51.46,1
1576,27.01,-1.31,-5.36,1
1577,27.02,4.82,-38.77,1
1578,27.04,2.98,-75.94,1
1579,27.05,4.25,-19.84,1
1580,27.06,18.35,-43.12,1
1581,27.08,11.42,-86.35,1
1582,27.09,-2.76,-40.7,1
1583,27.11,4.2,-51.58,1
1584,27.12,6.49,-63.2,1
1585,27.13,2.39,-5.61,1
1586,27.15,4.82,-41.75,1
1587,27.16,-0.4,-82.19,1
1588,27.17,5.45,-24.67,1
1589,27.19,25.96,-43.7,1
1590,27.2,18.04,-72.67,1
1591,27.21,-2.48,-12.39,1
1592,27.23,-3.02,-34.24,1
1593,27.24,-3.23,-69.38,1
1594,27.25,7.35,-10.36,1
1595,27.27,32.54,-28.04,1
1596,27.28,27.08,-64.03,1
1597,27.29,5.9,-8.41,1
1598,27.3,5.51,-20.44,1
1599,27.32,2.48,-47.03,1
1600,27.33,0.65,8.27,1
1601,27.34,10.63,-17.22,1
1602,27.36,0.47,-58.45,1
1603,27.37,-9.41,-4.08,1
1604,27.38,1.72,-22.85,1
1605,27.4,-4.55,-61.14,1
1606,27.41,-8.38,-0.09,1
1607,27.42,15.73,-6.01,1
1608,27.44,17.9,-37.97,1
1609,27.45,-2.54,18.02,1
1610,27.46,-5.59,-0.64,1
1611,27.48,-1.92,-45.96,1
1612,27.49,9.43,8.93,1
1613,27.5,25.63,3.54,1
1614,27.52,7.85,-34.73,1
1615,27.53,-17.74,12.56,1
1616,27.54,-10.8,1.09,1
1617,27.56,-5.52,-34.15,1
1618,27.57,-6.64,18.43,1
1619,27.58,2.88,7.04,1
1620,27.6,-3.27,-34.37,1
1621,27.61,-13.29,18.59,1
1622,27.62,-4.05,20.01,1
1623,27.64,-2.2,-12.49,1
1624,27.65,-2.44,31.99,1
1625,27.67,9.77,15.97,1
1626,27.68,3.96,-30.68,1
1627,27.69,-10.61,9.64,1
1628,27.7,-6.94,4.31,1
1629,27.72,-6.18,-24.77,1
1630,27.73,-7.68,24.89,1
1631,27.75,-0.68,20.9,1
1632,27.76,-5.78,-10.54,1
1633,27.77,-2.39,31.11,1
1634,27.79,20.93,15.63,1
1635,27.8,15.55,-24.08,1
1636,27.81,-0.37,18.6,1
1637,27.83,12.58,9.96,1
1638,27.84,10.91,-22.27,1
1639,27.85,-8.6,31.15,1
1640,27.87,-4.77,30.91,1
1641,27.88,3.44,-5.73,1
1642,27.89,3.37,41.12,1
1643,27.91,7.29,40.89,1
1644,27.92,4.61,-3.9,1
1645,27.93,0.51,22.51,1
1646,27.94,-2.22,11.75,1
1647,27.96,-17.49,-19.83,1
1648,27.97,-19.57,31.97,1
1649,27.98,-3.99,35.57,1
1650,28.0,-10.16,-8.79,1
1651,28.01,-18.85,16.3,1
1652,28.02,-7.29,10.36,1
1653,28.04,-10.11,-19.54,1
1654,28.05,-19.11,24.55,1
1655,28.06,-9.77,21.24,1
1656,28.08,-6.63,-22.5,1
1657,28.09,-5.05,17.66,1
1658,28.1,5.56,29.32,1
1659,28.12,-4.73,-7.25,1
1660,28.13,-19.58,22.6,1
1661,28.14,-10.43,27.87,1
1662,28.16,-2.02,-2.38,2
1663,28.17,3.43,35.64,2
1664,28.18,11.29,55.02,2
1665,28.2,4.89,68.32,2
1666,28.21,8.9,181.77,2
1667,28.22,26.8,253.27,2
1668,28.24,8.45,234.25,2
1669,28.25,-23.98,249.51,2
1670,28.26,-20.46,225.3,2
1671,28.28,-11.71,141.07,2
1672,28.29,-11.01,112.51,2
1673,28.3,0.49,65.82,2
1674,28.32,-0.57,-16.11,2
1675,28.33,-3.3,-29.07,2
1676,28.34,13.14,-65.45,2
1677,28.36,9.91,-148.1,2
1678,28.37,-4.6,-155.18,2
1679,28.39,3.53,-161.55,2
1680,28.4,5.96,-197.88,2
1681,28.41,1.56,-159.79,2
1682,28.43,8.54,-133.33,2
1683,28.44,2.35,-158.36,2
1684,28.45,-6.02,-127.47,2
1685,28.47,0.99,-110.83,2
1686,28.48,-4.96,-138.92,2
1687,28.49,-6.59,-103.37,2
1688,28.51,15.34,-78.98,2
1689,28.52,15.19,-106.45,2
1690,28.53,-3.67,-76.9,2
1691,28.55,-4.44,-61.77,1
1692,28.56,-2.71,-99.81,1
1693,28.57,1.47,-61.73,1
1694,28.58,11.05,-14.58,1
1695,28.6,-3.37,-41.57,1
1696,28.61,-13.31,-36.32,1
1697,28.62,6.64,-22.41,1
1698,28.64,5.28,-45.05,1
1699,28.65,-8.52,-18.89,1
1700,28.67,7.88,-6.24,1
1701,28.68,12.75,-47.6,1
1702,28.69,-1.73,-18.23,1
1703,28.7,4.04,21.21,1
1704,28.72,7.1,-12.57,1
1705,28.73,2.93,-3.38,1
1706,28.75,16.79,21.81,1
1707,28.76,16.47,-5.65,1
1708,28.77,-1.46,17.71,1
1709,28.78,4.51,51.32,1
1710,28.8,16.98,16.94,1
1711,28.81,13.9,20.8,1
1712,28.82,11.84,42.13,1
1713,28.84,5.69,11.89,1
1714,28.85,-1.97,25.99,1
1715,28.86,1.05,52.21,1
1716,28.88,-2.24,13.38,1
1717,28.89,-1.84,15.4,1
1718,28.9,14.87,44.84,1
1719,28.92,10.36,23.29,1
1720,28.93,-6.51,37.74,1
1721,28.94,0.59,59.58,1
1722,28.96,-1.53,17.53,1
1723,28.97,-17.58,27.14,1
1724,28.98,-11.42,66.97,1
1725,29.0,-6.06,39.53,1
1726,29.01,-10.06,48.11,1
1727,29.03,-0.18,74.15,1
1728,29.04,4.4,20.58,1
1729,29.05,1.9,13.21,1
1730,29.07,7.78,54.54,1
1731,29.08,3.06,27.63,1
1732,29.09,-5.65,33.07,1
1733,29.11,-3.17,71.59,1
1734,29.12,-7.23,29.93,1
1735,29.13,-4.0,19.5,1
1736,29.15,15.27,58.6,1
1737,29.16,9.82,26.77,1
1738,29.17,-5.54,12.25,1
1739,29.19,6.33,38.31,1
1740,29.2,7.71,9.07,1
1741,29.21,-11.35,15.14,1
1742,29.22,-14.56,51.53,1
1743,29.24,-14.7,6.94,1
1744,29.25,-19.03,4.45,1
1745,29.26,-11.51,60.56,1
1746,29.28,-3.76,27.5,1
1747,29.29,6.1,4.78,1
1748,29.3,14.74,36.0,1
1749,29.32,-0.66,0.17,1
1750,29.33,-9.9,-6.69,1
1751,29.34,4.48,41.05,1
1752,29.36,0.16,8.1,1
1753,29.37,-10.41,-8.83,1
1754,29.38,2.12,26.97,1
1755,29.4,4.79,-10.72,1
1756,29.41,-0.2,-20.96,1
1757,29.42,9.53,25.97,1
1758,29.44,1.39,-10.0,1
1759,29.45,-17.2,-22.43,1
1760,29.46,-7.68,33.11,1
1761,29.48,1.43,5.27,1
1762,29.49,-7.12,-17.22,1
1763,29.5,-8.42,21.06,1
1764,29.52,-8.45,-12.8,1
1765,29.53,-5.96,-29.88,1
1766,29.54,6.71,17.17,1
1767,29.56,2.39,-10.34,1
1768,29.57,-9.53,-24.3,1
1769,29.58,-2.81,19.15,1
1770,29.6,-2.6,-22.3,1
1771,29.61,-12.53,-45.85,1
1772,29.62,-10.46,6.16,1
1773,29.64,-7.51,-20.1,1
1774,29.65,-0.51,-35.67,1
1775,29.67,11.46,17.61,1
1776,29.68,0.71,-8.59,1
1777,29.69,-7.53,-24.5,1
1778,29.71,12.43,21.06,1
1779,29.72,11.26,-23.31,1
1780,29.73,-15.12,-48.88,1
1781,29.75,-17.22,11.54,1
1782,29.76,-9.19,-15.0,1
1783,29.77,-7.37,-42.07,1
1784,29.79,9.54,9.6,1
1785,29.8,18.85,-20.95,1
1786,29.81,6.25,-46.22,1
1787,29.83,0.12,17.62,1
1788,29.84,-3.17,4.34,1
1789,29.85,-5.6,-18.91,1
1790,29.86,5.36,22.15,1
1791,29.88,7.54,-18.75,1
1792,29.89,3.21,-45.55,1
1793,29.9,12.19,14.12,1
1794,29.92,7.49,-13.57,1
1795,29.93,-9.19,-37.92,1
1796,29.94,-3.91,24.93,1
1797,29.96,3.71,-8.27,1
1798,29.97,-1.85,-52.33,1
1799,29.98,-0.63,0.08,1
1800,30.0,0.92,-17.47,1
1801,30.01,3.14,-37.28,1
1802,30.02,16.07,22.88,1
1803,30.04,12.42,-5.18,1
1804,30.05,-8.71,-38.96,1
1805,30.06,-14.14,19.82,1
1806,30.08,-11.22,2.74,1
1807,30.09,-8.87,-26.2,1
1808,30.1,3.73,22.11,1
1809,30.12,7.07,-9.97,1
1810,30.13,-4.02,-51.5,1
1811,30.14,-3.27,-13.66,1
1812,30.16,1.78,-38.77,2
1813,30.17,-0.07,-9.94,2
1814,30.18,3.13,160.01,2
1815,30.2,1.72,203.2,2
1816,30.21,-1.64,139.76,2
1817,30.22,12.57,140.6,2
1818,30.24,23.76,37.22,2
1819,30.25,18.94,-121.65,2
1820,30.26,8.64,-57.49,2
1821,30.28,-5.88,87.33,2
1822,30.29,0.83,72.12,2
1823,30.3,26.08,-32.04,2
1824,30.32,17.88,-100.75,2
1825,30.33,-11.84,-74.87,2
1826,30.35,-14.63,-31.75,2
1827,30.36,-5.72,-60.45,2
1828,30.37,-3.97,-20.05,2
1829,30.39,6.29,58.16,2
1830,30.4,12.0,-6.71,2
1831,30.41,1.9,-59.0,2
1832,30.43,-0.09,-37.16,2
1833,30.44,3.61,-103.1,2
1834,30.45,4.19,-119.03,2
1835,30.47,13.15,-21.3,2
1836,30.48,10.81,-52.4,2
1837,30.49,-7.91,-148.14,2
1838,30.5,-10.42,-119.16,2
1839,30.52,-7.83,-60.11,2
1840,30.53,-19.59,-5.54,2
1841,30.54,-20.05,18.64,2
1842,30.56,-9.96,-64.61,1
1843,30.57,-11.97,-80.66,1
1844,30.58,-10.28,5.74,1
1845,30.6,-0.09,-0.25,1
1846,30.61,-3.15,9.89,1
1847,30.62,-12.86,95.2,1
1848,30.64,-15.16,24.57,1
1849,30.65,-4.42,-103.15,1
1850,30.67,19.75,-76.18,1
1851,30.68,26.26,-53.16,1
1852,30.69,0.81,-63.0,1
1853,30.7,-20.2,2.88,1
1854,30.72,-15.72,5.18,1
1855,30.73,-1.35,-24.05,1
1856,30.75,0.3,50.36,1
1857,30.76,-9.16,50.05,1
1858,30.77,2.8,-33.15,1
1859,30.78,26.05,-12.71,1
1860,30.8,14.67,20.07,1
1861,30.81,-9.17,27.8,1
1862,30.82,-2.67,66.87,1
1863,30.84,8.98,17.41,1
1864,30.85,5.57,-26.66,1
1865,30.86,8.94,69.55,1
1866,30.88,14.35,85.53,1
1867,30.89,5.7,6.3,1
1868,30.9,-4.08,40.56,1
1869,30.92,-9.99,93.69,1
1870,30.93,-15.82,79.41,1
1871,30.94,-14.32,68.39,1
1872,30.96,-10.37,32.97,1
1873,30.97,-5.16,7.74,1
1874,30.99,11.22,6.35,1
1875,31.0,17.33,-54.37,1
1876,31.01,-0.15,-61.83,1
1877,31.03,-9.73,16.89,1
1878,31.04,-5.55,-18.48,1
1879,31.05,-4.93,-91.56,1
1880,31.07,4.11,-29.32,1
1881,31.08,16.69,11.96,1
1882,31.09,11.53,-30.23,1
1883,31.11,7.52,-4.07,1
1884,31.12,14.64,50.23,1
1885,31.13,14.81,55.46,1
1886,31.14,9.03,42.06,1
1887,31.16,-0.27,-15.84,1
1888,31.17,-5.78,-37.16,1
1889,31.18,5.26,46.71,1
1890,31.2,8.92,49.67,1
1891,31.21,-8.61,-31.83,1
1892,31.22,-17.43,-5.92,1
1893,31.24,-11.61,34.63,1
1894,31.25,-5.19,3.83,1
1895,31.26,6.25,28.08,1
1896,31.28,9.03,72.73,1
1897,31.29,-4.18,52.57,1
1898,31.3,-3.41,27.87,1
1899,31.32,10.75,14.22,1
1900,31.33,12.24,23.29,1
1901,31.34,8.1,67.87,1
1902,31.36,8.44,39.16,1
1903,31.37,4.3,-41.18,1
1904,31.38,-5.23,-23.1,1
1905,31.4,-13.33,29.05,1
1906,31.41,-14.66,18.05,1
1907,31.42,-3.15,-9.48,1
1908,31.44,10.34,-42.43,1
1909,31.45,9.39,-40.46,1
1910,31.46,2.51,25.18,1
1911,31.48,-2.5,46.67,1
1912,31.49,-3.85,27.98,1
1913,31.5,5.94,37.94,1
1914,31.52,13.79,-13.25,1
1915,31.53,8.79,-72.91,1
1916,31.54,-0.05,-6.62,1
1917,31.56,-12.4,29.84,1
1918,31.57,-18.09,-6.37,1
1919,31.58,-3.24,43.45,1
1920,31.6,9.92,57.95,1
1921,31.61,5.77,-22.48,1
1922,31.63,5.62,0.29,1
1923,31.64,5.72,56.58,1
1924,31.65,-12.42,12.2,1
1925,31.67,-22.16,-14.78,1
1926,31.68,-9.1,-14.06,1
1927,31.69,-3.65,-18.49,1
1928,31.71,-11.38,25.99,1
1929,31.72,-14.67,17.78,1
1930,31.73,-7.31,-41.61,1
1931,31.75,10.41,4.8,1
1932,31.76,15.91,47.93,1
1933,31.77,-3.91,-9.97,1
1934,31.78,-16.87,-32.14,1
1935,31.8,-12.97,-31.14,1
1936,31.81,-14.28,-52.58,1
1937,31.82,-13.03,-6.46,1
1938,31.84,-5.67,25.36,1
1939,31.85,-9.56,-33.98,1
1940,31.86,-11.75,-41.34,1
1941,31.88,-3.79,-12.15,1
1942,31.89,-4.57,-42.21,1
1943,31.9,-10.09,-14.87,1
1944,31.92,-14.25,68.72,1
1945,31.93,-20.18,67.13,1
1946,31.94,-7.34,4.75,1
1947,31.96,16.5,-54.76,1
1948,31.97,12.95,-46.88,1
1949,31.98,-1.3,66.35,1
1950,32.0,1.59,105.89,1
1951,32.01,3.32,3.44,1
1952,32.03,-4.82,-58.35,1
1953,32.04,-16.8,-73.48,1
1954,32.05,-20.66,-82.26,1
1955,32.06,4.5,1.02,1
1956,32.08,30.33,48.59,1
1957,32.09,18.43,-23.79,1
1958,32.11,4.9,-7.07,1
1959,32.12,15.84,74.5,1
1960,32.13,17.73,39.03,1
1961,32.15,8.53,-4.55,1
1962,32.16,5.09,7.32,0
1963,32.17,-1.74,-4.26,0
1964,32.19,0.38,15.59,0
1965,32.2,17.6,28.36,0
1966,32.21,20.6,-34.15,0
1967,32.22,7.94,-20.43,0
1968,32.24,-0.84,53.78,0
1969,32.25,2.77,34.24,0
1970,32.27,17.11,28.33,0
1971,32.28,12.51,63.62,0
1972,32.29,-18.03,5.72,0
1973,32.31,-28.48,-59.05,0
1974,32.32,-12.91,-93.63,0
1975,32.33,-8.1,-190.67,0
1976,32.35,-0.2,-239.84,0
1977,32.36,21.73,-224.34,0
1978,32.37,20.8,-265.89,0
1979,32.39,4.93,-236.54,0
1980,32.4,4.43,-115.31,0
1981,32.41,5.57,-84.03,0
1982,32.43,3.73,-55.5,0
1983,32.44,0.94,27.79,0
1984,32.45,-12.62,39.44,0
1985,32.47,-16.79,66.1,0
1986,32.48,-0.94,124.83,0
1987,32.49,10.65,83.57,0
1988,32.51,13.62,69.3,0
1989,32.52,8.78,123.79,0
1990,32.53,-7.8,91.46,0
1991,32.54,-7.54,74.8,0
1992,32.56,12.62,118.82,1
1993,32.57,16.34,73.4,1
1994,32.59,10.44,49.11,1
1995,32.6,7.74,99.65,1
1996,32.61,-9.77,63.82,1
1997,32.63,-20.66,41.25,1
1998,32.64,-6.25,96.85,1
1999,32.65,1.67,75.77,1
2000,32.67,1.6,59.79,1
2001,32.68,8.03,96.38,1
2002,32.69,4.33,44.08,1
2003,32.71,-1.47,19.05,1
2004,32.72,3.47,78.83,1
2005,32.73,0.97,54.08,1
2006,32.75,-3.02,34.94,1
2007,32.76,-2.91,76.37,1
2008,32.77,-11.65,24.05,1
2009,32.79,-5.31,-0.64,1
2010,32.8,15.46,66.85,1
2011,32.81,6.48,33.01,1
2012,32.83,-11.77,-2.88,1
2013,32.84,-5.37,54.73,1
2014,32.85,1.58,28.29,1
2015,32.87,4.92,-6.23,1
2016,32.88,8.7,38.01,1
2017,32.89,-5.27,5.78,1
2018,32.9,-14.77,-15.07,1
2019,32.92,-4.8,41.65,1
2020,32.93,-1.69,-1.22,1
2021,32.95,5.71,-39.65,1
2022,32.96,20.52,20.59,1
2023,32.97,11.32,-9.17,1
2024,32.99,2.43,-50.43,1
2025,33.0,12.32,7.03,1
2026,33.01,4.57,-4.97,1
2027,33.03,-8.58,-30.37,1
2028,33.04,-4.21,16.59,1
2029,33.05,-9.57,-18.74,1
2030,33.06,-16.81,-54.32,1
2031,33.08,-7.67,-2.68,1
2032,33.09,-5.23,-26.71,1
2033,33.11,0.08,-44.86,1
2034,33.12,15.63,15.67,1
2035,33.13,6.24,-26.36,1
2036,33.15,-9.78,-70.37,1
2037,33.16,-2.29,-8.19,1
2038,33.17,-3.25,-28.01,1
2039,33.19,-9.36,-62.14,1
2040,33.2,2.3,-0.75,1
2041,33.21,-0.56,-16.01,1
2042,33.22,-13.77,-49.81,1
2043,33.24,-5.83,-1.04,1
2044,33.25,0.25,-30.58,1
2045,33.27,-3.45,-62.57,1
2046,33.28,-5.56,5.58,1
2047,33.29,-16.54,-12.12,1
2048,33.31,-14.59,-56.07,1
2049,33.32,7.96,-3.04,1
2050,33.33,8.39,-16.48,1
2051,33.35,-5.11,-51.99,1
2052,33.36,-4.07,-7.99,1
2053,33.37,-6.2,-33.86,1
2054,33.38,-4.7,-65.77,1
2055,33.4,7.83,-9.55,1
2056,33.41,2.18,-27.71,1
2057,33.43,-2.74,-56.01,1
2058,33.44,13.87,0.62,1
2059,33.45,13.2,-26.47,1
2060,33.47,-1.91,-64.12,1
2061,33.48,-3.37,2.43,1
2062,33.49,-4.96,-6.67,1
2063,33.51,2.25,-44.25,1
2064,33.52,16.92,8.97,1
2065,33.53,6.18,-11.29,1
2066,33.54,2.2,-54.1,1
2067,33.56,22.2,5.95,1
2068,33.57,9.34,1.85,1
2069,33.59,-18.74,-39.5,1
2070,33.6,-12.05,-1.11,1
2071,33.61,-4.48,-19.54,1
2072,33.63,-6.45,-41.44,1
2073,33.64,4.69,28.52,1
2074,33.65,3.6,13.64,1
2075,33.67,-7.72,-32.11,1
2076,33.68,-5.48,21.52,1
2077,33.69,-8.46,8.23,1
2078,33.71,-11.96,-40.5,1
2079,33.72,-4.02,5.08,1
2080,33.73,-8.07,2.87,1
2081,33.75,-9.25,-25.59,1
2082,33.76,4.42,17.54,1
2083,33.77,-2.76,-2.63,1
2084,33.79,-17.2,-31.42,1
2085,33.8,-9.53,30.59,1
2086,33.81,-4.21,15.17,1
2087,33.83,-1.73,-37.26,1
2088,33.84,7.4,2.86,1
2089,33.85,3.64,-2.37,1
2090,33.87,4.74,-25.64,1
2091,33.88,17.42,30.34,1
2092,33.89,2.99,13.45,1
2093,33.9,-10.97,-34.72,1
2094,33.92,10.21,14.13,1
2095,33.93,17.03,13.63,1
2096,33.95,-0.26,-20.57,1
2097,33.96,-5.46,28.94,1
2098,33.97,-8.61,21.51,1
2099,33.99,-9.91,-23.92,1
2100,34.0,-3.02,21.6,1
2101,34.01,-5.46,22.54,1
2102,34.03,-0.25,-16.05,1
2103,34.04,15.48,29.16,1
2104,34.05,6.33,26.61,1
2105,34.06,-4.8,-23.92,1
2106,34.08,3.29,5.56,1
2107,34.09,-5.43,3.7,1
2108,34.11,-9.91,-28.82,1
2109,34.12,16.77,15.01,1
2110,34.13,24.25,14.9,1
2111,34.15,9.97,-17.66,1
2112,34.16,7.57,33.85,0
2113,34.17,-4.26,29.9,0
2114,34.19,-13.73,-50.35,0
2115,34.2,4.03,-70.43,0
2116,34.21,10.54,-104.17,0
2117,34.23,7.71,-151.34,0
2118,34.24,22.62,-116.25,0
2119,34.25,27.62,-113.68,0
2120,34.27,29.23,-144.08,0
2121,34.28,38.45,-89.8,0
2122,34.29,12.27,-59.99,0
2123,34.31,-24.19,-67.31,0
2124,34.32,-24.06,-3.47,0
2125,34.33,-17.05,17.68,0
2126,34.35,-9.28,-9.22,0
2127,34.36,7.08,51.89,0
2128,34.37,3.92,96.46,0
2129,34.38,-6.83,81.32,0
2130,34.4,-2.06,118.44,0
2131,34.41,-1.61,129.2,0
2132,34.43,-2.9,93.62,0
2133,34.44,6.8,122.0,0
2134,34.45,0.25,134.1,0
2135,34.47,-24.29,107.54,0
2136,34.48,-32.87,142.82,0
2137,34.49,-27.64,152.7,0
2138,34.51,-21.64,118.73,0
2139,34.52,-11.1,148.67,0
2140,34.53,-3.99,149.8,0
2141,34.54,1.85,97.94,0
2142,34.56,6.5,117.42,1
2143,34.57,-6.31,125.24,1
2144,34.59,-9.03,73.6,1
2145,34.6,9.38,75.65,1
2146,34.61,0.11,73.05,1
2147,34.63,-18.81,32.05,1
2148,34.64,-3.99,56.23,1
2149,34.65,5.1,67.46,1
2150,34.67,-3.0,17.41,1
2151,34.68,7.62,25.19,1
2152,34.69,18.46,35.96,1
2153,34.71,13.47,-7.66,1
2154,34.72,10.08,-0.95,1
2155,34.73,3.43,10.95,1
2156,34.75,0.35,-20.19,1
2157,34.76,6.28,1.32,1
2158,34.77,-1.15,10.62,1
2159,34.79,-5.78,-41.11,1
2160,34.8,3.67,-26.86,1
2161,34.81,-5.7,-0.66,1
2162,34.83,-14.83,-42.17,1
2163,34.84,7.74,-36.3,1
2164,34.85,20.58,-12.94,1
2165,34.87,8.49,-47.15,1
2166,34.88,4.51,-41.29,1
2167,34.89,2.48,-26.91,1
2168,34.91,-1.71,-63.19,1
2169,34.92,5.64,-46.06,1
2170,34.93,3.82,-20.54,1
2171,34.95,-3.96,-58.76,1
2172,34.96,4.27,-46.96,1
2173,34.97,1.95,-22.55,1
2174,34.99,-11.96,-65.6,1
2175,35.0,-9.11,-56.25,1
2176,35.01,-6.64,-22.39,1
2177,35.03,-7.64,-58.54,1
2178,35.04,-0.01,-49.24,1
2179,35.05,-2.23,-12.63,1
2180,35.06,-3.79,-53.29,1
2181,35.08,4.21,-59.13,1
2182,35.09,-5.42,-25.77,1
2183,35.11,-9.62,-49.65,1
2184,35.12,9.85,-37.84,1
2185,35.13,9.21,-4.87,1
2186,35.15,-1.23,-47.02,1
2187,35.16,8.02,-52.66,1
2188,35.17,4.06,-18.87,1
2189,35.19,-3.53,-45.01,1
2190,35.2,15.37,-33.42,1
2191,35.21,23.16,2.96,1
2192,35.22,9.36,-42.6,1
2193,35.24,-3.15,-52.22,1
2194,35.25,-18.34,-17.37,1
2195,35.27,-16.76,-55.06,1
2196,35.28,3.91,-57.16,1
2197,35.29,3.37,-6.48,1
2198,35.31,-2.54,-28.3,1
2199,35.32,9.15,-36.32,1
2200,35.33,3.71,-13.69,1
2201,35.35,-8.88,-53.6,1
2202,35.36,0.37,-40.39,1
2203,35.37,-0.22,17.71,1
2204,35.38,-11.58,-22.33,1
2205,35.4,-3.76,-37.93,1
2206,35.41,4.42,8.7,1
2207,35.43,4.91,-19.55,1
2208,35.44,7.4,-29.57,1
2209,35.45,-3.51,9.93,1
2210,35.47,-7.86,-21.41,1
2211,35.48,14.94,-22.98,1
2212,35.49,22.14,23.26,1
2213,35.51,6.95,-17.46,1
2214,35.52,4.75,-31.18,1
2215,35.53,4.3,18.89,1
2216,35.55,0.28,-12.2,1
2217,35.56,3.52,-24.81,1
2218,35.57,-7.07,22.14,1
2219,35.59,-19.88,-10.92,1
2220,35.6,-9.8,-18.44,1
2221,35.61,-8.19,43.12,1
2222,35.63,-14.84,17.74,1
2223,35.64,-0.2,-1.74,1
2224,35.65,6.46,38.41,1
2225,35.67,-2.15,-0.56,1
2226,35.68,3.69,-15.74,1
2227,35.69,4.03,40.8,1
2228,35.71,-2.33,10.24,1
2229,35.72,13.25,-12.52,1
2230,35.73,19.81,32.12,1
2231,35.75,2.37,-3.73,1
2232,35.76,-2.15,-19.53,1
2233,35.77,0.99,42.13,1
2234,35.79,-1.77,16.94,1
2235,35.8,0.37,-4.62,1
2236,35.81,-7.69,41.6,1
2237,35.83,-16.04,4.47,1
2238,35.84,1.6,-13.79,1
2239,35.85,6.64,47.54,1
2240,35.87,-15.36,17.03,1
2241,35.88,-15.41,-10.14,1
2242,35.89,-1.15,41.35,1
2243,35.9,-8.95,8.79,1
2244,35.92,-18.18,-17.72,1
2245,35.93,-12.13,34.88,1
2246,35.95,-1.09,7.23,1
2247,35.96,11.09,-6.75,1
2248,35.97,13.25,58.05,1
2249,35.99,5.19,22.42,1
2250,36.0,1.9,-17.71,1
2251,36.01,-5.45,31.35,1
2252,36.03,-13.62,1.07,1
2253,36.04,-3.33,-24.03,1
2254,36.05,3.58,40.02,1
2255,36.06,-4.53,18.11,1
2256,36.08,-0.58,-7.17,1
2257,36.09,7.82,53.46,1
2258,36.11,5.44,25.96,1
2259,36.12,6.69,-7.75,1
2260,36.13,2.58,48.72,1
2261,36.15,-9.66,23.93,1
2262,36.16,-7.19,-9.52,2
2263,36.17,-3.64,41.52,2
2264,36.19,-5.06,14.82,2
2265,36.2,9.2,-2.21,2
2266,36.21,14.04,98.66,2
2267,36.23,0.04,148.43,2
2268,36.24,6.39,195.75,2
2269,36.25,17.43,311.03,2
2270,36.27,-1.12,304.48,2
2271,36.28,-24.34,216.56,2
2272,36.29,-29.47,168.03,2
2273,36.31,-18.98,60.41,2
2274,36.32,-0.53,-26.54,2
2275,36.33,4.23,-12.75,2
2276,36.35,-1.85,-61.61,2
2277,36.36,5.13,-114.09,2
2278,36.37,11.58,-90.88,2
2279,36.38,7.56,-157.56,2
2280,36.4,8.96,-216.09,2
2281,36.41,8.62,-147.69,2
2282,36.43,7.09,-146.1,2
2283,36.44,16.27,-169.96,2
2284,36.45,8.02,-105.35,2
2285,36.47,-18.77,-112.2,2
2286,36.48,-17.08,-139.33,2
2287,36.49,1.84,-80.17,2
2288,36.51,2.27,-92.52,2
2289,36.52,3.15,-118.3,2
2290,36.53,10.52,-57.12,2
2291,36.54,8.06,-78.74,2
2292,36.56,5.6,-115.15,1
2293,36.57,5.27,-44.35,1
2294,36.59,3.53,-44.38,1
2295,36.6,7.74,-77.97,1
2296,36.61,3.16,-22.82,1
2297,36.63,-10.48,-27.29,1
2298,36.64,-1.49,-49.3,1
2299,36.65,16.82,8.17,1
2300,36.67,12.41,-13.76,1
2301,36.68,0.43,-53.9,1
2302,36.69,-7.78,6.1,1
2303,36.71,-11.07,-1.16,1
2304,36.72,4.7,-33.54,1
2305,36.73,18.2,29.63,1
2306,36.75,6.47,30.1,1
2307,36.76,-4.04,-0.81,1
2308,36.77,-3.53,44.88,1
2309,36.79,-6.06,22.15,1
2310,36.8,-6.25,-13.04,1
2311,36.81,-8.17,48.06,1
2312,36.83,-16.09,35.29,1
2313,36.84,-11.11,-13.21,1
2314,36.85,1.74,30.21,1
2315,36.87,3.0,17.81,1
2316,36.88,1.41,-19.03,1
2317,36.89,2.74,37.21,1
2318,36.9,2.08,38.15,1
2319,36.92,4.07,8.5,1
2320,36.93,2.37,58.65,1
2321,36.95,-3.82,45.69,1
2322,36.96,3.56,2.39,1
2323,36.97,14.64,47.44,1
2324,36.99,13.18,41.97,1
2325,37.0,11.52,9.31,1
2326,37.01,7.35,61.36,1
2327,37.03,-5.23,54.96,1
2328,37.04,-4.79,9.9,1
2329,37.05,4.27,54.11,1
2330,37.06,-0.86,56.72,1
2331,37.08,-4.77,14.24,1
2332,37.09,4.36,40.79,1
2333,37.11,7.63,30.71,1
2334,37.12,2.35,-0.78,1
2335,37.13,-1.92,44.02,1
2336,37.15,-3.72,36.86,1
2337,37.16,-1.39,-6.67,1
2338,37.17,-3.16,33.39,1
2339,37.19,-10.25,41.17,1
2340,37.2,-5.42,6.94,1
2341,37.21,-0.29,31.01,1
2342,37.22,-8.84,19.19,1
2343,37.24,-2.46,-13.02,1
2344,37.25,13.54,30.34,1
2345,37.27,1.43,31.26,1
2346,37.28,-18.31,-7.87,1
2347,37.29,-17.75,23.83,1
2348,37.31,-14.28,26.28,1
2349,37.32,-13.35,-2.78,1
2350,37.33,-10.15,31.44,1
2351,37.35,-9.31,24.17,1
2352,37.36,-2.77,-15.09,1
2353,37.37,7.34,25.99,1
2354,37.38,5.9,37.05,1
2355,37.4,-1.6,0.62,1
2356,37.41,-8.43,25.36,1
2357,37.43,-10.91,17.93,1
2358,37.44,0.3,-27.72,1
2359,37.45,5.48,6.99,1
2360,37.47,-7.8,21.25,1
2361,37.48,-5.52,-15.97,1
2362,37.49,8.22,11.42,1
2363,37.51,-1.41,19.74,1
2364,37.52,-10.49,-18.62,1
2365,37.53,1.42,8.99,1
2366,37.54,8.51,19.42,1
2367,37.56,5.76,-16.47,1
2368,37.57,3.54,12.7,1
2369,37.59,4.14,21.12,1
2370,37.6,12.02,-24.01,1
2371,37.61,11.83,-0.87,1
2372,37.63,-5.63,11.81,1
2373,37.64,-9.73,-34.32,1
2374,37.65,1.44,-19.33,1
2375,37.67,2.07,-3.54,1
2376,37.68,7.34,-38.73,1
2377,37.69,18.0,-17.7,1
2378,37.71,7.17,0.67,1
2379,37.72,-4.21,-35.96,1
2380,37.73,0.36,-21.71,1
2381,37.75,-1.96,-4.8,1
2382,37.76,-5.77,-27.21,1
2383,37.77,-1.83,5.86,1
2384,37.79,-4.88,22.66,1
2385,37.8,-9.71,-22.88,1
2386,37.81,-9.55,-11.1,1
2387,37.83,-11.57,6.83,1
2388,37.84,-4.76,-28.68,1
2389,37.85,8.97,-15.07,1
2390,37.87,6.42,-0.46,1
2391,37.88,-1.02,-38.1,1
2392,37.89,1.88,-19.52,1
2393,37.9,0.89,4.96,1
2394,37.92,-2.11,-30.85,1
2395,37.93,0.83,-13.6,1
2396,37.95,1.42,14.58,1
2397,37.96,3.28,-25.56,1
2398,37.97,5.95,-22.9,1
2399,37.99,0.34,-1.82,1
2400,38.0,-1.22,-36.18,1
2401,38.01,3.05,-24.69,1
2402,38.03,-0.19,2.72,1
2403,38.04,3.23,-27.46,1
2404,38.05,11.6,-13.3,1
2405,38.06,1.69,12.26,1
2406,38.08,-5.19,-19.98,1
2407,38.09,3.74,3.05,1
2408,38.11,-0.55,33.87,1
2409,38.12,-6.87,-30.0,1
2410,38.13,4.78,-54.05,1
2411,38.15,9.33,-16.71,1
2412,38.16,4.8,-30.6,2
2413,38.17,3.14,-29.64,2
2414,38.19,-4.12,43.9,2
2415,38.2,-1.16,127.24,2
2416,38.21,15.37,189.27,2
2417,38.22,16.72,189.53,2
2418,38.24,13.33,165.74,2
2419,38.25,18.34,240.95,2
2420,38.27,12.57,260.21,2
2421,38.28,5.76,50.74,2
2422,38.29,11.1,-76.61,2
2423,38.31,6.31,65.76,2
2424,38.32,-11.41,141.03,2
2425,38.33,-21.87,37.84,2
2426,38.35,-21.82,-20.63,2
2427,38.36,-15.54,-15.9,2
2428,38.37,-11.68,-49.15,2
2429,38.38,-13.89,-158.93,2
2430,38.4,-3.76,-215.0,2
2431,38.41,11.51,-51.42,2
2432,38.43,3.17,44.65,2
2433,38.44,-3.96,-144.68,2
2434,38.45,12.08,-214.52,2
2435,38.47,14.17,-96.0,2
2436,38.48,-6.27,-169.06,2
2437,38.49,-16.83,-249.16,2
2438,38.51,-8.9,-105.18,2
2439,38.52,7.92,-67.92,2
2440,38.53,8.72,-194.04,2
2441,38.54,-13.0,-222.11,2
2442,38.56,-8.71,-163.33,1
2443,38.57,16.84,-70.85,1
2444,38.59,2.88,-2.15,1
2445,38.6,-20.99,-57.17,1
2446,38.61,-10.48,-76.32,1
2447,38.63,-5.32,4.04,1
2448,38.64,-5.76,-3.29,1
2449,38.65,18.64,-33.95,1
2450,38.67,29.64,-11.81,1
2451,38.68,14.27,-28.54,1
2452,38.69,11.8,11.71,1
2453,38.71,13.12,63.5,1
2454,38.72,-0.68,-44.68,1
2455,38.73,-17.02,-87.84,1
2456,38.75,-26.96,20.29,1
2457,38.76,-10.86,11.19,1
2458,38.77,20.58,-27.28,1
2459,38.79,15.46,44.58,1
2460,38.8,-13.57,38.5,1
2461,38.81,-19.05,-6.78,1
2462,38.83,-8.59,20.38,1
2463,38.84,-3.43,11.73,1
2464,38.85,-10.26,31.2,1
2465,38.87,-17.65,81.24,1
2466,38.88,0.59,2.32,1
2467,38.89,19.05,-19.34,1
2468,38.9,-0.64,99.83,1
2469,38.92,-15.08,71.63,1
2470,38.93,6.95,-44.2,1
2471,38.95,18.48,-31.31,1
2472,38.96,10.88,15.61,1
2473,38.97,9.99,56.51,1
2474,38.99,1.23,94.34,1
2475,39.0,-9.79,39.59,1
2476,39.01,-13.17,-10.55,1
2477,39.03,-28.71,18.18,1
2478,39.04,-27.35,5.28,1
2479,39.05,-1.73,-13.37,1
2480,39.06,-2.42,7.65,1
2481,39.08,-6.97,-3.59,1
2482,39.09,12.33,43.44,1
2483,39.11,10.51,117.97,1
2484,39.12,-7.9,62.67,1
2485,39.13,-10.5,34.33,1
2486,39.15,-13.2,75.71,1
2487,39.16,-5.11,-8.6,1
2488,39.17,22.94,-48.52,1
2489,39.19,28.49,82.21,1
2490,39.2,16.63,124.69,1
2491,39.21,11.89,87.75,1
2492,39.22,-9.42,98.56,1
2493,39.24,-28.68,50.5,1
2494,39.25,-12.24,22.17,1
2495,39.27,5.26,63.82,1
2496,39.28,12.11,-0.23,1
2497,39.29,21.67,-44.28,1
2498,39.31,7.33,48.47,1
2499,39.32,-12.2,41.45,1
2500,39.33,-1.08,-39.3,1
2501,39.35,3.98,-18.95,1
2502,39.36,-4.12,-7.69,1
2503,39.37,7.72,-9.07,1
2504,39.38,17.28,34.3,1
2505,39.4,5.76,11.68,1
2506,39.41,-8.75,2.95,1
2507,39.43,-11.81,66.11,1
2508,39.44,5.97,36.41,1
2509,39.45,20.57,19.67,1
2510,39.47,5.34,123.76,1
2511,39.48,-4.94,118.04,1
2512,39.49,-0.88,16.82,1
2513,39.51,-14.08,-3.64,1
2514,39.52,-12.0,-18.66,1
2515,39.53,18.28,2.66,1
2516,39.54,19.67,83.86,1
2517,39.56,-1.52,32.32,1
2518,39.57,-3.22,-46.85,1
2519,39.59,-0.29,6.78,1
2520,39.6,-0.68,11.46,1
2521,39.61,3.14,-8.89,1
2522,39.63,0.78,50.05,1
2523,39.64,5.17,16.79,1
2524,39.65,16.63,-33.33,1
2525,39.67,5.5,25.46,1
2526,39.68,-9.92,-5.76,1
2527,39.69,-8.11,-80.85,1
2528,39.71,-13.09,-43.24,1
2529,39.72,-11.26,-21.62,1
2530,39.73,12.15,-19.53,1
2531,39.75,12.76,6.81,1
2532,39.76,-7.86,-19.08,1
2533,39.77,-15.14,3.67,1
2534,39.79,-26.24,52.63,1
2535,39.8,-31.26,-49.79,1
2536,39.81,-4.7,-97.54,1
2537,39.83,15.08,28.27,1
2538,39.84,12.36,30.97,1
2539,39.85,10.76,-46.85,1
2540,39.87,-4.75,-3.14,1
2541,39.88,-26.96,-15.14,1
2542,39.89,-22.69,-95.21,1
2543,39.9,-16.51,-73.85,1
2544,39.92,-17.56,-58.36,1
2545,39.93,-0.85,-65.34,1
2546,39.95,15.65,3.17,1
2547,39.96,26.19,6.39,1
2548,39.97,26.2,-60.85,1
2549,39.99,-7.37,-36.48,1
2550,40.0,-19.74,9.2,1
2551,40.01,17.68,6.59,1
2552,40.03,30.3,-1.36,1
2553,40.04,11.63,-34.65,1
2554,40.05,-2.32,-39.61,1
2555,40.065,-22.82,5.99,1
2556,40.08,-16.27,-5.25,1
2557,40.09,20.82,-19.71,1
2558,40.11,16.06,7.73,1
2559,40.12,-4.84,-25.23,1
2560,40.13,15.5,-13.94,1
2561,40.15,24.88,74.71,1
2562,40.16,3.87,9.58,0
2563,40.17,-2.82,-94.64,0
2564,40.19,-1.23,-9.11,0
2565,40.2,-1.19,48.8,0
2566,40.21,1.72,-13.12,0
2567,40.22,-8.68,-14.24,0
2568,40.24,-11.8,-5.98,0
2569,40.25,4.97,-10.13,0
2570,40.27,-1.91,48.18,0
2571,40.28,-20.0,43.87,0
2572,40.29,-10.7,-9.57,0
2573,40.31,-5.26,24.3,0
2574,40.32,-8.1,39.65,0
2575,40.33,4.04,17.65,0
2576,40.35,5.48,63.85,0
2577,40.36,-0.12,75.12,0
2578,40.37,12.0,36.1,0
2579,40.38,22.48,39.46,0
2580,40.4,22.67,-22.25,0
2581,40.41,11.59,-132.78,0
2582,40.43,-15.23,-146.73,0
2583,40.44,-22.99,-174.89,0
2584,40.45,-6.71,-264.64,0
2585,40.47,-9.74,-279.55,0
2586,40.48,-22.56,-263.88,0
2587,40.49,-21.55,-245.71,0
2588,40.51,-27.02,-151.66,0
2589,40.52,-23.22,-76.89,0
2590,40.53,5.06,-46.15,0
2591,40.54,11.94,26.41,0
2592,40.56,3.09,53.08,1
2593,40.57,14.44,40.83,1
2594,40.59,14.76,106.39,1
2595,40.6,3.33,135.79,1
2596,40.61,8.68,95.39,1
2597,40.63,3.19,115.06,1
2598,40.64,-7.07,119.34,1
2599,40.65,8.25,82.09,1
2600,40.67,13.33,113.74,1
2601,40.68,1.64,119.3,1
2602,40.69,5.83,68.16,1
2603,40.71,9.2,93.65,1
2604,40.72,5.83,110.98,1
2605,40.73,8.92,60.69,1
2606,40.75,6.31,71.09,1
2607,40.76,9.08,89.97,1
2608,40.77,18.38,59.14,1
2609,40.79,2.23,78.43,1
2610,40.8,-14.39,87.89,1
2611,40.81,4.92,40.84,1
2612,40.83,23.26,50.7,1
2613,40.84,14.13,65.18,1
2614,40.85,-1.29,32.24,1
2615,40.87,-14.26,59.62,1
2616,40.88,-12.74,88.02,1
2617,40.89,6.5,48.81,1
2618,40.9,14.2,48.62,1
2619,40.92,16.27,50.77,1
2620,40.93,22.62,2.88,1
2621,40.95,3.64,12.89,1
2622,40.96,-17.32,37.81,1
2623,40.97,-4.18,8.96,1
2624,40.99,4.2,21.87,1
2625,41.0,-3.94,36.71,1
2626,41.01,-0.64,-4.64,1
2627,41.03,-0.62,10.28,1
2628,41.04,-4.98,40.01,1
2629,41.05,-0.35,0.54,1
2630,41.06,-10.89,-1.39,1
2631,41.08,-22.31,12.73,1
2632,41.09,-7.16,-25.66,1
2633,41.11,-0.89,-8.12,1
2634,41.12,-9.94,24.6,1
2635,41.13,-8.04,-19.26,1
2636,41.15,-10.84,-22.13,1
2637,41.16,-12.16,4.64,1
2638,41.17,2.77,-24.92,1
2639,41.19,1.99,-12.25,1
2640,41.2,-7.9,13.37,1
2641,41.21,-2.4,-35.23,1
2642,41.22,-8.51,-38.49,1
2643,41.24,-18.23,-9.51,1
2644,41.25,-3.65,-46.04,1
2645,41.27,4.42,-35.24,1
2646,41.28,-2.22,9.36,1
2647,41.29,-0.85,-27.59,1
2648,41.31,-4.68,-38.22,1
2649,41.32,-1.19,-11.48,1
2650,41.33,22.13,-47.03,1
2651,41.35,19.89,-42.51,1
2652,41.36,-1.42,1.13,1
2653,41.37,1.06,-30.04,1
2654,41.38,1.27,-35.0,1
2655,41.4,-10.0,-2.88,1
2656,41.41,-5.09,-41.59,1
2657,41.43,-2.64,-46.64,1
2658,41.44,-8.69,-5.97,1
2659,41.45,-3.76,-35.87,1
2660,41.47,-6.35,-41.0,1
2661,41.48,-11.29,-9.89,1
2662,41.49,5.63,-47.9,1
2663,41.51,15.4,-43.62,1
2664,41.52,8.9,5.26,1
2665,41.53,8.52,-34.99,1
2666,41.54,0.46,-48.57,1
2667,41.56,-10.11,-9.64,1
2668,41.57,-3.28,-50.84,1
2669,41.59,-5.46,-56.33,1
2670,41.6,-15.26,3.17,1
2671,41.61,0.18,-26.32,1
2672,41.63,14.87,-45.92,1
2673,41.64,4.14,-4.3,1
2674,41.65,-5.3,-38.06,1
2675,41.67,-5.72,-55.91,1
2676,41.68,-1.68,-8.39,1
2677,41.69,7.02,-29.34,1
2678,41.71,2.75,-35.26,1
2679,41.72,-3.42,7.55,1
2680,41.73,3.26,-31.44,1
2681,41.75,-4.61,-38.14,1
2682,41.76,-12.83,27.09,1
2683,41.77,5.57,-5.69,1
2684,41.79,9.99,-40.01,1
2685,41.8,-2.44,1.9,1
2686,41.81,6.03,-23.76,1
2687,41.83,10.22,-43.6,1
2688,41.84,-2.86,1.52,1
2689,41.85,-2.59,-17.87,1
2690,41.87,2.3,-18.92,1
2691,41.88,-0.03,37.33,1
2692,41.89,0.99,4.2,1
2693,41.9,-2.08,-19.16,1
2694,41.92,-3.77,24.27,1
2695,41.93,5.03,-14.05,1
2696,41.95,2.74,-31.73,1
2697,41.96,-3.67,28.32,1
2698,41.97,5.31,-3.43,1
2699,41.99,2.88,-31.06,1
2700,42.0,-10.36,22.28,1
2701,42.01,-3.95,-4.2,1
2702,42.03,-0.23,-27.24,1
2703,42.04,-9.31,22.48,1
2704,42.05,-3.48,-7.29,1
2705,42.06,3.28,-21.37,1
2706,42.08,0.92,43.64,1
2707,42.09,8.38,11.13,1
2708,42.11,11.38,-29.05,1
2709,42.12,2.45,17.3,1
2710,42.13,-2.3,-1.12,1
2711,42.15,-8.62,-14.37,1
2712,42.16,-4.64,37.02,0
2713,42.17,17.48,-1.27,0
2714,42.19,16.92,-36.26,0
2715,42.2,-4.84,-1.13,0
2716,42.21,-7.43,-61.35,0
2717,42.22,-7.98,-114.02,0
2718,42.24,-16.38,-69.18,0
2719,42.25,2.29,-101.41,0
2720,42.27,34.17,-128.77,0
2721,42.28,42.94,-66.55,0
2722,42.29,36.75,-93.17,0
2723,42.31,23.74,-117.45,0
2724,42.32,5.37,-33.01,0
2725,42.33,-10.5,-29.72,0
2726,42.35,-26.34,-48.6,0
2727,42.36,-25.9,24.12,0
2728,42.37,0.32,28.89,0
2729,42.38,10.18,17.12,0
2730,42.4,-8.79,74.22,0
2731,42.41,-19.59,51.41,0
2732,42.43,-19.59,39.97,0
2733,42.44,-15.18,126.69,0
2734,42.45,1.96,117.92,0
2735,42.47,8.82,81.21,0
2736,42.48,-0.73,140.17,0
2737,42.49,2.27,136.96,0
2738,42.51,11.48,118.76,0
2739,42.52,7.73,175.71,0
2740,42.53,-4.32,150.98,0
2741,42.54,-15.74,114.71,0
2742,42.56,-13.42,164.36,1
2743,42.57,-3.67,128.77,1
2744,42.59,-10.87,81.04,1
2745,42.6,-16.45,136.26,1
2746,42.61,-2.09,113.58,1
2747,42.63,-1.54,60.75,1
2748,42.64,-17.78,98.29,1
2749,42.65,-15.74,69.69,1
2750,42.66,-2.37,22.69,1
2751,42.68,5.95,65.12,1
2752,42.69,11.75,40.04,1
2753,42.71,7.16,-0.13,1
2754,42.72,2.26,49.79,1
2755,42.73,7.48,27.73,1
2756,42.75,-0.63,-10.98,1
2757,42.76,-11.99,44.46,1
2758,42.77,2.55,27.96,1
2759,42.79,11.86,-17.25,1
2760,42.8,-7.02,19.11,1
2761,42.81,-21.92,-9.04,1
2762,42.83,-18.87,-44.35,1
2763,42.84,-9.59,12.45,1
2764,42.85,-0.36,-6.53,1
2765,42.87,0.21,-50.65,1
2766,42.88,-1.11,-4.18,1
2767,42.89,6.42,-19.91,1
2768,42.9,4.37,-53.35,1
2769,42.92,-5.19,-1.07,1
2770,42.93,5.18,-20.71,1
2771,42.95,21.22,-64.27,1
2772,42.96,22.26,-15.4,1
2773,42.97,23.04,-29.79,1
2774,42.99,25.14,-72.15,1
2775,43.0,13.97,-28.54,1
2776,43.01,-5.35,-48.23,1
2777,43.03,-21.6,-90.55,1
2778,43.04,-21.81,-34.11,1
2779,43.05,0.27,-33.62,1
2780,43.06,16.3,-71.84,1
2781,43.08,5.52,-33.37,1
2782,43.09,-7.8,-47.92,1
2783,43.11,-7.99,-81.31,1
2784,43.12,-2.03,-26.44,1
2785,43.13,6.41,-28.45,1
2786,43.15,7.57,-63.62,1
2787,43.16,-0.47,-20.92,1
2788,43.17,-2.88,-37.05,1
2789,43.19,1.81,-83.12,1
2790,43.2,7.79,-35.93,1
2791,43.21,14.61,-31.78,1
2792,43.22,10.94,-66.31,1
2793,43.24,-1.07,-24.69,1
2794,43.25,2.23,-25.67,1
2795,43.27,7.77,-57.09,1
2796,43.28,-7.07,-8.9,1
2797,43.29,-15.16,-7.15,1
2798,43.3,-1.44,-46.04,1
2799,43.32,11.83,-11.12,1
2800,43.33,15.58,-17.38,1
2801,43.35,8.94,-53.88,1
2802,43.36,-1.64,-7.63,1
2803,43.37,-1.58,-4.13,1
2804,43.38,-2.43,-42.89,1
2805,43.4,-13.28,-3.49,1
2806,43.41,-12.18,-0.88,1
2807,43.43,3.38,-40.39,1
2808,43.44,12.46,-4.63,1
2809,43.45,13.48,-2.87,1
2810,43.47,7.89,-44.25,1
2811,43.48,-3.89,-10.14,1
2812,43.49,-12.3,-2.23,1
2813,43.51,-18.86,-36.22,1
2814,43.52,-17.7,1.25,1
2815,43.53,4.93,11.57,1
2816,43.54,23.42,-22.73,1
2817,43.56,8.8,12.17,1
2818,43.57,-12.51,21.76,1
2819,43.59,-13.3,-17.5,1
2820,43.6,-7.57,4.84,1
2821,43.61,-6.57,7.7,1
2822,43.63,-3.22,-24.38,1
2823,43.64,8.01,11.37,1
2824,43.65,19.85,20.47,1
2825,43.67,14.45,-17.53,1
2826,43.68,-3.22,15.42,1
2827,43.69,-7.62,32.34,1
2828,43.71,-6.38,-8.81,1
2829,43.72,-15.0,5.57,1
2830,43.73,-11.03,14.86,1
2831,43.75,8.94,-15.77,1
2832,43.76,19.16,11.63,1
2833,43.77,21.31,28.99,1
2834,43.79,20.82,0.73,1
2835,43.8,6.47,18.22,1
2836,43.81,-14.88,16.65,1
2837,43.83,-24.19,-10.97,1
2838,43.84,-17.72,38.09,1
2839,43.85,-11.21,52.2,1
2840,43.87,-17.75,-10.04,1
2841,43.88,-16.21,5.68,1
2842,43.89,5.43,40.53,1
2843,43.9,9.05,10.13,1
2844,43.92,-5.42,12.71,1
2845,43.93,3.87,18.39,1
2846,43.94,12.75,-6.6,1
2847,43.96,-8.86,19.97,1
2848,43.97,-19.19,21.12,1
2849,43.99,-4.17,-27.95,1
2850,44.0,2.83,8.62,1
2851,44.01,4.27,49.9,1
2852,44.03,5.66,5.42,1
2853,44.04,-4.01,5.32,1
2854,44.05,-5.37,27.16,1
2855,44.06,1.97,-5.12,1
2856,44.08,-5.97,9.96,1
2857,44.09,-8.79,40.45,1
2858,44.11,2.62,9.61,1
2859,44.12,3.3,14.08,1
2860,44.13,-0.33,28.23,1
2861,44.15,-4.22,-11.38,1
2862,44.16,-12.2,4.8,2
2863,44.17,-2.04,64.86,2
2864,44.19,13.59,103.58,2
2865,44.2,10.09,192.34,2
2866,44.21,17.34,258.92,2
2867,44.22,38.59,218.66,2
2868,44.24,36.68,195.6,2
2869,44.25,17.83,176.97,2
2870,44.27,0.71,92.78,2
2871,44.28,-15.39,63.49,2
2872,44.29,-19.77,64.29,2
2873,44.31,-19.96,-7.35,2
2874,44.32,-29.79,-50.82,2
2875,44.33,-24.02,-73.65,2
2876,44.35,-8.36,-151.71,2
2877,44.36,-15.81,-165.54,2
2878,44.37,-18.2,-133.08,2
2879,44.38,0.96,-165.71,2
2880,44.4,8.99,-158.16,2
2881,44.41,10.95,-117.43,2
2882,44.43,14.87,-148.25,2
2883,44.44,10.13,-140.61,2
2884,44.45,17.9,-95.87,2
2885,44.47,31.96,-118.02,2
2886,44.48,20.13,-98.53,2
2887,44.49,4.41,-51.88,2
2888,44.51,3.1,-99.31,2
2889,44.52,-1.74,-105.68,2
2890,44.53,-5.61,-44.27,2
2891,44.54,-6.57,-60.66,2
2892,44.56,-6.12,-64.38,1
2893,44.57,11.83,-19.0,1
2894,44.58,22.05,-39.66,1
2895,44.6,1.35,-38.09,1
2896,44.61,-9.43,0.59,1
2897,44.62,-5.11,-35.57,1
2898,44.64,-16.85,-34.81,1
2899,44.65,-14.27,15.3,1
2900,44.67,15.17,-18.93,1
2901,44.68,19.24,-18.27,1
2902,44.69,-1.35,40.74,1
2903,44.71,-7.43,3.5,1
2904,44.72,-4.32,-13.41,1
2905,44.73,-0.85,42.84,1
2906,44.75,-0.02,18.54,1
2907,44.76,-8.96,5.23,1
2908,44.77,-10.33,54.86,1
2909,44.79,-3.77,24.93,1
2910,44.8,-8.06,5.22,1
2911,44.81,-7.39,44.32,1
2912,44.83,2.62,8.99,1
2913,44.84,-1.78,1.41,1
2914,44.85,-8.6,56.88,1
2915,44.87,-3.02,17.86,1
2916,44.88,4.16,0.25,1
2917,44.89,14.32,65.15,1
2918,44.9,13.8,40.99,1
2919,44.92,-11.44,18.67,1
2920,44.93,-24.58,65.54,1
2921,44.95,-10.3,27.42,1
2922,44.96,0.4,2.67,1
2923,44.97,5.37,55.56,1
2924,44.99,8.76,24.84,1
2925,45.0,0.36,8.34,1
2926,45.01,-1.95,67.83,1
2927,45.03,1.72,28.78,1
2928,45.04,-12.22,-6.05,1
2929,45.05,-17.44,50.31,1
2930,45.06,-0.83,23.4,1
2931,45.08,3.76,-5.74,1
2932,45.09,4.61,48.22,1
2933,45.11,14.12,26.69,1
2934,45.12,11.12,11.24,1
2935,45.13,8.33,67.78,1
2936,45.15,11.47,28.08,1
2937,45.16,-2.53,-11.63,1
2938,45.17,-9.35,35.09,1
2939,45.19,5.37,7.75,1
2940,45.2,3.85,-8.64,1
2941,45.21,-7.03,54.36,1
2942,45.22,-1.39,26.83,1
2943,45.24,2.43,-0.86,1
2944,45.25,-0.84,49.35,1
2945,45.26,-5.07,7.44,1
2946,45.28,-14.1,-29.01,1
2947,45.29,-7.08,36.93,1
2948,45.31,13.3,23.53,1
2949,45.32,11.81,-10.9,1
2950,45.33,3.26,26.64,1
2951,45.35,7.71,-0.89,1
2952,45.36,6.01,-9.88,1
2953,45.37,3.95,52.42,1
2954,45.38,0.07,4.31,1
2955,45.4,-23.2,-39.77,1
2956,45.41,-26.86,31.7,1
2957,45.43,-0.43,21.48,1
2958,45.44,0.1,-14.84,1
2959,45.45,-12.36,31.49,1
2960,45.47,0.84,2.52,1
2961,45.48,4.91,-28.37,1
2962,45.49,-7.78,34.11,1
2963,45.51,-5.44,13.61,1
2964,45.52,3.53,-17.53,1
2965,45.53,12.18,42.37,1
2966,45.54,17.74,10.99,1
2967,45.56,6.09,-38.69,1
2968,45.57,-1.15,17.3,1
2969,45.59,0.77,5.27,1
2970,45.6,-10.61,-27.27,1
2971,45.61,-4.29,27.6,1
2972,45.63,22.76,9.15,1
2973,45.64,14.06,-26.87,1
2974,45.65,-11.18,22.16,1
2975,45.67,-7.38,-2.98,1
2976,45.68,-0.67,-39.9,1
2977,45.69,-2.43,14.63,1
2978,45.71,0.16,-5.94,1
2979,45.72,-5.09,-45.62,1
2980,45.73,-2.91,5.09,1
2981,45.75,14.39,-10.02,1
2982,45.76,9.89,-39.52,1
2983,45.77,-7.43,12.89,1
2984,45.79,-8.21,-10.61,1
2985,45.8,-5.95,-44.87,1
2986,45.81,1.35,15.5,1
2987,45.83,12.2,0.36,1
2988,45.84,3.26,-41.5,1
2989,45.85,-3.85,5.25,1
2990,45.86,3.8,-11.44,1
2991,45.88,0.3,-44.8,1
2992,45.89,0.91,8.77,1
2993,45.9,9.43,-7.2,1
2994,45.92,-4.95,-42.61,1
2995,45.93,-16.69,8.46,1
2996,45.95,-9.04,-11.24,1
2997,45.96,-13.99,-47.95,1
2998,45.97,-11.45,11.78,1
2999,45.99,7.48,2.78,1
3000,46.0,-1.32,-40.14,1
3001,46.01,-11.6,4.77,1
3002,46.03,10.31,-3.93,1
3003,46.04,14.99,-33.92,1
3004,46.05,-3.02,16.2,1
3005,46.06,-7.55,-5.88,1
3006,46.08,-10.51,-52.2,1
3007,46.09,-7.15,0.05,1
3008,46.11,9.16,-11.68,1
3009,46.12,5.01,-63.84,1
3010,46.13,-4.65,-17.1,1
3011,46.15,6.06,-17.95,1
3012,46.16,9.87,-82.09,2
3013,46.17,9.21,-78.68,2
3014,46.19,17.92,-92.92,2
3015,46.2,15.2,-64.26,2
3016,46.21,16.77,152.73,2
3017,46.22,29.32,322.15,2
3018,46.24,4.62,269.0,2
3019,46.25,-32.08,158.63,2
3020,46.27,-17.76,116.71,2
3021,46.28,13.69,123.47,2
3022,46.29,24.15,71.18,2
3023,46.31,17.53,-18.85,2
3024,46.32,-12.17,52.66,2
3025,46.33,-21.32,184.27,2
3026,46.35,14.04,104.64,2
3027,46.36,14.49,-67.26,2
3028,46.37,-33.61,-127.43,2
3029,46.38,-54.24,-140.12,2
3030,46.4,-34.45,-141.62,2
3031,46.41,-5.49,-113.23,2
3032,46.43,4.03,-120.02,2
3033,46.44,-11.94,-96.29,2
3034,46.45,-6.33,18.69,2
3035,46.47,20.49,41.27,2
3036,46.48,11.7,-64.42,2
3037,46.49,-5.81,-134.62,2
3038,46.5,6.35,-170.88,2
3039,46.52,9.32,-173.67,2
3040,46.53,1.74,-84.34,2
3041,46.54,5.3,-17.86,2
3042,46.56,-2.63,-33.23,1
3043,46.57,-9.88,-50.16,1
3044,46.59,-0.14,-101.77,1
3045,46.6,-2.02,-139.72,1
3046,46.61,-5.61,-73.16,1
3047,46.63,3.26,-54.92,1
3048,46.64,1.61,-92.14,1
3049,46.65,10.88,-42.97,1
3050,46.67,36.65,-4.45,1
3051,46.68,30.2,6.96,1
3052,46.69,6.46,67.14,1
3053,46.71,-2.76,43.94,1
3054,46.72,-17.56,-46.87,1
3055,46.73,-22.79,-49.41,1
3056,46.75,-5.94,-33.44,1
3057,46.76,1.34,-23.9,1
3058,46.77,8.71,38.91,1
3059,46.79,18.37,38.18,1
3060,46.8,6.07,-28.04,1
3061,46.81,7.49,-19.59,1
3062,46.83,28.94,-5.17,1
3063,46.84,11.75,-39.41,1
3064,46.85,-26.35,-25.46,1
3065,46.87,-28.19,8.47,1
3066,46.88,-6.18,30.32,1
3067,46.89,13.44,72.79,1
3068,46.9,13.38,65.37,1
3069,46.92,-17.74,40.59,1
3070,46.93,-30.3,78.15,1
3071,46.95,-0.78,32.8,1
3072,46.96,9.5,-75.16,1
3073,46.97,-3.89,-24.11,1
3074,46.99,1.94,66.01,1
3075,47.0,9.81,28.04,1
3076,47.01,11.23,1.52,1
3077,47.03,16.1,10.37,1
3078,47.04,5.97,-23.69,1
3079,47.05,-2.99,-31.41,1
3080,47.06,4.71,-8.28,1
3081,47.08,-3.02,29.19,1
3082,47.09,-10.57,95.96,1
3083,47.11,8.82,70.13,1
3084,47.12,14.47,-16.74,1
3085,47.13,2.71,31.3,1
3086,47.14,5.05,99.69,1
3087,47.16,-0.6,35.24,1
3088,47.17,-12.38,7.11,1
3089,47.18,-2.69,72.84,1
3090,47.2,1.83,91.7,1
3091,47.21,-11.25,63.64,1
3092,47.22,-20.42,21.92,1
3093,47.24,-17.92,-21.09,1
3094,47.25,0.46,8.31,1
3095,47.27,11.41,49.18,1
3096,47.28,-8.87,18.86,1
3097,47.29,-20.98,8.57,1
3098,47.31,-5.91,19.86,1
3099,47.32,-4.54,4.76,1
3100,47.33,-8.26,17.09,1
3101,47.35,8.27,-4.08,1
3102,47.36,11.37,-61.25,1
3103,47.37,2.99,-14.44,1
3104,47.38,12.1,18.87,1
3105,47.4,11.04,-69.68,1
3106,47.41,-5.32,-66.37,1
3107,47.43,-8.61,40.36,1
3108,47.44,-5.9,75.72,1
3109,47.45,4.79,96.92,1
3110,47.47,19.77,88.83,1
3111,47.48,7.08,-7.81,1
3112,47.49,-6.62,-11.27,1
3113,47.51,3.96,53.63,1
3114,47.52,-1.45,8.78,1
3115,47.53,-11.88,7.13,1
3116,47.54,2.25,103.56,1
3117,47.56,5.66,100.63,1
3118,47.57,-8.01,30.64,1
3119,47.59,-17.77,-23.63,1
3120,47.6,-30.49,-69.1,1
3121,47.61,-25.52,-28.68,1
3122,47.63,5.75,24.49,1
3123,47.64,16.15,-15.89,1
3124,47.65,3.01,-17.03,1
3125,47.67,-3.63,9.58,1
3126,47.68,-14.1,-62.4,1
3127,47.69,-17.47,-56.28,1
3128,47.71,4.79,69.57,1
3129,47.72,26.23,63.28,1
3130,47.73,41.35,-2.12,1
3131,47.75,49.56,31.52,1
3132,47.76,21.62,44.33,1
3133,47.77,-17.79,54.29,1
3134,47.78,-24.58,92.01,1
3135,47.8,-16.59,9.76,1
3136,47.81,-9.0,-101.87,1
3137,47.82,2.8,-108.3,1
3138,47.84,7.4,-83.19,1
3139,47.85,9.63,-2.61,1
3140,47.86,7.83,82.63,1
3141,47.88,-14.99,43.89,1
3142,47.89,-25.86,15.05,1
3143,47.9,-4.92,31.47,1
3144,47.92,0.76,-28.39,1
3145,47.93,-4.42,-49.83,1
3146,47.95,16.19,-0.06,1
3147,47.96,21.21,-5.13,1
3148,47.97,-5.53,14.69,1
3149,47.99,-19.32,39.31,1
3150,48.0,-21.77,-62.64,1
3151,48.01,-12.8,-106.39,1
3152,48.03,19.89,-14.64,1
3153,48.04,25.79,10.94,1
3154,48.05,-5.28,18.16,1
3155,48.06,-15.52,77.06,1
3156,48.08,-6.64,46.99,1
3157,48.09,-4.33,-10.2,1
3158,48.11,-6.95,-1.66,1
3159,48.12,-16.3,-26.22,1
3160,48.13,-6.89,-23.73,1
3161,48.15,21.49,27.88,1
3162,48.16,17.46,-14.93,0
3163,48.17,-0.73,-19.14,0
3164,48.19,4.33,84.56,0
3165,48.2,-2.14,80.34,0
3166,48.21,-12.14,53.98,0
3167,48.22,13.67,104.83,0
3168,48.24,38.56,40.39,0
3169,48.25,34.06,-62.85,0
3170,48.27,16.77,-90.77,0
3171,48.28,-8.93,-191.96,0
3172,48.29,-10.24,-277.84,0
3173,48.31,22.05,-248.57,0
3174,48.32,18.46,-265.98,0
3175,48.33,-16.8,-270.86,0
3176,48.35,-16.6,-192.93,0
3177,48.36,-5.35,-188.15,0
3178,48.37,-11.0,-167.56,0
3179,48.38,-8.86,-51.8,0
3180,48.4,-10.71,-18.23,0
3181,48.41,-20.86,3.03,0
3182,48.42,-17.88,88.61,0
3183,48.44,-8.99,69.0,0
3184,48.45,3.92,42.59,0
3185,48.46,13.87,112.63,0
3186,48.48,1.27,96.64,0
3187,48.49,-3.45,65.88,0
3188,48.5,13.49,128.23,0
3189,48.52,5.32,111.89,0
3190,48.53,-19.49,73.05,0
3191,48.54,-19.22,110.96,0
3192,48.56,-14.2,75.56,1
3193,48.57,-14.57,44.65,1
3194,48.59,-5.58,102.28,1
3195,48.6,-7.64,70.63,1
3196,48.61,-13.91,36.97,1
3197,48.63,4.2,107.18,1
3198,48.64,23.86,85.89,1
3199,48.65,31.76,36.37,1
3200,48.67,41.43,84.18,1
3201,48.68,34.82,61.67,1
3202,48.69,7.82,27.87,1
3203,48.71,-17.53,90.33,1
3204,48.72,-38.5,67.81,1
3205,48.73,-44.14,13.77,1
3206,48.75,-25.34,57.7,1
3207,48.76,-5.35,49.15,1
3208,48.77,12.28,27.04,1
3209,48.79,33.2,75.45,1
3210,48.8,30.88,38.06,1
3211,48.81,11.99,-8.07,1
3212,48.83,2.53,42.54,1
3213,48.84,-11.05,16.5,1
3214,48.85,-19.25,-24.32,1
3215,48.87,-5.89,33.9,1
3216,48.88,-3.71,15.98,1
3217,48.89,-12.88,-29.91,1
3218,48.9,-5.23,20.48,1
3219,48.92,-0.94,6.41,1
3220,48.93,-3.69,-37.9,1
3221,48.95,11.75,3.25,1
3222,48.96,22.95,-10.4,1
3223,48.97,15.01,-32.51,1
3224,48.99,10.69,28.98,1
3225,49.0,4.84,7.9,1
3226,49.01,-5.88,-34.68,1
3227,49.03,-5.95,16.35,1
3228,49.04,-9.16,-12.05,1
3229,49.05,-11.84,-61.71,1
3230,49.06,5.66,-0.06,1
3231,49.08,9.94,-4.5,1
3232,49.09,-9.31,-46.6,1
3233,49.1,-8.02,1.6,1
3234,49.12,5.69,-13.39,1
3235,49.13,5.9,-54.52,1
3236,49.14,8.54,0.29,1
3237,49.16,7.2,-7.4,1
3238,49.17,-8.3,-50.9,1
3239,49.19,-13.62,-5.31,1
3240,49.2,-4.43,-13.85,1
3241,49.21,10.16,-56.96,1
3242,49.22,23.85,-22.48,1
3243,49.24,12.89,-42.54,1
3244,49.25,-12.97,-78.28,1
3245,49.27,-12.77,-19.0,1
3246,49.28,-1.3,-21.73,1
3247,49.29,-10.36,-61.96,1
3248,49.31,-16.1,-12.61,1
3249,49.32,-2.17,-15.82,1
3250,49.33,5.4,-59.54,1
3251,49.35,-6.21,-22.27,1
3252,49.36,-19.1,-27.45,1
3253,49.37,-11.42,-54.57,1
3254,49.38,9.06,0.65,1
3255,49.4,12.14,-8.17,1
3256,49.41,1.5,-57.09,1
3257,49.43,-1.18,-9.52,1
3258,49.44,-5.56,-3.55,1
3259,49.45,-11.6,-47.01,1
3260,49.47,0.49,-11.77,1
3261,49.48,13.0,-9.73,1
3262,49.49,4.19,-44.85,1
3263,49.51,-4.73,-4.06,1
3264,49.52,0.01,1.3,1
3265,49.53,11.07,-29.17,1
3266,49.54,24.58,11.84,1
3267,49.56,28.23,7.3,1
3268,49.57,17.57,-40.88,1
3269,49.59,4.01,-10.56,1
3270,49.6,-15.52,-8.97,1
3271,49.61,-31.01,-46.74,1
3272,49.63,-14.91,-11.95,1
3273,49.64,11.54,-7.47,1
3274,49.65,15.4,-41.49,1
3275,49.67,10.87,-0.58,1
3276,49.68,3.68,10.62,1
3277,49.69,-14.55,-22.1,1
3278,49.7,-24.76,13.61,1
3279,49.72,-20.11,13.24,1
3280,49.73,-10.07,-30.65,1
3281,49.74,5.09,5.55,1
3282,49.76,11.34,10.63,1
3283,49.77,2.37,-40.61,1
3284,49.78,-0.7,-10.39,1
3285,49.8,0.33,10.3,1
3286,49.81,-4.74,-25.62,1
3287,49.83,1.29,2.64,1
3288,49.84,15.95,21.77,1
3289,49.85,17.1,-13.97,1
3290,49.87,4.37,1.02,1
3291,49.88,-12.5,6.92,1
3292,49.89,-13.72,-17.23,1
3293,49.9,5.45,24.91,1
3294,49.92,9.76,37.01,1
3295,49.93,-1.7,-13.9,1
3296,49.95,3.35,7.9,1
3297,49.96,3.99,35.85,1
3298,49.97,-17.65,1.0,1
3299,49.99,-23.59,3.57,1
3300,50.0,-6.53,7.35,1
3301,50.01,8.15,-15.69,1
3302,50.03,24.3,23.41,1
3303,50.04,30.88,45.31,1
3304,50.05,11.83,5.98,1
3305,50.06,-1.69,21.71,1
3306,50.08,-0.36,32.92,1
3307,50.09,-6.37,-12.62,1
3308,50.11,-7.82,6.67,1
3309,50.12,2.01,32.78,1
3310,50.13,7.79,-23.77,1
3311,50.15,7.81,-57.6,1
3312,50.16,-1.49,-77.53,0
3313,50.17,-8.85,-129.37,0
3314,50.19,10.53,-127.07,0
3315,50.2,33.55,-117.16,0
3316,50.21,37.93,-143.71,0
3317,50.22,45.01,-108.73,0
3318,50.24,39.67,-80.46,0
3319,50.25,1.62,-112.06,0
3320,50.27,-20.52,-66.32,0
3321,50.28,-3.57,0.19,0
3322,50.29,6.27,-13.31,0
3323,50.31,-4.7,15.61,0
3324,50.32,-9.01,71.12,0
3325,50.33,-10.49,62.89,0
3326,50.34,-24.81,88.68,0
3327,50.36,-42.9,129.52,0
3328,50.37,-49.98,109.19,0
3329,50.38,-41.26,129.7,0
3330,50.4,-25.7,160.16,0
3331,50.41,-13.86,116.88,0
3332,50.42,-1.04,120.9,0
3333,50.44,14.57,155.73,0
3334,50.45,16.59,123.3,0
3335,50.46,-1.33,137.2,0
3336,50.48,-22.39,182.04,0
3337,50.49,-21.51,142.23,0
3338,50.51,2.16,123.33,0
3339,50.52,7.11,133.56,0
3340,50.53,-15.37,78.31,0
3341,50.54,-16.97,64.26,0
3342,50.56,-1.42,89.51,1
3343,50.57,-3.48,45.11,1
3344,50.59,-2.94,30.76,1
3345,50.6,9.03,47.03,1
3346,50.61,9.65,-2.82,1
3347,50.63,4.54,1.81,1
3348,50.64,-5.95,55.12,1
3349,50.65,-24.26,19.15,1
3350,50.67,-21.69,1.49,1
3351,50.68,-2.03,31.68,1
3352,50.69,7.15,0.21,1
3353,50.71,15.1,4.13,1
3354,50.72,15.88,40.76,1
3355,50.73,-2.65,-11.58,1
3356,50.75,-6.17,-29.78,1
3357,50.76,7.31,8.73,1
3358,50.77,3.48,-28.91,1
3359,50.79,-2.73,-37.94,1
3360,50.8,4.16,1.98,1
3361,50.81,8.3,-41.56,1
3362,50.83,13.92,-55.62,1
3363,50.84,15.63,-10.72,1
3364,50.85,0.25,-48.61,1
3365,50.87,-1.81,-61.43,1
3366,50.88,11.95,-12.98,1
3367,50.89,4.58,-50.01,1
3368,50.9,-0.11,-69.52,1
3369,50.92,16.98,-26.08,1
3370,50.93,13.63,-59.18,1
3371,50.95,-0.66,-67.55,1
3372,50.96,6.88,-14.79,1
3373,50.97,10.0,-49.6,1
3374,50.98,1.88,-65.0,1
3375,51.0,-1.06,-15.38,1
3376,51.01,-3.21,-53.65,1
3377,51.02,3.07,-71.57,1
3378,51.04,8.54,-17.24,1
3379,51.05,-0.37,-51.11,1
3380,51.06,4.66,-69.41,1
3381,51.08,13.93,-12.53,1
3382,51.09,-3.8,-41.52,1
3383,51.1,-10.66,-61.15,1
3384,51.12,10.58,-14.3,1
3385,51.13,13.37,-56.92,1
3386,51.15,-0.83,-77.91,1
3387,51.16,-5.62,-9.82,1
3388,51.17,-15.12,-32.04,1
3389,51.19,-21.25,-57.72,1
3390,51.2,-4.37,-4.32,1
3391,51.21,14.09,-30.65,1
3392,51.22,20.34,-52.76,1
3393,51.24,13.92,4.52,1
3394,51.25,-3.35,-20.71,1
3395,51.27,-4.28,-48.32,1
3396,51.28,8.61,-0.03,1
3397,51.29,2.84,-26.97,1
3398,51.31,-3.45,-44.47,1
3399,51.32,7.27,12.53,1
3400,51.33,10.09,-21.41,1
3401,51.35,7.34,-50.51,1
3402,51.36,6.97,6.78,1
3403,51.37,-2.58,-21.84,1
3404,51.38,-7.87,-45.84,1
3405,51.4,-7.33,21.4,1
3406,51.41,-13.92,-4.54,1
3407,51.43,-7.22,-42.79,1
3408,51.44,5.2,12.48,1
3409,51.45,-7.87,-7.31,1
3410,51.47,-17.02,-35.66,1
3411,51.48,-6.02,20.75,1
3412,51.49,-7.32,2.62,1
3413,51.51,-7.59,-21.13,1
3414,51.52,8.22,31.86,1
3415,51.53,6.44,2.38,1
3416,51.54,-7.55,-26.2,1
3417,51.56,-7.41,32.75,1
3418,51.57,-7.2,4.52,1
3419,51.59,-4.48,-30.74,1
3420,51.6,5.6,32.67,1
3421,51.61,1.73,17.24,1
3422,51.62,-2.39,-20.46,1
3423,51.64,3.11,29.91,1
3424,51.65,-5.02,13.46,1
3425,51.66,-9.93,-16.75,1
3426,51.68,4.14,32.17,1
3427,51.69,10.96,6.1,1
3428,51.7,14.65,-28.21,1
3429,51.72,21.47,29.9,1
3430,51.73,7.46,20.23,1
3431,51.74,-10.7,-5.38,1
3432,51.76,-7.94,45.18,1
3433,51.77,-1.25,18.15,1
3434,51.79,3.49,-17.95,1
3435,51.8,0.89,38.84,1
3436,51.81,-18.1,23.57,1
3437,51.83,-18.04,-9.43,1
3438,51.84,4.98,42.91,1
3439,51.85,0.08,22.32,1
3440,51.87,-18.96,-12.83,1
3441,51.88,-10.95,40.05,1
3442,51.89,2.12,17.8,1
3443,51.9,2.7,-19.04,1
3444,51.92,-0.66,38.28,1
3445,51.93,-9.35,19.68,1
3446,51.95,-8.91,-19.82,1
3447,51.96,1.94,39.43,1
3448,51.97,-1.96,26.44,1
3449,51.99,-4.92,-14.94,1
3450,52.0,6.62,42.69,1
3451,52.01,4.74,37.79,1
3452,52.03,-2.69,-3.52,1
3453,52.04,-0.01,36.19,1
3454,52.05,-4.79,20.18,1
3455,52.06,-2.04,-10.31,1
3456,52.08,8.32,41.9,1
3457,52.09,-10.02,24.13,1
3458,52.11,-22.32,-13.24,1
3459,52.12,4.86,38.63,1
3460,52.13,18.94,20.37,1
3461,52.15,8.44,-23.18,1
3462,52.16,1.59,29.52,2
3463,52.17,-12.49,24.81,2
3464,52.19,-18.75,-4.49,2
3465,52.2,0.26,69.8,2
3466,52.21,11.93,115.82,2
3467,52.22,15.94,145.41,2
3468,52.24,26.29,228.24,2
3469,52.25,16.38,221.27,2
3470,52.26,0.62,183.68,2
3471,52.28,11.09,216.89,2
3472,52.29,19.72,160.27,2
3473,52.3,17.34,57.23,2
3474,52.32,14.31,47.84,2
3475,52.33,-7.53,-2.43,2
3476,52.34,-22.25,-87.29,2
3477,52.36,-11.79,-92.57,2
3478,52.37,-20.82,-135.79,2
3479,52.38,-34.72,-194.57,2
3480,52.4,-18.42,-157.51,2
3481,52.41,-10.49,-153.48,2
3482,52.43,-17.19,-175.83,2
3483,52.44,-10.41,-124.72,2
3484,52.45,-5.69,-127.65,2
3485,52.47,-0.14,-165.04,2
3486,52.48,11.56,-114.32,2
3487,52.49,2.13,-94.88,2
3488,52.51,-2.49,-108.1,2
3489,52.52,20.48,-50.63,2
3490,52.53,24.61,-44.02,2
3491,52.54,12.01,-89.41,2
3492,52.56,12.59,-64.97,1
3493,52.57,2.41,-60.95,1
3494,52.59,-7.28,-79.32,1
3495,52.6,8.63,-34.14,1
3496,52.61,13.03,-36.26,1
3497,52.63,-0.16,-68.03,1
3498,52.64,-4.19,-16.12,1
3499,52.65,-7.1,-3.21,1
3500,52.67,-2.34,-42.21,1
3501,52.68,9.21,-11.61,1
3502,52.69,1.9,-2.77,1
3503,52.71,3.3,-34.28,1
3504,52.72,23.03,-3.3,1
3505,52.73,12.3,5.07,1
3506,52.75,-5.9,-22.38,1
3507,52.76,7.6,7.18,1
3508,52.77,11.04,5.97,1
3509,52.79,-2.62,-24.58,1
3510,52.8,-5.88,21.78,1
3511,52.81,-12.28,39.59,1
3512,52.83,-8.71,0.56,1
3513,52.84,12.11,25.86,1
3514,52.85,9.08,41.39,1
3515,52.87,-0.78,10.7,1
3516,52.88,11.6,35.39,1
3517,52.89,9.45,43.67,1
3518,52.9,-1.51,8.08,1
3519,52.92,7.76,35.71,1
3520,52.93,7.74,51.2,1
3521,52.94,-0.42,14.91,1
3522,52.96,3.11,32.76,1
3523,52.97,-7.63,41.14,1
3524,52.98,-23.37,1.88,1
3525,53.0,-22.72,23.66,1
3526,53.01,-25.73,49.2,1
3527,53.02,-16.1,24.06,1
3528,53.04,11.6,35.87,1
3529,53.05,9.18,36.62,1
3530,53.06,-7.93,2.45,1
3531,53.08,-3.62,33.88,1
3532,53.09,-6.19,57.92,1
3533,53.11,-6.93,20.49,1
3534,53.12,13.25,31.64,1
3535,53.13,10.29,47.83,1
3536,53.15,-10.48,17.63,1
3537,53.16,-11.59,35.64,1
3538,53.17,-13.15,51.19,1
3539,53.19,-10.07,14.8,1
3540,53.2,8.3,31.53,1
3541,53.21,0.26,50.66,1
3542,53.22,-16.36,11.9,1
3543,53.24,-3.68,28.64,1
3544,53.25,0.61,57.86,1
3545,53.27,-1.29,23.8,1
3546,53.28,20.55,31.49,1
3547,53.29,25.13,49.29,1
3548,53.31,5.77,8.09,1
3549,53.32,3.22,17.08,1
3550,53.33,2.99,43.01,1
3551,53.35,-5.59,4.1,1
3552,53.36,-4.01,12.88,1
3553,53.37,-3.67,44.42,1
3554,53.38,-1.76,6.87,1
3555,53.4,8.93,11.48,1
3556,53.41,-1.29,35.43,1
3557,53.43,-18.69,-14.11,1
3558,53.44,-8.08,-9.63,1
3559,53.45,6.71,34.79,1
3560,53.47,13.14,-3.52,1
3561,53.48,16.09,-10.28,1
3562,53.49,-2.08,32.09,1
3563,53.51,-17.5,2.98,1
3564,53.52,-7.63,-19.86,1
3565,53.53,-9.68,-8.41,1
3566,53.54,-21.15,-31.35,1
3567,53.56,-12.26,-13.11,1
3568,53.57,-6.02,19.11,1
3569,53.58,-1.69,-18.51,1
3570,53.6,19.01,-10.23,1
3571,53.61,25.95,26.94,1
3572,53.62,18.98,-18.95,1
3573,53.64,17.19,-23.65,1
3574,53.65,0.23,24.25,1
3575,53.66,-11.24,-4.78,1
3576,53.68,6.23,-12.5,1
3577,53.69,6.06,24.6,1
3578,53.7,-11.87,-12.76,1
3579,53.72,-6.01,-32.08,1
3580,53.73,1.49,-4.47,1
3581,53.75,-2.3,-33.82,1
3582,53.76,0.65,-22.68,1
3583,53.77,-0.05,32.38,1
3584,53.79,3.4,-6.97,1
3585,53.8,17.48,-29.28,1
3586,53.81,10.98,5.89,1
3587,53.83,-0.19,-35.59,1
3588,53.84,8.77,-48.71,1
3589,53.85,6.88,2.66,1
3590,53.87,0.9,-29.55,1
3591,53.88,14.27,-41.9,1
3592,53.89,11.88,13.97,1
3593,53.9,-12.67,-11.14,1
3594,53.92,-27.57,-25.83,1
3595,53.93,-34.74,17.22,1
3596,53.95,-26.07,-19.24,1
3597,53.96,4.03,-31.98,1
3598,53.97,15.64,21.78,1
3599,53.99,3.96,-12.08,1
3600,54.0,-4.84,-32.37,1
3601,54.01,-19.48,13.32,1
3602,54.03,-26.64,-28.04,1
3603,54.04,-1.35,-50.05,1
3604,54.05,23.33,8.71,1
3605,54.06,19.93,-17.79,1
3606,54.08,3.72,-42.14,1
3607,54.09,-14.31,4.5,1
3608,54.11,-16.42,-24.78,1
3609,54.12,3.35,-42.36,1
3610,54.13,9.72,5.92,1
3611,54.15,2.51,-27.23,1
3612,54.16,9.76,-34.22,2
3613,54.17,11.15,36.69,2
3614,54.18,-1.49,-2.71,2
3615,54.2,-4.78,-55.57,2
3616,54.21,-3.45,-38.54,2
3617,54.22,4.34,-74.45,2
3618,54.24,18.88,39.77,2
3619,54.25,14.67,316.67,2
3620,54.26,11.71,292.27,2
3621,54.28,33.33,65.15,2
3622,54.29,33.09,61.78,2
3623,54.3,0.87,100.12,2
3624,54.32,-13.86,17.8,2
3625,54.33,-7.62,34.79,2
3626,54.34,3.76,151.85,2
3627,54.36,15.59,215.84,2
3628,54.37,7.07,148.83,2
3629,54.38,-12.93,-13.53,2
3630,54.4,-26.75,-80.68,2
3631,54.41,-34.95,-71.66,2
3632,54.43,-10.78,-123.22,2
3633,54.44,30.14,-105.37,2
3634,54.45,22.47,-33.88,2
3635,54.47,-6.41,-117.62,2
3636,54.48,2.43,-226.92,2
3637,54.49,9.23,-172.76,2
3638,54.51,-4.97,-76.12,2
3639,54.52,-9.57,-44.68,2
3640,54.53,-30.76,-102.62,2
3641,54.54,-48.75,-220.9,2
3642,54.56,-8.29,-172.28,1
3643,54.57,25.48,-6.83,1
3644,54.59,3.91,-50.4,1
3645,54.6,-5.87,-151.21,1
3646,54.61,18.81,-100.31,1
3647,54.63,27.11,-73.24,1
3648,54.64,2.54,-39.84,1
3649,54.65,-18.06,19.73,1
3650,54.67,-7.55,-82.91,1
3651,54.68,8.36,-138.03,1
3652,54.69,0.83,4.84,1
3653,54.71,-9.37,25.19,1
3654,54.72,-5.16,-59.71,1
3655,54.73,-9.21,-21.04,1
3656,54.75,-17.76,-8.67,1
3657,54.76,-4.07,-43.19,1
3658,54.77,9.92,-1.65,1
3659,54.79,0.57,-13.18,1
3660,54.8,-12.79,-42.41,1
3661,54.81,-16.52,28.69,1
3662,54.82,-12.68,41.2,1
3663,54.84,-11.3,-12.98,1
3664,54.85,-21.51,-16.8,1
3665,54.86,-20.12,-13.35,1
3666,54.88,1.67,42.4,1
3667,54.89,6.98,96.86,1
3668,54.9,-2.17,-21.54,1
3669,54.92,2.27,-90.19,1
3670,54.93,-2.67,46.71,1
3671,54.94,-15.86,99.36,1
3672,54.96,-2.63,49.26,1
3673,54.97,11.37,71.98,1
3674,54.98,2.66,53.25,1
3675,55.0,1.38,15.91,1
3676,55.01,8.5,71.65,1
3677,55.025000000000006,9.89,78.69,1
3678,55.04,15.19,49.28,1
3679,55.05,13.93,52.97,1
3680,55.06,3.06,-7.87,1
3681,55.08,-0.33,-2.07,1
3682,55.09,-4.59,86.09,1
3683,55.11,-5.73,-11.49,1
3684,55.12,3.67,-121.71,1
3685,55.13,3.8,-12.96,1
3686,55.15,6.05,50.32,1
3687,55.16,17.5,18.01,1
3688,55.17,0.07,54.63,1
3689,55.19,-27.54,47.44,1
3690,55.2,-11.73,31.32,1
3691,55.21,12.8,113.76,1
3692,55.22,5.37,109.92,1
3693,55.24,7.07,15.97,1
3694,55.25,27.05,-15.13,1
3695,55.27,24.36,-42.96,1
3696,55.28,3.06,-17.55,1
3697,55.29,-12.93,99.11,1
3698,55.31,-12.04,73.98,1
3699,55.32,11.1,-44.59,1
3700,55.33,31.97,-19.33,1
3701,55.35,31.9,43.51,1
3702,55.36,18.4,63.99,1
3703,55.37,-5.93,78.43,1
3704,55.38,-19.95,3.94,1
3705,55.4,-8.13,-23.3,1
3706,55.41,-4.68,114.17,1
3707,55.43,-13.24,145.68,1
3708,55.44,-1.33,38.33,1
3709,55.45,4.22,44.55,1
3710,55.46,-16.35,88.2,1
3711,55.48,-21.44,46.79,1
3712,55.49,-10.03,9.75,1
3713,55.5,-4.64,-31.55,1
3714,55.52,4.35,-36.3,1
3715,55.53,-1.2,59.91,1
3716,55.54,-19.7,73.84,1
3717,55.56,2.84,-17.69,1
3718,55.57,37.03,-35.57,1
3719,55.58,20.54,-19.03,1
3720,55.6,-6.29,-2.08,1
3721,55.61,-4.86,44.5,1
3722,55.62,-1.61,3.36,1
3723,55.64,-5.08,-85.4,1
3724,55.65,-4.75,-70.38,1
3725,55.66,4.2,-35.29,1
3726,55.68,17.43,-28.25,1
3727,55.69,10.54,-8.22,1
3728,55.71,-13.53,-49.33,1
3729,55.72,-19.09,-57.7,1
3730,55.73,-5.39,62.21,1
3731,55.75,4.53,80.4,1
3732,55.76,8.17,-45.7,1
3733,55.77,7.46,-80.38,1
3734,55.79,-1.36,-33.86,1
3735,55.8,-21.79,-8.43,1
3736,55.81,-45.39,21.34,1
3737,55.83,-36.25,-23.23,1
3738,55.84,10.73,-138.41,1
3739,55.85,35.63,-102.89,1
3740,55.87,21.95,63.16,1
3741,55.88,12.84,133.92,1
3742,55.89,1.05,74.8,1
3743,55.9,-23.88,-31.44,1
3744,55.92,-15.82,-59.03,1
3745,55.93,19.31,26.33,1
3746,55.95,28.16,34.43,1
3747,55.96,17.95,-34.62,1
3748,55.97,15.96,11.85,1
3749,55.99,14.0,81.53,1
3750,56.0,10.6,30.75,1
3751,56.01,8.39,-33.32,1
3752,56.03,-2.05,-40.17,1
3753,56.04,-8.76,-26.36,1
3754,56.05,-1.82,-7.38,1
3755,56.06,3.26,-19.3,1
3756,56.08,-4.57,-6.83,1
3757,56.09,-25.9,79.84,1
3758,56.1,-31.38,55.08,1
3759,56.12,3.68,-90.41,1
3760,56.13,31.34,-85.76,1
3761,56.14,19.54,32.21,1
3762,56.16,5.82,53.57,0
3763,56.17,-1.93,34.77,0
3764,56.18,-15.82,47.59,0
3765,56.2,-13.9,50.33,0
3766,56.21,0.32,28.69,0
3767,56.22,3.54,-39.09,0
3768,56.24,5.13,-79.42,0
3769,56.25,8.38,-1.71,0
3770,56.26,0.76,46.53,0
3771,56.28,-6.63,-3.11,0
3772,56.29,-1.27,12.37,0
3773,56.3,7.58,67.05,0
3774,56.32,9.64,54.05,0
3775,56.33,-4.63,30.17,0
3776,56.35,-26.26,-34.74,0
3777,56.36,-18.56,-155.8,0
3778,56.37,10.12,-200.49,0
3779,56.38,16.47,-219.27,0
3780,56.4,4.63,-297.1,0
3781,56.41,-9.2,-301.15,0
3782,56.43,-21.06,-229.61,0
3783,56.44,-18.64,-183.02,0
3784,56.45,-13.77,-107.91,0
3785,56.47,-6.49,-33.48,0
3786,56.48,25.92,-16.46,0
3787,56.49,44.73,32.6,0
3788,56.51,10.45,70.16,0
3789,56.52,-29.74,38.88,0
3790,56.53,-37.7,65.99,0
3791,56.54,-26.92,108.72,0
3792,56.56,-3.55,69.76,1
3793,56.57,16.81,80.17,1
3794,56.59,14.53,124.03,1
3795,56.6,6.68,79.86,1
3796,56.61,-0.38,58.81,1
3797,56.63,-18.35,79.61,1
3798,56.64,-22.26,46.69,1
3799,56.65,-0.27,54.99,1
3800,56.67,16.64,96.45,1
3801,56.68,22.76,65.18,1
3802,56.69,24.8,65.37,1
3803,56.71,11.49,102.73,1
3804,56.72,-6.25,71.67,1
3805,56.73,-16.81,65.86,1
3806,56.74,-26.35,87.63,1
3807,56.76,-25.75,45.11,1
3808,56.77,-15.43,52.16,1
3809,56.78,-6.28,98.8,1
3810,56.8,11.26,53.93,1
3811,56.81,23.84,35.81,1
3812,56.82,7.92,71.6,1
3813,56.84,-10.3,31.74,1
3814,56.85,-11.22,11.94,1
3815,56.86,-12.16,40.61,1
3816,56.88,-7.36,9.46,1
3817,56.89,8.77,8.95,1
3818,56.9,14.3,36.15,1
3819,56.92,9.88,-18.3,1
3820,56.93,5.14,-24.89,1
3821,56.94,-3.08,25.21,1
3822,56.96,1.83,-14.9,1
3823,56.97,21.05,-23.63,1
3824,56.99,22.52,35.57,1
3825,57.0,8.1,4.09,1
3826,57.01,0.76,-20.58,1
3827,57.03,0.02,21.65,1
3828,57.04,4.3,-0.36,1
3829,57.05,10.25,-3.91,1
3830,57.06,12.63,43.86,1
3831,57.08,18.45,3.88,1
3832,57.09,12.43,-23.19,1
3833,57.11,-17.62,15.69,1
3834,57.12,-30.96,-20.25,1
3835,57.13,-14.93,-38.97,1
3836,57.15,-6.62,4.81,1
3837,57.16,-4.3,-32.24,1
3838,57.17,4.02,-40.65,1
3839,57.19,0.45,25.25,1
3840,57.2,-8.95,-11.5,1
3841,57.21,-13.8,-49.61,1
3842,57.22,-18.91,-4.76,1
3843,57.24,-9.33,-26.91,1
3844,57.25,5.79,-37.47,1
3845,57.27,0.49,10.63,1
3846,57.28,1.48,-31.07,1
3847,57.29,18.94,-50.92,1
3848,57.31,19.7,8.75,1
3849,57.32,13.47,-27.16,1
3850,57.33,13.94,-58.97,1
3851,57.35,3.18,-4.45,1
3852,57.36,-0.57,-29.81,1
3853,57.37,12.02,-55.99,1
3854,57.38,4.86,-7.09,1
3855,57.4,-11.22,-35.45,1
3856,57.41,-6.38,-54.78,1
3857,57.42,-0.55,0.61,1
3858,57.44,0.98,-35.07,1
3859,57.45,8.3,-60.9,1
3860,57.46,7.04,9.94,1
3861,57.48,2.09,-9.87,1
3862,57.49,4.72,-47.3,1
3863,57.5,1.2,3.58,1
3864,57.52,-5.15,-16.36,1
3865,57.53,-4.23,-45.04,1
3866,57.54,-0.09,-0.04,1
3867,57.56,14.65,-33.68,1
3868,57.57,24.57,-60.13,1
3869,57.58,1.51,1.44,1
3870,57.6,-19.56,-24.15,1
3871,57.61,-11.01,-55.84,1
3872,57.625,-7.55,5.62,1
3873,57.64,-9.06,-8.0,1
3874,57.65,1.59,-34.08,1
3875,57.67,2.72,13.28,1
3876,57.68,-0.5,-23.44,1
3877,57.69,1.94,-57.83,1
3878,57.71,-8.54,5.91,1
3879,57.72,-13.34,-10.36,1
3880,57.73,0.22,-42.82,1
3881,57.75,3.23,12.79,1
3882,57.76,7.81,-4.89,1
3883,57.77,23.7,-34.33,1
3884,57.79,11.28,21.85,1
3885,57.8,-13.66,4.06,1
3886,57.81,-12.05,-26.54,1
3887,57.83,-7.6,23.75,1
3888,57.84,-9.62,-4.53,1
3889,57.85,-6.49,-45.47,1
3890,57.87,-12.51,4.41,1
3891,57.88,-14.7,-7.42,1
3892,57.89,-2.61,-23.3,1
3893,57.9,-4.51,36.65,1
3894,57.92,-13.38,7.46,1
3895,57.93,-8.89,-31.67,1
3896,57.95,-7.46,26.67,1
3897,57.96,-9.15,10.09,1
3898,57.97,-9.37,-22.87,1
3899,57.99,-18.63,34.32,1
3900,58.0,-15.0,13.16,1
3901,58.01,5.0,-30.09,1
3902,58.02,5.32,15.66,1
3903,58.04,0.15,-6.0,1
3904,58.05,8.05,-29.76,1
3905,58.06,2.38,45.88,1
3906,58.08,-5.38,32.48,1
3907,58.09,-0.57,-18.25,1
3908,58.1,-5.88,30.64,1
3909,58.12,-0.57,21.48,1
3910,58.13,20.32,-17.31,1
3911,58.14,8.25,24.97,1
3912,58.16,-8.46,10.2,0
3913,58.17,9.92,-18.27,0
3914,58.18,14.22,17.51,0
3915,58.2,-2.08,-44.1,0
3916,58.21,-6.43,-122.11,0
3917,58.22,-8.21,-91.12,0
3918,58.24,6.28,-118.32,0
3919,58.25,28.71,-154.1,0
3920,58.26,7.69,-85.7,0
3921,58.28,-17.08,-91.0,0
3922,58.29,3.29,-130.84,0
3923,58.31,16.31,-65.61,0
3924,58.32,8.49,-47.14,0
3925,58.33,9.21,-64.36,0
3926,58.35,-0.82,0.43,0
3927,58.36,-9.3,22.42,0
3928,58.37,15.41,28.11,0
3929,58.38,40.7,105.25,0
3930,58.4,35.65,101.26,0
3931,58.41,14.13,65.53,0
3932,58.43,3.56,130.75,0
3933,58.44,21.24,139.28,0
3934,58.45,24.47,100.37,0
3935,58.47,-26.07,141.48,0
3936,58.48,-56.79,130.04,0
3937,58.49,-41.79,85.86,0
3938,58.51,-75.57,136.91,0
3939,58.52,-105.01,152.15,0
3940,58.53,-30.23,130.59,0
3941,58.54,19.5,167.38,0
3942,58.56,-22.28,135.44,1
3943,58.57,-31.04,71.02,1
3944,58.59,-7.17,103.94,1
3945,58.6,-15.89,103.34,1
3946,58.61,-14.01,62.2,1
3947,58.63,13.94,89.09,1
3948,58.64,31.97,75.45,1
3949,58.65,35.74,33.2,1
3950,58.66,28.05,62.1,1
3951,58.68,24.45,35.25,1
3952,58.69,28.01,-26.95,1
3953,58.7,10.35,12.27,1
3954,58.72,-3.69,32.1,1
3955,58.73,9.52,6.81,1
3956,58.74,8.03,39.13,1
3957,58.76,-3.68,27.2,1
3958,58.77,3.0,-21.54,1
3959,58.78,6.32,8.01,1
3960,58.8,12.43,7.12,1
3961,58.81,27.43,-32.78,1
3962,58.82,14.42,-2.47,1
3963,58.84,-2.25,-5.64,1
3964,58.85,14.53,-46.74,1
3965,58.86,25.4,-12.04,1
3966,58.88,21.33,-9.33,1
3967,58.89,25.84,-53.53,1
3968,58.9,21.61,-19.14,1
3969,58.92,16.07,-2.56,1
3970,58.93,22.48,-40.82,1
3971,58.95,12.56,-22.79,1
3972,58.96,-4.14,-25.99,1
3973,58.97,-3.79,-68.69,1
3974,58.99,-5.57,-38.43,1
3975,59.0,-8.31,-25.83,1
3976,59.01,-3.43,-64.78,1
3977,59.03,-5.69,-43.7,1
3978,59.04,3.66,-40.56,1
3979,59.05,24.97,-83.12,1
3980,59.06,14.9,-57.4,1
3981,59.08,-3.52,-38.5,1
3982,59.09,2.6,-65.25,1
3983,59.11,1.78,-35.94,1
3984,59.12,0.38,-22.86,1
3985,59.13,9.5,-59.43,1
3986,59.15,-7.33,-37.62,1
3987,59.16,-24.01,-24.45,1
3988,59.17,-3.95,-56.45,1
3989,59.19,11.53,-30.88,1
3990,59.2,9.99,-23.5,1
3991,59.21,6.35,-72.39,1
3992,59.22,-14.84,-49.93,1
3993,59.24,-29.48,-18.84,1
3994,59.25,-12.75,-47.84,1
3995,59.27,-1.1,-32.5,1
3996,59.28,-0.68,-20.13,1
3997,59.29,2.41,-59.76,1
3998,59.3,-10.31,-41.79,1
3999,59.32,-16.69,-18.52,1
4000,59.33,0.5,-50.91,1
4001,59.34,-1.78,-29.82,1
4002,59.36,-14.01,0.51,1
4003,59.37,-4.53,-29.72,1
4004,59.38,-2.59,-19.62,1
4005,59.4,-9.73,0.29,1
4006,59.41,-8.26,-28.9,1
4007,59.42,-13.41,-15.11,1
4008,59.44,-8.88,-0.52,1
4009,59.45,11.52,-38.56,1
4010,59.46,9.84,-19.63,1
4011,59.48,3.26,11.39,1
4012,59.49,10.5,-20.68,1
4013,59.5,-4.32,-6.94,1
4014,59.52,-16.42,19.72,1
4015,59.53,3.94,-16.66,1
4016,59.54,5.73,-3.95,1
4017,59.56,-13.39,26.76,1
4018,59.57,-14.02,-13.27,1
4019,59.59,-16.8,-9.24,1
4020,59.6,-22.71,22.86,1
4021,59.61,-9.52,-13.06,1
4022,59.63,-2.79,-8.16,1
4023,59.64,-5.82,30.39,1
4024,59.65,-0.25,-1.17,1
4025,59.67,-1.47,-1.57,1
4026,59.68,-1.43,31.29,1
4027,59.69,9.23,-1.69,1
4028,59.71,1.3,-0.04,1
4029,59.72,-7.7,34.49,1
4030,59.73,8.93,-2.22,1
4031,59.75,9.72,-2.67,1
4032,59.76,-8.34,36.83,1
4033,59.77,-3.33,4.08,1
4034,59.79,5.9,-0.2,1
4035,59.8,3.41,30.44,1
4036,59.81,6.42,-6.2,1
4037,59.83,-1.36,0.51,1
4038,59.84,-14.84,49.23,1
4039,59.85,-7.44,13.84,1
4040,59.87,-0.72,3.2,1
4041,59.88,-1.08,41.28,1
4042,59.89,5.42,6.85,1
4043,59.9,0.02,-5.36,1
4044,59.92,-7.69,31.13,1
4045,59.93,0.73,4.95,1
4046,59.94,0.05,5.38,1
4047,59.96,-1.11,42.44,1
4048,59.97,13.67,3.69,1
4049,59.98,9.22,0.16,1
4050,60.0,-6.73,45.89,1
4051,60.01,-1.39,6.39,1
4052,60.02,-1.88,-7.47,1
4053,60.04,-12.47,37.85,1
4054,60.05,-6.62,7.57,1
4055,60.06,-4.35,-0.87,1
4056,60.08,-11.26,38.93,1
4057,60.09,-6.54,-4.63,1
4058,60.1,-2.1,-15.53,1
4059,60.12,-0.17,41.68,1
4060,60.13,5.2,13.1,1
4061,60.14,-3.76,-0.41,1
4062,60.16,-10.51,49.49,2
4063,60.17,0.91,15.53,2
4064,60.18,0.17,-1.23,2
4065,60.2,-2.05,62.99,2
4066,60.21,13.71,77.2,2
4067,60.22,9.05,130.77,2
4068,60.24,-7.54,234.6,2
4069,60.25,4.92,209.58,2
4070,60.27,17.96,174.03,2
4071,60.28,19.22,210.01,2
4072,60.29,30.66,154.46,2
4073,60.31,22.39,93.0,2
4074,60.32,-7.05,97.92,2
4075,60.33,-9.94,16.15,2
4076,60.35,2.36,-60.78,2
4077,60.36,3.88,-48.64,2
4078,60.37,4.5,-101.51,2
4079,60.38,-2.06,-153.24,2
4080,60.4,-10.42,-131.99,2
4081,60.41,-3.1,-169.22,2
4082,60.43,0.6,-182.83,2
4083,60.44,-0.26,-125.17,2
4084,60.45,8.48,-154.12,2
4085,60.47,2.15,-170.63,2
4086,60.48,-12.34,-102.75,2
4087,60.49,-7.14,-120.27,2
4088,60.51,-4.11,-140.48,2
4089,60.52,-2.55,-73.13,2
4090,60.53,13.81,-74.07,2
4091,60.54,11.77,-82.41,2
4092,60.56,-8.1,-31.82,1
4093,60.57,-10.31,-65.7,1
4094,60.58,-7.94,-87.7,1
4095,60.6,-8.57,-26.03,1
4096,60.61,0.9,-54.65,1
4097,60.62,2.8,-84.48,1
4098,60.64,-2.81,-18.49,1
4099,60.65,0.7,-25.5,1
4100,60.66,-2.58,-39.72,1
4101,60.68,-9.7,20.54,1
4102,60.69,-3.83,-6.27,1
4103,60.7,-0.95,-38.0,1
4104,60.72,-2.19,19.49,1
4105,60.73,2.74,2.16,1
4106,60.74,3.7,-23.77,1
4107,60.76,10.03,24.42,1
4108,60.77,23.19,-7.26,1
4109,60.78,15.89,-27.89,1
4110,60.8,1.23,50.79,1
4111,60.81,0.4,41.84,1
4112,60.82,-3.35,7.44,1
4113,60.84,1.27,51.64,1
4114,60.85,22.5,21.45,1
4115,60.86,16.44,-8.06,1
4116,60.88,-10.58,55.13,1
4117,60.89,-9.73,38.15,1
4118,60.9,5.84,6.26,1
4119,60.92,11.54,57.99,1
4120,60.93,10.7,31.94,1
4121,60.95,1.59,2.69,1
4122,60.96,1.22,64.31,1
4123,60.97,13.24,36.61,1
4124,60.99,3.49,-3.27,1
4125,61.0,-14.31,64.29,1
4126,61.01,-3.76,51.17,1
4127,61.03,10.6,2.06,1
4128,61.04,10.22,45.41,1
4129,61.05,10.59,28.98,1
4130,61.06,4.39,-1.13,1
4131,61.08,-5.53,55.07,1
4132,61.09,-2.89,35.29,1
4133,61.11,-2.85,-4.44,1
4134,61.12,-6.31,47.46,1
4135,61.13,-0.81,28.68,1
4136,61.15,-5.35,-8.66,1
4137,61.16,-14.71,49.63,1
4138,61.17,-6.33,41.91,1
4139,61.19,0.29,11.55,1
4140,61.2,-2.87,65.85,1
4141,61.21,0.61,47.59,1
4142,61.22,3.01,7.33,1
4143,61.24,0.4,53.17,1
4144,61.25,-1.89,29.08,1
4145,61.26,-10.73,-7.33,1
4146,61.28,-16.96,53.8,1
4147,61.29,-10.63,40.81,1
4148,61.3,-10.6,-4.33,1
4149,61.32,-16.49,42.86,1
4150,61.33,-12.14,30.38,1
4151,61.34,-9.62,-11.75,1
4152,61.36,-6.91,32.22,1
4153,61.37,5.73,20.0,1
4154,61.38,1.47,-18.37,1
4155,61.4,-16.63,29.3,1
4156,61.41,-10.15,21.62,1
4157,61.42,6.59,-15.43,1
4158,61.44,7.68,31.22,1
4159,61.45,6.29,24.66,1
4160,61.46,5.14,-10.2,1
4161,61.48,3.06,32.46,1
4162,61.49,6.03,11.15,1
4163,61.5,1.96,-37.51,1
4164,61.52,-5.86,9.94,1
4165,61.53,-4.96,7.76,1
4166,61.54,-9.58,-28.23,1
4167,61.56,-11.04,25.61,1
4168,61.57,6.03,32.32,1
4169,61.59,9.63,-10.57,1
4170,61.6,-4.31,13.14,1
4171,61.61,-1.15,-2.45,1
4172,61.63,7.1,-41.5,1
4173,61.64,6.02,-4.84,1
4174,61.65,9.34,-14.8,1
4175,61.67,2.57,-45.73,1
4176,61.68,-10.96,7.04,1
4177,61.69,-2.03,0.53,1
4178,61.71,8.41,-42.06,1
4179,61.72,2.77,11.7,1
4180,61.73,4.8,14.6,1
4181,61.75,5.63,-42.52,1
4182,61.76,-4.51,-12.91,1
4183,61.77,1.54,-1.78,1
4184,61.79,13.5,-36.11,1
4185,61.8,3.81,-11.48,1
4186,61.81,-5.77,-15.43,1
4187,61.83,1.89,-40.79,1
4188,61.84,8.1,1.38,1
4189,61.85,5.69,-3.28,1
4190,61.86,1.16,-39.35,1
4191,61.88,0.02,2.48,1
4192,61.89,3.32,-0.73,1
4193,61.9,-0.37,-49.22,1
4194,61.92,-8.5,-14.23,1
4195,61.93,-4.56,-2.91,1
4196,61.94,2.09,-42.78,1
4197,61.96,5.65,-16.91,1
4198,61.97,15.18,-6.72,1
4199,61.98,15.46,-33.29,1
4200,62.0,3.86,-0.99,1
4201,62.01,2.11,-1.49,1
4202,62.02,1.29,-43.78,1
4203,62.04,-5.7,-12.2,1
4204,62.05,-3.06,3.08,1
4205,62.06,-2.87,-29.1,1
4206,62.08,-13.47,-6.63,1
4207,62.09,-13.21,-5.52,1
4208,62.1,-4.94,-36.12,1
4209,62.12,1.21,6.97,1
4210,62.13,11.11,23.72,1
4211,62.14,13.37,-24.7,1
4212,62.16,7.29,-14.32,2
4213,62.17,8.17,2.21,2
4214,62.19,0.69,-17.96,2
4215,62.2,-15.41,6.39,2
4216,62.21,-6.11,14.27,2
4217,62.22,19.51,5.79,2
4218,62.24,33.63,160.53,2
4219,62.25,36.22,356.86,2
4220,62.27,12.1,254.93,2
4221,62.28,-32.48,11.96,2
4222,62.29,-58.46,39.51,2
4223,62.31,-64.78,177.96,2
4224,62.32,-39.67,56.83,2
4225,62.33,17.8,-87.38,2
4226,62.35,25.22,88.73,2
4227,62.36,-20.31,223.67,2
4228,62.37,-14.28,-34.05,2
4229,62.38,33.3,-225.81,2
4230,62.4,30.86,-18.47,2
4231,62.41,-7.77,137.84,2
4232,62.43,-13.58,25.47,2
4233,62.44,21.22,-60.37,2
4234,62.45,48.54,-125.61,2
4235,62.47,27.53,-247.65,2
4236,62.48,-14.19,-235.64,2
4237,62.49,-19.24,-141.56,2
4238,62.5,-0.04,-119.0,2
4239,62.52,-1.8,-75.91,2
4240,62.53,-14.75,-30.02,2
4241,62.54,-16.84,-46.54,2
4242,62.56,-12.4,-31.98,1
4243,62.57,-4.26,-67.43,1
4244,62.58,-2.34,-190.17,1
4245,62.6,-13.84,-175.41,1
4246,62.61,-16.59,-88.4,1
4247,62.62,2.08,-104.64,1
4248,62.64,14.96,-102.27,1
4249,62.65,3.36,-89.7,1
4250,62.66,-7.55,-131.64,1
4251,62.68,2.67,-92.69,1
4252,62.69,11.41,-22.99,1
4253,62.7,-7.6,-31.07,1
4254,62.72,-29.67,1.73,1
4255,62.73,-14.74,32.94,1
4256,62.74,8.74,-46.14,1
4257,62.76,-3.49,-49.01,1
4258,62.77,-21.59,36.12,1
4259,62.78,-16.35,8.82,1
4260,62.8,-2.89,-34.01,1
4261,62.81,17.81,-34.49,1
4262,62.82,32.0,-88.17,1
4263,62.84,14.58,-67.0,1
4264,62.85,-6.67,22.61,1
4265,62.87,-1.55,16.25,1
4266,62.88,14.27,1.71,1
4267,62.89,21.23,2.08,1
4268,62.9,10.72,-29.06,1
4269,62.92,-5.3,26.49,1
4270,62.93,4.34,68.2,1
4271,62.95,28.58,-28.9,1
4272,62.96,24.31,-60.91,1
4273,62.97,-0.18,-1.73,1
4274,62.99,-13.39,19.75,1
4275,63.0,-13.3,88.95,1
4276,63.01,0.0,139.69,1
4277,63.03,10.65,59.44,1
4278,63.04,-1.06,44.36,1
4279,63.05,-7.24,102.38,1
4280,63.06,2.71,61.57,1
4281,63.08,-1.64,44.9,1
4282,63.09,-10.21,87.57,1
4283,63.11,0.29,50.59,1
4284,63.12,13.87,41.26,1
4285,63.13,11.83,84.73,1
4286,63.14,-10.52,37.87,1
4287,63.16,-27.85,-2.18,1
4288,63.17,-10.38,14.42,1
4289,63.18,5.69,-12.34,1
4290,63.2,-5.61,9.78,1
4291,63.21,0.01,75.42,1
4292,63.22,20.61,54.48,1
4293,63.24,15.6,58.87,1
4294,63.25,5.04,91.58,1
4295,63.26,7.32,30.76,1
4296,63.28,2.64,24.09,1
4297,63.29,-9.59,70.46,1
4298,63.3,-22.8,13.87,1
4299,63.32,-25.56,9.25,1
4300,63.33,2.27,85.91,1
4301,63.34,26.81,45.13,1
4302,63.36,13.27,-8.6,1
4303,63.37,2.21,31.14,1
4304,63.38,4.05,36.3,1
4305,63.4,-10.42,45.64,1
4306,63.41,-11.08,83.65,1
4307,63.42,6.98,30.06,1
4308,63.44,-1.15,-11.31,1
4309,63.45,-12.6,22.11,1
4310,63.46,1.59,-0.94,1
4311,63.48,9.33,0.5,1
4312,63.49,10.01,57.7,1
4313,63.51,20.65,13.65,1
4314,63.52,16.99,-33.71,1
4315,63.53,0.53,-15.7,1
4316,63.54,-4.2,-51.94,1
4317,63.56,-5.65,0.39,1
4318,63.57,-6.42,161.15,1
4319,63.59,-3.47,124.48,1
4320,63.6,-5.42,-9.96,1
4321,63.61,-0.11,-2.15,1
4322,63.63,1.66,-4.16,1
4323,63.64,-23.07,-6.36,1
4324,63.65,-34.99,75.37,1
4325,63.67,-11.36,53.61,1
4326,63.68,5.37,-10.35,1
4327,63.69,2.02,3.76,1
4328,63.71,-3.95,-31.06,1
4329,63.72,-12.61,-14.58,1
4330,63.73,-13.04,77.95,1
4331,63.75,2.01,-0.86,1
4332,63.76,7.9,-105.57,1
4333,63.77,5.69,-37.39,1
4334,63.78,8.6,-1.88,1
4335,63.8,0.28,-19.4,1
4336,63.81,-6.78,7.87,1
4337,63.82,5.6,-19.49,1
4338,63.84,12.4,-23.54,1
4339,63.85,7.67,25.6,1
4340,63.86,0.91,-43.21,1
4341,63.88,-11.21,-70.46,1
4342,63.89,-6.63,64.12,1
4343,63.9,15.83,77.44,1
4344,63.92,17.23,-32.76,1
4345,63.93,7.65,-48.34,1
4346,63.94,9.72,-30.32,1
4347,63.96,5.68,-8.43,1
4348,63.97,3.66,25.15,1
4349,63.98,9.29,-27.0,1
4350,64.0,-7.86,-42.25,1
4351,64.01,-24.63,29.22,1
4352,64.02,-7.18,-7.73,1
4353,64.04,5.49,-37.91,1
4354,64.05,-4.08,40.52,1
4355,64.06,-6.47,-7.77,1
4356,64.08,-4.72,-74.38,1
4357,64.09,-7.08,34.15,1
4358,64.1,-9.35,78.92,1
4359,64.12,-14.47,15.3,1
4360,64.13,-8.91,-6.71,1
4361,64.14,-1.0,-43.31,1
4362,64.16,-17.09,-37.96,0
4363,64.17,-22.8,22.23,0
4364,64.18,-0.56,-25.22,0
4365,64.2,7.41,-44.89,0
4366,64.21,9.13,52.88,0
4367,64.22,19.24,47.8,0
4368,64.24,8.02,19.74,0
4369,64.25,-7.38,88.93,0
4370,64.26,-4.14,39.73,0
4371,64.28,-6.05,-74.04,0
4372,64.29,-4.08,-76.71,0
4373,64.3,8.46,-124.61,0
4374,64.32,3.48,-211.14,0
4375,64.33,-0.99,-216.99,0
4376,64.34,11.25,-265.43,0
4377,64.36,11.69,-302.9,0
4378,64.37,5.69,-228.31,0
4379,64.38,3.15,-204.08,0
4380,64.4,-8.14,-182.36,0
4381,64.41,-3.13,-59.77,0
4382,64.42,18.17,-18.46,0
4383,64.44,12.76,-25.51,0
4384,64.45,1.39,49.17,0
4385,64.46,7.0,57.72,0
4386,64.48,-1.96,32.88,0
4387,64.49,-9.76,95.06,0
4388,64.5,-0.96,95.79,0
4389,64.52,-10.74,63.4,0
4390,64.53,-14.26,119.01,0
4391,64.54,14.47,115.77,0
4392,64.56,19.55,73.25,1
4393,64.57,-2.5,114.82,1
4394,64.58,-7.87,107.25,1
4395,64.6,-10.47,65.72,1
4396,64.61,-9.44,103.7,1
4397,64.62,9.89,87.76,1
4398,64.64,16.48,36.04,1
4399,64.65,11.69,73.99,1
4400,64.66,11.81,74.41,1
4401,64.68,0.15,36.42,1
4402,64.69,-5.13,67.33,1
4403,64.7,3.65,56.12,1
4404,64.72,-4.38,25.74,1
4405,64.73,-7.66,76.4,1
4406,64.74,4.74,69.75,1
4407,64.76,-8.57,21.75,1
4408,64.77,-20.35,58.01,1
4409,64.79,2.82,52.57,1
4410,64.8,12.44,4.88,1
4411,64.81,1.11,39.25,1
4412,64.82,-0.69,39.91,1
4413,64.84,-6.24,-0.7,1
4414,64.85,-3.98,36.44,1
4415,64.86,15.59,40.71,1
4416,64.88,11.81,2.01,1
4417,64.89,-5.75,35.82,1
4418,64.9,-3.32,32.26,1
4419,64.92,0.91,-20.55,1
4420,64.93,5.98,2.63,1
4421,64.94,15.67,8.79,1
4422,64.96,3.56,-22.99,1
4423,64.97,-11.11,10.05,1
4424,64.98,-5.48,10.63,1
4425,65.0,-12.38,-33.24,1
4426,65.01,-21.52,-3.87,1
4427,65.02,-2.34,12.07,1
4428,65.04,9.69,-12.8,1
4429,65.05,2.12,15.12,1
4430,65.06,0.84,10.25,1
4431,65.08,2.41,-35.22,1
4432,65.09,7.95,-13.63,1
4433,65.1,9.44,-11.86,1
4434,65.12,-10.63,-47.47,1
4435,65.13,-12.66,-15.85,1
4436,65.14,13.01,-6.16,1
4437,65.16,9.0,-40.2,1
4438,65.17,-11.58,-8.36,1
4439,65.18,-8.55,-1.61,1
4440,65.2,-5.47,-47.42,1
4441,65.21,-4.29,-20.21,1
4442,65.22,0.33,-3.71,1
4443,65.24,-14.88,-46.94,1
4444,65.25,-21.22,-27.53,1
4445,65.26,-0.74,-9.3,1
4446,65.28,1.46,-43.98,1
4447,65.29,-10.69,-26.02,1
4448,65.3,-12.88,-12.2,1
4449,65.32,-18.37,-37.99,1
4450,65.33,-5.33,-5.85,1
4451,65.34,29.02,4.18,1
4452,65.36,31.97,-43.82,1
4453,65.37,16.36,-20.76,1
4454,65.38,17.92,2.94,1
4455,65.4,9.83,-42.98,1
4456,65.41,-2.2,-36.93,1
4457,65.42500000000001,3.19,-13.29,1
4458,65.44,-2.36,-36.82,1
4459,65.45,-7.56,-18.38,1
4460,65.46,10.61,-5.95,1
4461,65.48,11.23,-44.61,1
4462,65.49,-5.81,-25.15,1
4463,65.5,-5.64,-0.46,1
4464,65.52,-6.7,-33.8,1
4465,65.53,-7.82,-20.69,1
4466,65.54,6.89,-5.64,1
4467,65.56,6.14,-46.41,1
4468,65.57,-3.41,-30.08,1
4469,65.58,7.4,0.55,1
4470,65.6,12.87,-27.75,1
4471,65.61,9.58,-8.72,1
4472,65.62,13.66,19.61,1
4473,65.64,3.68,-21.08,1
4474,65.65,-7.62,-21.02,1
4475,65.66,2.63,0.01,1
4476,65.68,4.55,-34.22,1
4477,65.69,-0.12,-23.53,1
4478,65.7,7.38,8.61,1
4479,65.72,-1.29,-19.19,1
4480,65.73,-14.83,-7.83,1
4481,65.74,-0.89,16.69,1
4482,65.76,7.03,-29.44,1
4483,65.77,-4.12,-25.65,1
4484,65.78,-6.48,16.0,1
4485,65.8,-8.98,-13.37,1
4486,65.81,-10.92,-11.95,1
4487,65.82,-5.09,18.77,1
4488,65.84,-10.71,-18.29,1
4489,65.85,-6.11,-15.47,1
4490,65.86,13.39,23.28,1
4491,65.88,1.59,-13.33,1
4492,65.89,-12.43,-16.73,1
4493,65.9,7.64,23.17,1
4494,65.92,10.3,-8.82,1
4495,65.93,-8.96,-13.43,1
4496,65.94,-7.73,26.71,1
4497,65.96,-1.47,2.75,1
4498,65.97,4.17,6.24,1
4499,65.98,18.43,39.13,1
4500,66.0,5.36,-5.42,1
4501,66.01,-28.48,-7.32,1
4502,66.02,-28.99,42.53,1
4503,66.04,-6.11,6.04,1
4504,66.05,4.7,-7.48,1
4505,66.06,1.48,35.62,1
4506,66.08,-14.17,3.5,1
4507,66.09,-19.57,-11.39,1
4508,66.11,1.67,25.78,1
4509,66.12,14.63,-3.62,1
4510,66.13,10.14,-8.37,1
4511,66.14,7.64,40.54,1
4512,66.16,-2.67,15.5,0
4513,66.17,-8.98,-21.7,0
4514,66.18,3.24,-55.94,0
4515,66.2,3.02,-155.25,0
4516,66.21,-1.89,-170.78,0
4517,66.22,17.54,-97.71,0
4518,66.24,26.53,-112.63,0
4519,66.25,9.77,-124.64,0
4520,66.26,3.43,-84.66,0
4521,66.28,9.04,-111.54,0
4522,66.29,17.58,-98.22,0
4523,66.3,25.33,-19.92,0
4524,66.32,9.02,-30.58,0
4525,66.33,-4.65,-21.79,0
4526,66.34,17.98,56.26,0
4527,66.36,28.82,49.29,0
4528,66.37,11.03,52.97,0
4529,66.38,2.89,120.02,0
4530,66.4,-8.78,104.34,0
4531,66.41,-34.65,104.16,0
4532,66.42,-44.57,165.3,0
4533,66.44,-35.73,130.85,0
4534,66.45,-16.06,111.34,0
4535,66.46,2.34,169.75,0
4536,66.48,-6.08,134.27,0
4537,66.49,-17.55,102.48,0
4538,66.5,-0.28,155.94,0
4539,66.52,12.58,130.23,0
4540,66.53,3.4,97.73,0
4541,66.54,-3.42,127.3,0
4542,66.56,-9.23,83.91,1
4543,66.57,-9.04,68.27,1
4544,66.58,6.85,124.53,1
4545,66.6,2.74,76.66,1
4546,66.61,-18.07,40.3,1
4547,66.62,-11.26,96.72,1
4548,66.64,-0.4,57.86,1
4549,66.65,-6.74,15.35,1
4550,66.66,-7.12,66.75,1
4551,66.68,-10.11,36.15,1
4552,66.69,-6.55,-5.42,1
4553,66.7,20.1,38.71,1
4554,66.72,20.4,15.27,1
4555,66.73,-10.04,-12.47,1
4556,66.75,-18.05,27.63,1
4557,66.76,-8.57,-9.84,1
4558,66.77,6.89,-33.03,1
4559,66.79,29.48,24.87,1
4560,66.8,28.49,-10.83,1
4561,66.81,5.35,-43.54,1
4562,66.82,-11.99,13.57,1
4563,66.84,-22.47,-21.32,1
4564,66.85,-17.97,-58.75,1
4565,66.86,1.65,3.01,1
4566,66.88,2.42,-19.85,1
4567,66.89,-12.22,-61.72,1
4568,66.9,-11.39,-16.98,1
4569,66.92,-5.16,-43.44,1
4570,66.93,7.99,-71.3,1
4571,66.94,35.06,-11.22,1
4572,66.96,35.49,-35.69,1
4573,66.97,8.56,-74.09,1
4574,66.98,-0.55,-24.45,1
4575,67.0,5.45,-49.76,1
4576,67.01,8.21,-78.42,1
4577,67.02,4.42,-16.52,1
4578,67.04,-12.66,-39.8,1
4579,67.05,-16.57,-76.62,1
4580,67.06,2.67,-17.14,1
4581,67.08,-3.44,-33.89,1
4582,67.09,-23.23,-73.09,1
4583,67.1,-7.68,-29.55,1
4584,67.12,5.52,-54.62,1
4585,67.13,-6.28,-78.93,1
4586,67.14,0.67,-12.05,1
4587,67.16,14.65,-36.43,1
4588,67.17,5.9,-81.31,1
4589,67.18,-2.19,-20.78,1
4590,67.2,1.98,-30.91,1
4591,67.21,12.51,-65.71,1
4592,67.22,23.29,-6.46,1
4593,67.24,14.95,-23.82,1
4594,67.25,-2.88,-69.61,1
4595,67.26,-7.16,-11.79,1
4596,67.28,-8.98,-14.98,1
4597,67.29,-8.91,-55.23,1
4598,67.3,-3.4,-12.05,1
4599,67.32,-11.67,-21.78,1
4600,67.33,-15.74,-45.36,1
4601,67.34,4.54,10.6,1
4602,67.36,9.09,-11.69,1
4603,67.37,-8.35,-55.16,1
4604,67.38,-6.06,-1.52,1
4605,67.4,3.11,-9.04,1
4606,67.41,-4.2,-38.33,1
4607,67.43,-6.43,14.97,1
4608,67.44,0.74,-6.61,1
4609,67.45,8.37,-46.78,1
4610,67.46,16.4,13.66,1
4611,67.48,10.38,4.03,1
4612,67.49,-3.72,-39.57,1
4613,67.5,-5.76,13.15,1
4614,67.52,-6.04,5.69,1
4615,67.53,-2.52,-36.65,1
4616,67.54,12.77,13.61,1
4617,67.56,10.14,8.45,1
4618,67.57,-5.37,-33.17,1
4619,67.58,0.42,11.57,1
4620,67.6,4.15,4.32,1
4621,67.61,-7.24,-36.41,1
4622,67.62,-2.45,8.31,1
4623,67.64,11.1,5.5,1
4624,67.65,13.34,-30.43,1
4625,67.66,9.58,12.96,1
4626,67.68,-3.36,13.24,1
4627,67.69,-10.62,-11.22,1
4628,67.7,7.62,34.71,1
4629,67.72,18.5,18.85,1
4630,67.73,5.86,-23.08,1
4631,67.74,2.03,27.91,1
4632,67.76,6.35,29.23,1
4633,67.77,2.58,-12.11,1
4634,67.78,0.15,28.24,1
4635,67.8,-6.21,30.25,1
4636,67.81,-17.64,-5.01,1
4637,67.82,-14.91,33.0,1
4638,67.84,-2.34,27.23,1
4639,67.85,8.3,-14.67,1
4640,67.86,10.53,27.09,1
4641,67.88,-3.77,34.4,1
4642,67.89,-13.83,-4.01,1
4643,67.9,-3.91,25.38,1
4644,67.92,0.4,19.62,1
4645,67.93,-2.52,-22.26,1
4646,67.94,7.07,11.84,1
4647,67.96,8.47,18.51,1
4648,67.97,-3.93,-8.07,1
4649,67.98,-3.33,30.81,1
4650,68.0,-2.61,25.51,1
4651,68.01,-12.37,-15.8,1
4652,68.02,-6.63,29.84,1
4653,68.04,2.51,47.68,1
4654,68.05,-2.29,10.96,1
4655,68.06,5.59,35.65,1
4656,68.08,14.41,34.09,1
4657,68.09,-6.38,-8.95,1
4658,68.11,-21.24,16.56,1
4659,68.12,-3.36,23.48,1
4660,68.13,15.29,-2.69,1
4661,68.14,14.91,37.0,1
4662,68.16,1.51,47.35,2
4663,68.17,-11.76,39.2,2
4664,68.18,-11.1,148.96,2
4665,68.2,-7.26,245.15,2
4666,68.21,-5.24,239.53,2
4667,68.22,9.1,246.03,2
4668,68.24,19.24,214.13,2
4669,68.25,12.03,125.73,2
4670,68.26,8.99,106.05,2
4671,68.28,5.28,84.54,2
4672,68.29,-8.55,8.94,2
4673,68.3,-11.06,-13.83,2
4674,68.32,-5.35,-41.59,2
4675,68.33,-7.44,-117.92,2
4676,68.34,-5.28,-139.96,2
4677,68.36,-0.38,-153.86,2
4678,68.37,-1.93,-187.79,2
4679,68.38,0.91,-149.22,2
4680,68.4,-0.15,-122.35,2
4681,68.41,-12.12,-155.53,2
4682,68.42,-11.95,-128.86,2
4683,68.44,-4.42,-97.94,2
4684,68.45,-5.8,-125.49,2
4685,68.46,-1.06,-108.75,2
4686,68.48,5.91,-86.21,2
4687,68.49,3.34,-99.49,2
4688,68.5,7.34,-58.29,2
4689,68.52,11.55,-33.06,2
4690,68.53,4.8,-74.48,2
4691,68.54,10.12,-61.81,2
4692,68.56,19.39,-39.37,1
4693,68.57,2.18,-69.32,1
4694,68.58,-20.53,-45.14,1
4695,68.6,-21.95,-12.03,1
4696,68.61,-11.66,-41.91,1
4697,68.62,2.21,-25.84,1
4698,68.64,9.24,4.13,1
4699,68.65,1.2,-31.2,1
4700,68.66,-5.79,-27.11,1
4701,68.68,-4.43,2.59,1
4702,68.69,-0.79,-11.72,1
4703,68.7,6.03,12.68,1
4704,68.72,7.62,31.15,1
4705,68.73,4.65,-15.81,1
4706,68.75,9.83,-1.24,1
4707,68.76,9.08,31.88,1
4708,68.77,-2.35,-15.19,1
4709,68.79,1.45,-6.11,1
4710,68.8,14.22,53.52,1
4711,68.81,13.02,34.3,1
4712,68.82,8.14,27.03,1
4713,68.84,2.96,51.67,1
4714,68.85,-5.85,19.76,1
4715,68.86,-0.03,14.06,1
4716,68.88,8.17,33.94,1
4717,68.89,-4.77,3.84,1
4718,68.9,-13.56,19.09,1
4719,68.92,-6.99,54.78,1
4720,68.93,-7.33,16.25,1
4721,68.94,-9.48,20.59,1
4722,68.96,-5.4,61.13,1
4723,68.97,-1.16,25.14,1
4724,68.98,6.96,15.46,1
4725,69.0,4.91,37.64,1
4726,69.01,-14.71,-0.42,1
4727,69.02,-18.32,17.28,1
4728,69.04,-4.77,72.18,1
4729,69.05,-3.49,31.03,1
4730,69.06,-0.94,22.33,1
4731,69.08,12.72,69.89,1
4732,69.09,14.51,34.94,1
4733,69.1,6.65,17.5,1
4734,69.12,-0.69,51.05,1
4735,69.13,-6.87,18.78,1
4736,69.14,1.14,16.9,1
4737,69.16,11.6,60.89,1
4738,69.17,5.22,21.67,1
4739,69.18,4.34,5.06,1
4740,69.2,11.73,46.88,1
4741,69.21,1.86,15.22,1
4742,69.22,-7.95,5.09,1
4743,69.24,-1.51,55.14,1
4744,69.25,-2.04,29.0,1
4745,69.26,-10.62,11.98,1
4746,69.28,-13.79,46.74,1
4747,69.29,-15.28,12.17,1
4748,69.3,-9.72,4.77,1
4749,69.32,0.68,52.33,1
4750,69.33,2.26,11.47,1
4751,69.34,3.07,-11.23,1
4752,69.36,1.44,29.99,1
4753,69.37,-14.11,-10.43,1
4754,69.38,-17.97,-29.03,1
4755,69.4,-1.21,22.55,1
4756,69.41,6.94,-4.32,1
4757,69.43,7.05,-9.72,1
4758,69.44,3.65,49.01,1
4759,69.45,-10.25,8.04,1
4760,69.46,-10.9,-26.72,1
4761,69.48,-0.76,20.23,1
4762,69.49,-7.86,-9.67,1
4763,69.5,-10.76,-34.55,1
4764,69.52,-0.43,13.56,1
4765,69.53,-1.42,-14.21,1
4766,69.54,2.69,-33.61,1
4767,69.56,17.79,16.97,1
4768,69.57,17.09,-14.45,1
4769,69.58,12.82,-39.94,1
4770,69.6,13.59,9.43,1
4771,69.61,2.75,-16.21,1
4772,69.62,-2.38,-34.72,1
4773,69.64,3.89,17.28,1
4774,69.65,2.03,-14.76,1
4775,69.66,4.69,-45.41,1
4776,69.68,12.2,2.3,1
4777,69.69,6.34,-20.52,1
4778,69.7,5.39,-34.48,1
4779,69.72,11.08,19.8,1
4780,69.73,0.59,-20.84,1
4781,69.74,-3.9,-58.1,1
4782,69.76,7.5,0.41,1
4783,69.77,-1.08,-14.87,1
4784,69.78,-15.96,-38.85,1
4785,69.8,-6.36,10.82,1
4786,69.81,2.96,-15.23,1
4787,69.82,2.4,-32.28,1
4788,69.84,5.13,31.01,1
4789,69.85,1.39,1.98,1
4790,69.86,-3.29,-30.47,1
4791,69.88,-2.39,23.07,1
4792,69.89,-10.18,-11.45,1
4793,69.9,-12.26,-49.76,1
4794,69.92,0.36,8.31,1
4795,69.93,2.47,-11.29,1
4796,69.94,0.39,-38.02,1
4797,69.96,4.9,23.85,1
4798,69.97,-3.39,2.41,1
4799,69.98,-12.3,-35.15,1
4800,70.0,-7.22,9.28,1
4801,70.01,-6.85,-23.64,1
4802,70.02,-3.14,-55.32,1
4803,70.04,5.78,11.13,1
4804,70.05,-4.71,-0.2,1
4805,70.06,-13.21,-27.68,1
4806,70.08,-4.37,24.48,1
4807,70.09,-6.26,-8.0,1
4808,70.11,-7.92,-44.12,1
4809,70.12,5.91,24.87,1
4810,70.13,8.41,16.59,1
4811,70.14,5.32,-25.26,1
4812,70.16,12.71,23.44,2
4813,70.17,9.21,54.17,2
4814,70.18,-0.74,86.3,2
4815,70.2,-2.66,97.67,2
4816,70.21,-7.9,-7.04,2
4817,70.22,1.76,19.47,2
4818,70.24,32.12,162.64,2
4819,70.25,38.56,27.35,2
4820,70.26,22.32,-132.66,2
4821,70.28,13.51,53.23,2
4822,70.29,1.89,234.88,2
4823,70.3,0.84,232.28,2
4824,70.32,15.69,209.75,2
4825,70.33,-1.91,121.61,2
4826,70.34,-32.09,37.9,2
4827,70.36,-22.35,57.75,2
4828,70.37,-3.43,17.55,2
4829,70.38,1.41,-80.01,2
4830,70.4,1.04,-125.66,2
4831,70.41,-15.32,-177.5,2
4832,70.42,-20.15,-166.88,2
4833,70.44,0.32,-71.42,2
4834,70.45,-8.46,-94.73,2
4835,70.46,-36.29,-173.45,2
4836,70.48,-25.12,-129.66,2
4837,70.49,5.47,-89.55,2
4838,70.5,19.53,-110.77,2
4839,70.52,15.8,-131.17,2
4840,70.53,-2.53,-186.1,2
4841,70.54,-12.51,-180.13,2
4842,70.56,-5.44,-99.13,1
4843,70.57,-1.02,-107.29,1
4844,70.58,8.65,-93.17,1
4845,70.6,16.25,24.09,1
4846,70.61,-2.53,34.37,1
4847,70.62,-9.99,-38.38,1
