,Timestamp,Data1,Data2,Label
0,6.0,0.26,-4.24,1
1,6.01,2.86,4.59,1
2,6.03,3.46,8.39,1
3,6.04,0.85,-3.97,1
4,6.05,4.01,-11.28,1
5,6.07,12.38,-2.42,1
6,6.08,16.47,4.12,1
7,6.09,8.74,-1.49,1
8,6.11,-1.76,-9.34,1
9,6.12,0.16,-10.55,1
10,6.13,6.71,-5.01,1
11,6.15,2.42,3.11,2
12,6.16,-7.43,9.32,2
13,6.17,-8.53,14.08,2
14,6.19,4.45,36.53,2
15,6.2,17.44,93.83,2
16,6.21,1.74,154.56,2
17,6.23,-40.7,172.4,2
18,6.24,-60.42,150.52,2
19,6.25,-28.49,84.83,2
20,6.265,9.19,-117.13,2
21,6.28,14.27,-358.93,2
22,6.29,28.54,-268.69,2
23,6.31,53.26,120.72,2
24,6.32,29.6,303.22,2
25,6.33,2.8,140.92,2
26,6.35,37.69,22.78,2
27,6.36,61.35,184.32,2
28,6.37,16.96,370.33,2
29,6.39,-34.03,310.8,2
30,6.4,-36.53,119.31,2
31,6.41,4.74,70.67,2
32,6.43,46.23,181.05,2
33,6.44,41.0,187.36,2
34,6.45,-1.08,72.08,2
35,6.47,-29.37,57.84,2
36,6.48,-24.28,79.97,2
37,6.49,-25.04,23.71,2
38,6.51,-58.18,-1.64,2
39,6.52,-64.23,-9.9,2
40,6.53,-0.95,-89.36,2
41,6.55,53.14,-152.07,2
42,6.56,40.07,-118.22,1
43,6.57,20.02,-74.51,1
44,6.59,27.99,-113.13,1
45,6.6,18.89,-167.0,1
46,6.61,-5.94,-146.96,1
47,6.63,10.75,-90.09,1
48,6.64,49.54,-64.83,1
49,6.65,23.73,-88.89,1
50,6.67,-56.07,-157.38,1
51,6.68,-93.73,-218.01,1
52,6.69,-68.23,-170.1,1
53,6.71,-23.68,-71.35,1
54,6.72,2.49,-106.52,1
55,6.73,-15.24,-231.04,1
56,6.75,-43.03,-275.65,1
57,6.76,-23.89,-257.26,1
58,6.77,10.65,-245.6,1
59,6.79,13.91,-226.75,1
60,6.8,14.65,-174.8,1
61,6.81,14.46,-101.43,1
62,6.82,-13.62,-115.52,1
63,6.84,-34.13,-256.61,1
64,6.85,-22.32,-302.12,1
65,6.86,-13.62,-157.26,1
66,6.88,-21.82,-56.57,1
67,6.89,-11.54,-81.8,1
68,6.91,20.5,-97.88,1
69,6.92,17.88,-89.38,1
70,6.93,-23.17,-95.88,1
71,6.95,-25.92,-95.12,1
72,6.96,22.11,-77.75,1
73,6.97,42.26,-47.4,1
74,6.99,16.0,-5.24,1
75,7.0,-3.85,15.39,1
76,7.01,-14.82,-12.86,1
77,7.03,-29.13,-57.72,1
78,7.04,-9.87,-60.39,1
79,7.05,36.32,-6.68,1
80,7.07,39.22,44.7,1
81,7.08,-8.06,28.52,1
82,7.09,-25.76,-9.27,1
83,7.11,11.62,16.49,1
84,7.12,31.1,60.78,1
85,7.13,1.67,35.81,1
86,7.15,-19.4,-16.73,1
87,7.16,-7.09,-7.97,1
88,7.17,-0.4,34.38,1
89,7.19,-16.76,51.08,1
90,7.2,-21.68,48.81,1
91,7.21,5.09,24.9,1
92,7.23,22.97,24.52,1
93,7.24,7.16,104.21,1
94,7.25,-12.05,169.18,1
95,7.27,-9.46,142.16,1
96,7.28,1.38,86.14,1
97,7.29,-18.78,48.81,1
98,7.31,-55.62,34.5,1
99,7.32,-41.43,66.52,1
100,7.33,11.59,145.81,1
101,7.35,30.12,191.13,1
102,7.36,6.18,146.17,1
103,7.37,-15.4,105.02,1
104,7.39,-15.02,148.54,1
105,7.4,-7.91,187.21,1
106,7.41,-6.99,148.7,1
107,7.43,-12.82,112.27,1
108,7.44,-12.94,135.53,1
109,7.45,4.18,179.27,1
110,7.47,29.02,206.52,1
111,7.48,49.02,190.57,1
112,7.49,47.22,138.31,1
113,7.51,15.59,100.18,1
114,7.52,-8.04,89.99,1
115,7.53,-3.71,120.77,1
116,7.55,2.02,163.18,1
117,7.56,0.45,107.46,1
118,7.57,0.42,3.65,1
119,7.59,10.24,5.58,1
120,7.6,36.27,77.3,1
121,7.61,58.94,104.04,1
122,7.63,52.41,106.06,1
123,7.64,28.61,136.55,1
124,7.65,15.67,131.62,1
125,7.67,9.48,53.74,1
126,7.68,-4.35,-0.36,1
127,7.69,-10.21,-1.35,1
128,7.71,5.28,-0.6,1
129,7.72,21.28,41.83,1
130,7.73,9.66,118.34,1
131,7.75,-19.83,115.84,1
132,7.76,-27.92,53.7,1
133,7.77,-5.09,50.33,1
134,7.79,24.33,86.03,1
135,7.8,36.22,54.48,1
136,7.81,17.74,-28.61,1
137,7.83,-13.58,-78.56,1
138,7.84,-18.1,-72.87,1
139,7.85,4.95,-16.08,1
140,7.87,6.0,11.53,1
141,7.88,-17.42,-76.13,1
142,7.89,-1.75,-126.91,1
143,7.91,37.82,-7.38,1
144,7.92,18.91,80.78,1
145,7.93,-28.56,0.69,1
146,7.95,-22.48,-73.51,1
147,7.96,4.28,-34.93,1
148,7.97,-11.23,22.41,1
149,7.99,-36.12,22.1,1
150,8.0,-21.5,-11.45,1
151,8.01,4.59,-24.21,1
152,8.03,3.55,-34.91,1
153,8.04,-9.21,-84.97,1
154,8.05,-8.74,-106.66,1
155,8.07,3.38,-36.52,1
156,8.08,22.65,22.3,1
157,8.09,46.32,-13.62,1
158,8.1,43.5,-54.6,1
159,8.12,4.07,-47.58,1
160,8.13,-21.04,-21.28,1
161,8.15,-18.44,19.93,0
162,8.16,-23.63,13.76,0
163,8.17,-28.31,-53.66,0
164,8.19,-15.95,-68.92,0
165,8.2,-9.07,-35.52,0
166,8.21,-7.01,-31.81,0
167,8.23,11.28,-32.69,0
168,8.24,19.49,-36.48,0
169,8.25,-13.4,-66.4,0
170,8.27,-44.88,-76.32,0
171,8.28,-25.03,-47.71,0
172,8.29,10.9,-25.12,0
173,8.31,11.65,-32.33,0
174,8.32,-6.2,-46.17,0
175,8.33,-7.93,-42.0,0
176,8.35,-0.1,-26.79,0
177,8.36,-3.26,-20.91,0
178,8.37,-12.56,-42.11,0
179,8.39,-14.99,-112.0,0
180,8.4,-8.92,-222.97,0
181,8.41,0.73,-318.26,0
182,8.43,5.65,-353.06,0
183,8.44,7.31,-337.09,0
184,8.45,11.32,-298.9,0
185,8.47,5.62,-243.6,0
186,8.48,-15.23,-166.2,0
187,8.49,-28.88,-82.66,0
188,8.51,-17.59,-13.67,0
189,8.52,4.69,40.73,0
190,8.53,12.51,83.68,0
191,8.55,3.96,105.13,1
192,8.56,-2.23,100.49,1
193,8.57,1.58,86.91,1
194,8.59,4.49,87.56,1
195,8.6,-1.44,103.23,1
196,8.61,-3.48,109.55,1
197,8.63,9.19,97.17,1
198,8.64,20.63,84.87,1
199,8.65,12.97,78.97,1
200,8.67,-8.51,73.2,1
201,8.68,-21.73,76.71,1
202,8.69,-9.96,85.92,1
203,8.71,11.55,77.66,1
204,8.72,15.69,61.41,1
205,8.73,4.96,64.06,1
206,8.75,-3.2,71.93,1
207,8.76,-3.6,63.14,1
208,8.77,-1.95,54.8,1
209,8.78,-5.73,58.74,1
210,8.8,-10.44,55.49,1
211,8.81,-6.52,42.18,1
212,8.82,-0.3,36.29,1
213,8.84,-1.53,37.44,1
214,8.85,-5.3,37.84,1
215,8.87,-3.14,37.55,1
216,8.88,5.3,34.26,1
217,8.89,8.73,27.62,1
218,8.91,0.35,22.48,1
219,8.92,-2.28,21.23,1
220,8.93,11.02,20.16,1
221,8.95,18.02,14.7,1
222,8.96,8.56,12.83,1
223,8.97,1.53,20.52,1
224,8.99,3.27,19.9,1
225,9.0,2.14,2.89,1
226,9.01,1.32,-11.21,1
227,9.03,10.53,-14.15,1
228,9.04,14.59,-12.37,1
229,9.05,1.06,-5.82,1
230,9.07,-10.61,0.91,1
231,9.08,-6.38,-0.2,1
232,9.09,2.8,-6.63,1
233,9.11,3.94,-10.55,1
234,9.12,-4.09,-7.79,1
235,9.13,-7.83,-3.81,1
236,9.15,0.58,-8.02,1
237,9.16,6.9,-17.47,1
238,9.17,-0.31,-20.21,1
239,9.19,-9.54,-14.67,1
240,9.2,-3.85,-7.88,1
241,9.21,13.83,-3.12,1
242,9.23,21.57,-5.1,1
243,9.24,12.23,-14.28,1
244,9.25,4.02,-19.58,1
245,9.27,6.27,-19.14,1
246,9.28,5.79,-21.2,1
247,9.29,-3.62,-23.13,1
248,9.31,-9.74,-18.57,1
249,9.32,-4.9,-10.25,1
250,9.33,3.26,-6.63,1
251,9.35,4.55,-13.54,1
252,9.36,0.66,-23.33,1
253,9.37,0.61,-25.25,1
254,9.39,4.43,-24.38,1
255,9.4,2.63,-29.06,1
256,9.41,-6.43,-34.68,1
257,9.43,-10.08,-30.55,1
258,9.44,-0.42,-16.27,1
259,9.45,9.05,-6.89,1
260,9.47,5.52,-10.42,1
261,9.48,-2.9,-19.08,1
262,9.49,-6.95,-25.4,1
263,9.51,-6.19,-25.08,1
264,9.52,0.73,-16.51,1
265,9.53,11.76,-10.22,1
266,9.55,13.93,-17.5,1
267,9.56,4.82,-25.97,1
268,9.57,0.35,-18.06,1
269,9.59,0.27,-6.05,1
270,9.6,-5.99,-9.67,1
271,9.61,-10.55,-19.87,1
272,9.63,-10.61,-18.66,1
273,9.64,-12.18,-11.46,1
274,9.65,-7.31,-11.99,1
275,9.67,6.12,-13.53,1
276,9.68,9.96,-6.0,1
277,9.69,-3.17,1.39,1
278,9.71,-16.58,-1.78,1
279,9.72,-12.65,-8.59,1
280,9.73,3.31,-10.48,1
281,9.75,9.62,-10.45,1
282,9.76,-0.72,-10.9,1
283,9.77,-13.02,-10.98,1
284,9.79,-14.26,-11.52,1
285,9.8,-6.04,-8.7,1
286,9.81,-0.81,-4.32,1
287,9.83,-4.61,-7.83,1
288,9.84,-9.0,-13.04,1
289,9.85,-4.16,-6.27,1
290,9.87,5.8,6.22,1
291,9.88,7.82,9.53,1
292,9.89,2.2,4.08,1
293,9.91,0.34,0.25,1
294,9.92,1.35,2.27,1
295,9.93,-3.39,8.59,1
296,9.95,-13.86,12.85,1
297,9.96,-17.04,7.15,1
298,9.97,-3.16,-3.08,1
299,9.99,10.39,-6.11,1
300,10.0,6.8,-3.06,1
301,10.01,3.48,0.36,1
302,10.02,9.24,3.34,1
303,10.04,2.55,4.0,1
304,10.05,-13.16,5.54,1
305,10.06,-10.8,10.98,1
306,10.08,2.16,10.81,1
307,10.09,2.04,0.83,1
308,10.1,-3.59,-6.68,1
309,10.12,1.37,-1.91,1
310,10.13,8.73,10.71,1
311,10.15,5.33,19.57,0
312,10.16,-1.79,18.22,0
313,10.17,1.65,11.04,0
314,10.19,9.67,7.94,0
315,10.2,5.8,6.43,0
316,10.21,-5.27,-21.72,0
317,10.23,-11.68,-82.19,0
318,10.24,-12.65,-126.8,0
319,10.25,-3.73,-134.13,0
320,10.27,7.61,-138.15,0
321,10.28,5.16,-157.77,0
322,10.29,5.21,-177.42,0
323,10.31,16.87,-172.48,0
324,10.32,14.64,-137.33,0
325,10.33,1.21,-94.01,0
326,10.35,8.38,-59.44,0
327,10.36,28.93,-29.44,0
328,10.37,17.93,5.15,0
329,10.39,-17.58,46.71,0
330,10.4,-18.78,86.79,0
331,10.41,6.22,110.53,0
332,10.43,2.12,116.78,0
333,10.44,-17.94,128.25,0
334,10.45,-17.58,160.71,0
335,10.47,-9.83,197.16,0
336,10.48,-8.23,212.86,0
337,10.49,-4.51,207.31,0
338,10.51,-2.8,195.65,0
339,10.52,-8.71,182.64,0
340,10.53,-11.16,167.34,0
341,10.55,-4.02,154.46,1
342,10.56,3.59,144.1,1
343,10.57,4.4,129.75,1
344,10.59,-1.38,110.92,1
345,10.6,-6.36,96.88,1
346,10.61,-5.58,89.39,1
347,10.63,-6.44,76.7,1
348,10.64,-8.27,60.79,1
349,10.65,-2.83,53.94,1
350,10.67,5.53,46.27,1
351,10.68,9.07,29.37,1
352,10.69,2.86,21.87,1
353,10.71,-11.04,26.03,1
354,10.72,-10.56,16.67,1
355,10.73,12.99,-4.63,1
356,10.75,27.26,-8.02,1
357,10.76,15.86,4.15,1
358,10.77,-0.43,2.99,1
359,10.78,-10.61,-12.53,1
360,10.8,-15.04,-23.41,1
361,10.81,-10.56,-22.3,1
362,10.83,-2.52,-20.83,1
363,10.84,-0.21,-31.86,1
364,10.85,-0.86,-43.86,1
365,10.87,2.59,-41.12,1
366,10.88,8.36,-29.13,1
367,10.89,7.37,-21.28,1
368,10.91,-3.47,-22.61,1
369,10.92,-7.66,-26.89,1
370,10.93,4.16,-30.3,1
371,10.95,12.06,-39.56,1
372,10.96,7.09,-53.41,1
373,10.97,6.89,-58.57,1
374,10.99,12.32,-53.88,1
375,11.0,6.61,-51.35,1
376,11.01,-6.24,-52.22,1
377,11.03,-9.19,-49.54,1
378,11.04,-2.29,-44.45,1
379,11.05,2.95,-43.22,1
380,11.07,5.29,-47.94,1
381,11.08,11.62,-51.5,1
382,11.09,16.17,-46.07,1
383,11.11,4.9,-37.43,1
384,11.12,-11.66,-35.18,1
385,11.13,-12.45,-36.85,1
386,11.15,-4.62,-37.21,1
387,11.16,-1.37,-38.16,1
388,11.17,1.91,-41.69,1
389,11.19,7.64,-44.91,1
390,11.2,8.13,-44.52,1
391,11.21,1.77,-41.22,1
392,11.23,0.39,-39.46,1
393,11.24,8.3,-39.74,1
394,11.25,8.98,-37.76,1
395,11.27,-2.66,-34.94,1
396,11.28,-5.84,-32.84,1
397,11.29,5.93,-28.24,1
398,11.31,13.68,-25.58,1
399,11.32,7.72,-27.25,1
400,11.33,-0.19,-26.73,1
401,11.35,1.36,-26.71,1
402,11.36,8.05,-33.34,1
403,11.37,7.74,-42.12,1
404,11.39,-3.71,-44.16,1
405,11.4,-15.07,-33.92,1
406,11.41,-12.94,-18.0,1
407,11.43,-3.63,-14.16,1
408,11.44,-2.22,-25.15,1
409,11.45,-6.54,-33.07,1
410,11.47,-8.56,-26.28,1
411,11.48,-6.94,-13.27,1
412,11.49,2.83,-10.03,1
413,11.51,16.26,-16.97,1
414,11.52,16.6,-18.11,1
415,11.53,3.71,-10.64,1
416,11.55,-5.17,-8.14,1
417,11.56,-4.95,-12.32,1
418,11.57,-3.58,-13.67,1
419,11.59,-2.89,-13.27,1
420,11.6,-3.19,-11.62,1
421,11.61,-10.2,1.39,1
422,11.63,-17.81,20.56,1
423,11.64,-12.26,25.51,1
424,11.65,1.68,11.81,1
425,11.67,9.31,-5.0,1
426,11.68,5.82,-10.92,1
427,11.69,-2.77,-2.29,1
428,11.71,-2.15,13.58,1
429,11.72,11.55,21.18,1
430,11.73,18.16,14.83,1
431,11.75,3.4,5.58,1
432,11.76,-8.16,2.65,1
433,11.77,6.37,5.83,1
434,11.79,20.6,13.09,1
435,11.8,11.16,19.3,1
436,11.81,-0.44,19.05,1
437,11.83,-0.33,20.53,1
438,11.84,1.2,29.37,1
439,11.85,3.44,29.38,1
440,11.87,6.04,13.9,1
441,11.88,-1.77,1.69,1
442,11.89,-11.36,4.22,1
443,11.91,-8.58,14.69,1
444,11.92,-4.42,23.78,1
445,11.93,-4.33,25.08,1
446,11.94,0.74,20.19,1
447,11.96,7.49,17.72,1
448,11.97,8.53,20.19,1
449,11.98,1.98,20.73,1
450,12.0,-8.74,13.83,1
451,12.01,-11.27,6.13,1
452,12.02,-5.71,9.62,1
453,12.04,-8.8,20.56,1
454,12.05,-15.42,23.97,1
455,12.06,-7.74,16.8,1
456,12.08,3.88,12.47,1
457,12.09,1.16,18.69,1
458,12.105,-8.79,24.29,1
459,12.12,-11.23,24.96,1
460,12.13,-7.04,31.48,1
461,12.15,-0.59,40.93,2
462,12.16,7.28,45.8,2
463,12.17,11.08,52.34,2
464,12.19,7.69,55.83,2
465,12.2,5.14,54.94,2
466,12.21,7.44,93.42,2
467,12.23,0.84,196.83,2
468,12.24,-14.99,297.22,2
469,12.25,-14.81,319.06,2
470,12.27,2.2,276.69,2
471,12.28,11.18,217.65,2
472,12.29,4.56,153.04,2
473,12.31,-8.8,82.58,2
474,12.32,-18.06,16.65,2
475,12.33,-17.18,-42.14,2
476,12.35,-15.02,-100.96,2
477,12.36,-20.46,-157.8,2
478,12.37,-21.98,-195.16,2
479,12.39,-10.29,-202.75,2
480,12.4,1.02,-193.25,2
481,12.41,3.18,-178.42,2
482,12.43,5.7,-160.89,2
483,12.44,9.73,-145.37,2
484,12.45,3.37,-133.95,2
485,12.47,-9.93,-123.39,2
486,12.48,-9.05,-108.72,2
487,12.49,6.06,-95.19,2
488,12.51,12.2,-94.34,2
489,12.52,6.51,-100.36,2
490,12.53,6.55,-98.58,2
491,12.55,10.91,-89.8,1
492,12.56,5.65,-78.58,1
493,12.57,-4.55,-59.9,1
494,12.59,-10.55,-36.73,1
495,12.6,-8.6,-28.82,1
496,12.61,5.39,-37.49,1
497,12.63,17.92,-39.6,1
498,12.64,12.1,-31.8,1
499,12.65,-1.7,-26.68,1
500,12.67,-2.19,-20.67,1
501,12.68,9.31,-11.31,1
502,12.69,12.72,-9.44,1
503,12.71,3.0,-12.67,1
504,12.72,-3.55,-6.93,1
505,12.73,2.13,3.95,1
506,12.75,10.36,8.68,1
507,12.76,9.54,11.44,1
508,12.77,2.72,16.31,1
509,12.79,-0.92,16.13,1
510,12.8,-2.66,14.24,1
511,12.81,-4.63,18.76,1
512,12.83,-2.16,20.98,1
513,12.84,3.55,18.94,1
514,12.85,6.62,29.96,1
515,12.87,6.82,47.99,1
516,12.88,7.36,43.71,1
517,12.89,6.64,23.97,1
518,12.91,1.09,21.46,1
519,12.92,-3.6,32.71,1
520,12.93,1.95,36.99,1
521,12.95,9.24,36.13,1
522,12.96,5.19,32.4,1
523,12.97,0.63,24.16,1
524,12.99,5.8,21.17,1
525,13.0,9.15,27.26,1
526,13.01,6.94,37.55,1
527,13.03,7.98,49.96,1
528,13.04,10.63,54.87,1
529,13.05,6.52,42.92,1
530,13.07,-1.42,25.44,1
531,13.08,-3.35,18.92,1
532,13.09,-4.16,23.25,1
533,13.11,-10.66,31.48,1
534,13.12,-8.87,40.61,1
535,13.13,5.93,43.05,1
536,13.15,12.31,30.6,1
537,13.16,3.81,12.46,1
538,13.17,-0.22,5.87,1
539,13.19,1.94,12.87,1
540,13.2,-6.62,23.45,1
541,13.21,-17.76,30.69,1
542,13.23,-12.93,32.94,1
543,13.24,0.09,28.59,1
544,13.25,5.58,18.96,1
545,13.27,1.21,12.08,1
546,13.28,-5.68,9.91,1
547,13.29,-7.42,8.38,1
548,13.31,-3.78,11.56,1
549,13.32,-0.18,20.92,1
550,13.33,-0.22,26.45,1
551,13.35,-2.08,19.23,1
552,13.36,-4.62,5.72,1
553,13.37,-7.76,5.54,1
554,13.39,-4.67,20.18,1
555,13.4,6.05,24.13,1
556,13.41,11.31,11.31,1
557,13.43,4.13,5.41,1
558,13.44,-5.89,10.05,1
559,13.45,-8.06,5.85,1
560,13.47,-4.0,-3.82,1
561,13.48,-0.18,-0.48,1
562,13.49,1.0,9.25,1
563,13.51,-3.28,5.52,1
564,13.52,-9.16,-8.1,1
565,13.53,-5.25,-9.93,1
566,13.55,6.17,2.83,1
567,13.56,7.63,11.74,1
568,13.57,-5.46,8.13,1
569,13.59,-14.74,-0.78,1
570,13.6,-6.86,-5.4,1
571,13.61,6.16,-2.33,1
572,13.63,7.31,1.76,1
573,13.64,-1.59,-0.16,1
574,13.65,-8.38,-7.61,1
575,13.67,-7.69,-15.18,1
576,13.68,-4.88,-13.39,1
577,13.69,-4.25,-4.35,1
578,13.71,-2.59,-4.63,1
579,13.72,1.33,-13.87,1
580,13.73,6.0,-17.59,1
581,13.75,12.43,-15.27,1
582,13.76,14.98,-15.47,1
583,13.77,4.24,-20.52,1
584,13.79,-11.31,-23.19,1
585,13.8,-15.79,-20.48,1
586,13.81,-10.64,-19.33,1
587,13.83,-5.7,-19.57,1
588,13.84,-2.33,-18.69,1
589,13.85,5.28,-18.62,1
590,13.86,11.87,-13.47,1
591,13.88,1.67,-6.3,1
592,13.89,-13.65,-9.03,1
593,13.9,-5.27,-14.92,1
594,13.92,16.06,-13.62,1
595,13.93,15.02,-11.2,1
596,13.94,-4.45,-15.22,1
597,13.96,-10.01,-20.33,1
598,13.97,-2.04,-15.99,1
599,13.98,-4.49,-6.23,1
600,14.0,-14.8,-8.01,1
601,14.01,-9.7,-18.89,1
602,14.02,7.26,-17.45,1
603,14.04,9.37,-3.41,1
604,14.05,-1.54,3.93,1
605,14.07,-1.17,2.47,1
606,14.08,9.0,1.47,1
607,14.09,10.19,-2.1,1
608,14.11,7.04,-11.9,1
609,14.12,12.85,-19.03,1
610,14.13,16.21,-16.12,1
611,14.15,6.0,-16.75,2
612,14.16,0.66,-29.07,2
613,14.17,17.29,1.55,2
614,14.19,42.88,108.19,2
615,14.2,52.9,175.29,2
616,14.21,28.98,148.57,2
617,14.23,-20.69,164.33,2
618,14.24,-49.68,203.34,2
619,14.25,-31.13,106.91,2
620,14.27,5.22,-43.72,2
621,14.28,10.38,-37.09,2
622,14.29,-20.82,116.0,2
623,14.31,-28.97,196.83,2
624,14.32,10.16,144.94,2
625,14.33,37.25,95.4,2
626,14.35,15.29,43.52,2
627,14.36,-33.8,-51.1,2
628,14.37,-63.93,-75.16,2
629,14.39,-31.26,-8.2,2
630,14.4,28.01,47.32,2
631,14.41,26.36,62.21,2
632,14.43,-14.69,6.4,2
633,14.44,-10.65,-150.57,2
634,14.45,13.76,-271.72,2
635,14.47,7.49,-242.78,2
636,14.48,4.49,-204.89,2
637,14.49,21.7,-258.4,2
638,14.51,33.57,-288.19,2
639,14.52,24.13,-221.66,2
640,14.53,-20.05,-119.25,2
641,14.55,-53.13,-58.9,1
642,14.56,-11.73,-9.2,1
643,14.57,38.37,48.49,1
644,14.59,16.79,-22.27,1
645,14.6,-15.74,-178.13,1
646,14.61,-9.28,-145.62,1
647,14.63,-12.5,33.24,1
648,14.64,-35.82,29.96,1
649,14.65,-42.74,-121.48,1
650,14.67,-32.9,-86.01,1
651,14.68,-25.18,85.71,1
652,14.69,-35.47,63.27,1
653,14.71,-60.44,-95.37,1
654,14.72,-55.7,-101.8,1
655,14.73,-2.44,2.08,1
656,14.75,36.37,11.59,1
657,14.76,10.37,-62.62,1
658,14.77,-25.28,-91.63,1
659,14.79,-5.05,-29.78,1
660,14.8,29.16,51.1,1
661,14.81,11.49,52.75,1
662,14.83,-15.97,-5.86,1
663,14.84,17.37,-39.01,1
664,14.85,73.42,-41.32,1
665,14.87,74.71,-39.24,1
666,14.88,31.2,-31.88,1
667,14.89,5.48,-42.84,1
668,14.91,11.22,-58.46,1
669,14.92,11.89,-8.77,1
670,14.93,-0.35,58.78,1
671,14.95,6.91,52.44,1
672,14.96,35.3,39.92,1
673,14.97,41.27,52.53,1
674,14.99,10.48,6.94,1
675,15.0,-8.7,-45.35,1
676,15.01,13.6,-30.41,1
677,15.03,30.82,-16.55,1
678,15.04,10.52,-18.9,1
679,15.05,-3.8,11.6,1
680,15.07,5.63,26.52,1
681,15.08,0.71,-9.12,1
682,15.09,-14.88,-8.88,1
683,15.11,-3.56,46.19,1
684,15.12,31.05,41.67,1
685,15.13,50.73,-24.28,1
686,15.15,33.53,-38.13,1
687,15.16,-8.43,10.88,1
688,15.17,-42.73,60.96,1
689,15.19,-40.54,85.31,1
690,15.2,-12.12,91.7,1
691,15.21,2.32,91.86,1
692,15.23,-6.52,90.45,1
693,15.24,-14.18,104.73,1
694,15.25,-17.24,110.71,1
695,15.27,-26.61,46.47,1
696,15.28,-36.8,-38.85,1
697,15.29,-46.9,-47.65,1
698,15.31,-42.85,-5.97,1
699,15.32,-3.48,20.63,1
700,15.33,24.66,25.07,1
701,15.35,-8.48,37.8,1
702,15.36,-43.85,77.32,1
703,15.37,-19.86,103.84,1
704,15.39,2.86,97.42,1
705,15.4,-20.55,98.25,1
706,15.41,-23.84,104.42,1
707,15.43,14.64,84.15,1
708,15.44,36.23,55.76,1
709,15.45,24.72,27.34,1
710,15.47,2.08,-7.08,1
711,15.48,-13.93,4.63,1
712,15.49,-16.81,62.48,1
713,15.51,-17.69,73.6,1
714,15.52,-9.51,20.78,1
715,15.53,23.38,-22.64,1
716,15.55,46.08,-25.41,1
717,15.56,28.45,-4.89,1
718,15.57,7.37,27.6,1
719,15.59,3.4,50.88,1
720,15.6,-11.28,45.56,1
721,15.61,-18.51,26.47,1
722,15.63,14.32,-3.11,1
723,15.64,33.56,-36.84,1
724,15.65,5.62,-26.97,1
725,15.67,-7.32,4.58,1
726,15.68,10.31,-6.03,1
727,15.69,15.97,-17.9,1
728,15.71,7.37,1.25,1
729,15.72,5.55,-3.69,1
730,15.73,19.56,-19.22,1
731,15.75,22.23,16.98,1
732,15.76,-7.88,59.41,1
733,15.77,-26.14,51.19,1
734,15.78,-9.58,37.31,1
735,15.8,-2.04,50.68,1
736,15.81,-14.3,60.45,1
737,15.82,-14.46,51.57,1
738,15.84,-4.97,32.83,1
739,15.85,0.65,5.49,1
740,15.86,11.52,-22.92,1
741,15.88,10.68,-29.77,1
742,15.89,-6.48,-6.46,1
743,15.9,3.56,19.13,1
744,15.92,16.22,27.46,1
745,15.93,-22.75,46.07,1
746,15.94,-50.27,57.92,1
747,15.96,-10.23,-13.27,1
748,15.97,29.53,-97.22,1
749,15.98,24.71,-49.92,1
750,16.0,8.88,25.07,1
751,16.01,-3.15,-30.55,1
752,16.03,-19.67,-91.55,1
753,16.04,-38.57,-6.36,1
754,16.05,-36.93,98.04,1
755,16.07,-1.85,52.54,1
756,16.08,24.35,-62.0,1
757,16.09,13.7,-72.26,1
758,16.11,8.1,13.63,1
759,16.12,25.01,51.93,1
760,16.13,17.91,1.15,1
761,16.15,-19.81,-30.94,1
762,16.16,-35.21,7.84,0
763,16.17,-15.39,33.49,0
764,16.19,5.84,5.69,0
765,16.2,8.79,-2.79,0
766,16.21,-3.42,23.96,0
767,16.23,-17.29,27.31,0
768,16.24,-26.46,18.21,0
769,16.25,-28.79,23.66,0
770,16.27,-15.19,-6.03,0
771,16.28,12.08,-108.08,0
772,16.29,28.93,-239.88,0
773,16.31,16.96,-330.87,0
774,16.32,-4.36,-354.78,0
775,16.33,-3.57,-334.27,0
776,16.35,10.6,-289.81,0
777,16.36,13.81,-216.39,0
778,16.37,9.47,-118.19,0
779,16.39,9.74,-30.6,0
780,16.4,11.15,22.19,0
781,16.41,9.12,55.71,0
782,16.42,10.35,89.41,0
783,16.44,17.56,115.33,0
784,16.45,17.7,120.15,0
785,16.46,1.06,109.4,0
786,16.48,-18.23,100.42,0
787,16.49,-18.18,101.1,0
788,16.5,-3.28,102.89,0
789,16.52,5.85,96.41,0
790,16.53,6.44,85.97,0
791,16.54,7.44,85.13,0
792,16.56,9.83,92.08,1
793,16.57,10.48,89.64,1
794,16.58,6.46,80.22,1
795,16.6,0.34,78.13,1
796,16.61,0.28,77.83,1
797,16.62,7.53,70.94,1
798,16.64,13.55,65.78,1
799,16.65,11.48,66.71,1
800,16.67,2.77,61.76,1
801,16.68,-6.77,47.72,1
802,16.69,-11.7,39.26,1
803,16.71,-8.01,42.92,1
804,16.72,0.76,47.48,1
805,16.73,5.08,41.16,1
806,16.75,2.81,27.05,1
807,16.76,0.96,15.97,1
808,16.77,1.03,13.73,1
809,16.79,-0.02,19.99,1
810,16.8,1.36,27.81,1
811,16.81,4.95,30.27,1
812,16.83,1.51,25.36,1
813,16.84,-8.26,11.72,1
814,16.85,-11.37,-3.88,1
815,16.87,-3.71,-8.68,1
816,16.88,2.69,-5.75,1
817,16.89,-0.74,-7.63,1
818,16.91,-5.03,-9.29,1
819,16.92,-2.77,-4.43,1
820,16.93,-0.14,-7.86,1
821,16.95,1.6,-20.41,1
822,16.96,5.19,-17.48,1
823,16.97,5.91,-6.02,1
824,16.99,3.47,-17.59,1
825,17.0,4.53,-36.24,1
826,17.01,8.16,-28.81,1
827,17.03,7.84,-15.68,1
828,17.04,1.08,-24.14,1
829,17.05,-9.16,-36.35,1
830,17.06,-11.04,-34.3,1
831,17.08,-2.66,-29.2,1
832,17.09,0.51,-27.42,1
833,17.1,-0.86,-24.58,1
834,17.12,1.93,-24.8,1
835,17.13,1.05,-28.84,1
836,17.14,-4.19,-28.97,1
837,17.16,-4.97,-24.52,1
838,17.17,-3.73,-21.8,1
839,17.18,-3.39,-24.73,1
840,17.2,-0.9,-30.1,1
841,17.21,1.77,-32.3,1
842,17.22,0.73,-31.26,1
843,17.24,-0.5,-27.12,1
844,17.25,0.74,-23.72,1
845,17.26,4.26,-32.38,1
846,17.28,9.1,-45.19,1
847,17.29,7.68,-40.98,1
848,17.3,-2.08,-25.12,1
849,17.32,-7.14,-19.3,1
850,17.33,-2.34,-26.66,1
851,17.35,1.76,-31.46,1
852,17.36,0.6,-24.96,1
853,17.37,-0.05,-19.42,1
854,17.39,2.06,-25.33,1
855,17.4,2.8,-29.98,1
856,17.41,-1.81,-25.3,1
857,17.43,-9.3,-24.02,1
858,17.44,-14.86,-27.37,1
859,17.45,-12.57,-23.87,1
860,17.47,-2.45,-17.9,1
861,17.48,-0.51,-18.41,1
862,17.49,-9.5,-19.18,1
863,17.51,-6.61,-17.1,1
864,17.52,7.52,-20.25,1
865,17.53,7.76,-27.6,1
866,17.55,-3.08,-28.95,1
867,17.56,-5.52,-21.59,1
868,17.57,-1.5,-11.36,1
869,17.59,1.15,-4.83,1
870,17.6,1.12,-4.39,1
871,17.61,-3.97,-6.7,1
872,17.63,-8.02,-7.48,1
873,17.64,-3.25,-7.75,1
874,17.65,1.16,-11.82,1
875,17.67,-1.78,-16.65,1
876,17.68,-2.19,-15.7,1
877,17.69,2.22,-10.66,1
878,17.7,0.66,-5.92,1
879,17.72,-2.8,0.43,1
880,17.73,3.17,5.33,1
881,17.75,7.41,0.88,1
882,17.76,-2.33,-4.63,1
883,17.77,-10.95,1.21,1
884,17.78,-5.79,10.18,1
885,17.8,-0.63,10.96,1
886,17.81,-4.68,7.83,1
887,17.82,-7.04,4.77,1
888,17.84,-3.56,0.68,1
889,17.85,-2.56,1.73,1
890,17.86,-2.09,9.45,1
891,17.88,4.85,12.77,1
892,17.89,11.06,7.28,1
893,17.9,6.31,-0.06,1
894,17.92,-2.84,-0.74,1
895,17.93,-4.2,5.05,1
896,17.94,0.49,4.94,1
897,17.96,2.1,-4.89,1
898,17.97,-1.5,-5.99,1
899,17.99,-7.9,10.36,1
900,18.0,-12.11,23.19,1
901,18.01,-10.8,18.08,1
902,18.03,-7.83,12.54,1
903,18.04,-5.49,20.94,1
904,18.05,2.87,31.14,1
905,18.07,13.73,29.68,1
906,18.08,8.54,20.71,1
907,18.09,-7.32,14.77,1
908,18.11,-4.36,14.67,1
909,18.12,14.23,15.9,1
910,18.13,19.66,18.15,1
911,18.15,13.74,25.73,1
912,18.16,11.19,29.92,0
913,18.17,4.48,20.49,0
914,18.19,-9.41,-0.24,0
915,18.2,-9.07,-45.84,0
916,18.21,11.87,-114.93,0
917,18.23,27.96,-152.7,0
918,18.24,26.81,-142.01,0
919,18.25,21.66,-136.72,0
920,18.27,16.56,-150.57,0
921,18.28,6.91,-147.03,0
922,18.29,-0.97,-129.47,0
923,18.31,1.9,-120.8,0
924,18.32,9.75,-104.74,0
925,18.33,9.96,-66.3,0
926,18.34,0.52,-23.33,0
927,18.36,-13.2,12.91,0
928,18.37,-23.75,48.22,0
929,18.38,-20.12,81.54,0
930,18.4,-6.32,111.43,0
931,18.41,-3.25,139.67,0
932,18.42,-13.98,161.21,0
933,18.44,-20.58,171.35,0
934,18.45,-15.87,175.98,0
935,18.46,-11.22,186.53,0
936,18.48,-12.23,202.52,0
937,18.49,-8.06,208.06,0
938,18.5,4.53,196.91,0
939,18.52,10.42,177.26,0
940,18.53,-1.68,154.95,0
941,18.54,-20.0,133.7,0
942,18.56,-21.25,116.59,1
943,18.57,-7.33,103.9,1
944,18.58,0.18,95.69,1
945,18.6,-0.24,89.34,1
946,18.61,-2.83,79.96,1
947,18.63,-7.8,65.73,1
948,18.64,-7.95,49.62,1
949,18.65,-3.39,40.51,1
950,18.67,-1.28,38.67,1
951,18.68,5.14,30.41,1
952,18.69,24.76,14.07,1
953,18.71,41.49,4.59,1
954,18.72,24.57,7.45,1
955,18.73,-14.97,10.69,1
956,18.75,-29.14,3.5,1
957,18.76,-15.58,-6.32,1
958,18.77,-9.85,-11.54,1
959,18.79,-8.55,-23.62,1
960,18.8,10.4,-39.77,1
961,18.81,31.01,-41.6,1
962,18.83,25.93,-35.38,1
963,18.84,4.18,-37.39,1
964,18.85,-7.28,-41.36,1
965,18.87,-3.82,-41.39,1
966,18.88,4.98,-45.65,1
967,18.89,9.63,-49.8,1
968,18.91,2.93,-44.01,1
969,18.92,-9.13,-38.56,1
970,18.93,-12.18,-43.06,1
971,18.95,-1.06,-49.71,1
972,18.96,11.73,-54.66,1
973,18.97,10.57,-58.83,1
974,18.98,-0.5,-54.42,1
975,19.0,-8.96,-41.01,1
976,19.01,-8.11,-33.54,1
977,19.02,0.2,-40.02,1
978,19.04,3.0,-50.97,1
979,19.05,0.9,-56.79,1
980,19.06,8.36,-58.92,1
981,19.08,12.86,-57.2,1
982,19.09,-0.55,-52.55,1
983,19.1,-12.36,-52.84,1
984,19.12,-11.63,-53.48,1
985,19.13,-8.0,-45.57,1
986,19.14,-0.87,-39.81,1
987,19.16,7.6,-44.81,1
988,19.17,8.3,-46.66,1
989,19.18,3.34,-40.07,1
990,19.2,-1.88,-41.49,1
991,19.21,-2.74,-52.87,1
992,19.22,5.17,-53.06,1
993,19.24,11.95,-38.68,1
994,19.25,9.39,-31.37,1
995,19.27,10.51,-35.92,1
996,19.28,12.54,-38.29,1
997,19.29,-1.45,-37.74,1
998,19.31,-14.03,-40.69,1
999,19.32,-1.89,-41.3,1
1000,19.33,15.78,-34.14,1
1001,19.35,10.45,-26.78,1
1002,19.36,-11.52,-24.21,1
1003,19.37,-23.48,-21.91,1
1004,19.39,-17.04,-21.79,1
1005,19.4,-5.26,-26.33,1
1006,19.41,1.6,-22.65,1
1007,19.43,7.13,-8.86,1
1008,19.44,13.41,-6.61,1
1009,19.45,6.47,-19.22,1
1010,19.47,-12.95,-23.61,1
1011,19.48,-16.38,-13.06,1
1012,19.49,-1.55,-6.45,1
1013,19.51,6.33,-12.16,1
1014,19.52,8.77,-14.8,1
1015,19.53,18.05,-3.36,1
1016,19.55,18.65,8.29,1
1017,19.56,-1.5,6.66,1
1018,19.57,-16.65,2.33,1
1019,19.59,-5.36,3.0,1
1020,19.6,10.11,0.97,1
1021,19.61,4.97,-1.91,1
1022,19.62,-7.27,2.2,1
1023,19.64,-6.81,7.15,1
1024,19.65,-0.7,7.68,1
1025,19.67,1.1,10.23,1
1026,19.68,4.82,13.8,1
1027,19.69,12.66,15.23,1
1028,19.7,15.71,20.12,1
1029,19.72,5.57,23.2,1
1030,19.73,-13.33,15.51,1
1031,19.75,-21.15,5.23,1
1032,19.76,-13.42,2.8,1
1033,19.77,-6.84,6.28,1
1034,19.78,-2.35,10.45,1
1035,19.8,8.4,11.78,1
1036,19.81,13.35,8.78,1
1037,19.82,-0.44,6.19,1
1038,19.84,-15.5,7.74,1
1039,19.85,-10.57,7.97,1
1040,19.86,2.89,6.48,1
1041,19.88,9.93,12.87,1
1042,19.89,11.17,24.71,1
1043,19.9,1.82,28.2,1
1044,19.92,-10.68,26.74,1
1045,19.93,-3.47,31.03,1
1046,19.95,16.41,34.82,1
1047,19.96,19.18,30.83,1
1048,19.97,7.32,21.95,1
1049,19.99,3.17,12.68,1
1050,20.0,2.94,8.9,1
1051,20.01,-7.78,11.18,1
1052,20.03,-21.22,13.08,1
1053,20.04,-21.08,15.86,1
1054,20.05,-8.39,21.03,1
1055,20.07,-0.5,21.28,1
1056,20.08,-8.42,16.16,1
1057,20.09,-19.93,15.74,1
1058,20.11,-16.64,24.78,1
1059,20.12,-1.58,33.95,1
1060,20.13,7.68,33.24,1
1061,20.15,8.39,27.06,1
1062,20.16,11.44,26.81,2
1063,20.17,13.16,54.23,2
1064,20.19,0.64,126.62,2
1065,20.2,-17.05,219.23,2
1066,20.21,-23.8,291.9,2
1067,20.23,-24.51,323.84,2
1068,20.24,-25.29,298.76,2
1069,20.25,-24.13,222.97,2
1070,20.26,-21.95,137.86,2
1071,20.28,-20.0,77.6,2
1072,20.29,-15.82,39.02,2
1073,20.3,-4.43,-9.1,2
1074,20.32,4.0,-79.58,2
1075,20.33,-5.68,-150.59,2
1076,20.34,-11.81,-202.36,2
1077,20.36,4.15,-223.74,2
1078,20.37,18.24,-210.96,2
1079,20.38,20.45,-188.76,2
1080,20.4,27.19,-178.63,2
1081,20.41,35.33,-162.62,2
1082,20.42,30.09,-133.51,2
1083,20.44,17.12,-119.21,2
1084,20.45,10.8,-122.99,2
1085,20.46,11.03,-117.69,2
1086,20.48,16.33,-102.53,2
1087,20.49,28.68,-93.66,2
1088,20.5,36.42,-89.46,2
1089,20.52,32.52,-81.11,2
1090,20.53,31.52,-69.33,2
1091,20.54,39.18,-62.83,2
1092,20.56,39.63,-61.9,1
1093,20.57,24.51,-61.22,1
1094,20.59,6.42,-60.3,1
1095,20.6,-3.71,-53.96,1
1096,20.61,-7.71,-38.72,1
1097,20.63,-6.64,-23.29,1
1098,20.64,-3.47,-14.04,1
1099,20.65,-7.04,-11.01,1
1100,20.67,-14.93,-12.0,1
1101,20.68,-17.11,-12.78,1
1102,20.69,-9.95,-10.17,1
1103,20.71,4.48,-1.47,1
1104,20.72,11.58,10.47,1
1105,20.73,0.07,19.18,1
1106,20.75,-14.27,26.75,1
1107,20.76,-17.87,33.19,1
1108,20.77,-19.2,27.91,1
1109,20.79,-20.86,14.81,1
1110,20.8,-15.34,13.86,1
1111,20.81,-7.34,25.48,1
1112,20.83,-5.07,31.2,1
1113,20.84,-6.02,28.53,1
1114,20.85,-9.02,31.27,1
1115,20.87,-13.51,38.65,1
1116,20.88,-9.78,39.4,1
1117,20.89,1.36,38.58,1
1118,20.9,3.78,43.95,1
1119,20.92,-4.29,45.32,1
1120,20.93,-7.23,38.91,1
1121,20.94,-1.25,41.22,1
1122,20.96,2.36,52.61,1
1123,20.97,-2.84,52.19,1
1124,20.98,-12.08,39.81,1
1125,21.0,-14.84,33.96,1
1126,21.01,-7.58,35.82,1
1127,21.02,-1.37,38.88,1
1128,21.04,-5.01,46.68,1
1129,21.05,-10.43,54.41,1
1130,21.06,-9.64,49.44,1
1131,21.08,-7.64,38.12,1
1132,21.09,-9.05,35.8,1
1133,21.1,-6.07,38.81,1
1134,21.12,5.43,36.34,1
1135,21.13,8.81,30.91,1
1136,21.14,-5.99,27.57,1
1137,21.16,-17.38,24.59,1
1138,21.17,-7.8,22.54,1
1139,21.18,7.84,22.45,1
1140,21.2,10.89,23.91,1
1141,21.21,4.59,28.57,1
1142,21.23,-0.6,31.16,1
1143,21.24,-0.47,23.56,1
1144,21.25,3.32,17.21,1
1145,21.27,1.04,23.62,1
1146,21.28,-8.76,28.85,1
1147,21.29,-14.24,21.0,1
1148,21.31,-14.41,8.69,1
1149,21.32,-12.58,3.4,1
1150,21.33,-3.44,4.46,1
1151,21.35,6.37,4.6,1
1152,21.36,4.49,2.33,1
1153,21.37,-1.53,3.02,1
1154,21.39,0.04,8.5,1
1155,21.4,5.01,10.49,1
1156,21.41,8.18,4.74,1
1157,21.43,12.12,-0.34,1
1158,21.44,10.2,-0.39,1
1159,21.45,-1.18,4.37,1
1160,21.47,-5.49,10.7,1
1161,21.48,3.44,6.32,1
1162,21.49,10.62,-5.07,1
1163,21.51,8.18,-4.94,1
1164,21.52,0.21,-1.09,1
1165,21.53,-4.79,-8.6,1
1166,21.54,-2.48,-12.71,1
1167,21.56,0.76,-5.02,1
1168,21.57,-0.53,-3.93,1
1169,21.58,-1.69,-11.36,1
1170,21.6,1.19,-11.9,1
1171,21.61,0.6,-10.39,1
1172,21.62,-6.96,-16.38,1
1173,21.64,-7.91,-20.16,1
1174,21.65,4.74,-15.45,1
1175,21.67,14.75,-11.1,1
1176,21.68,9.8,-14.18,1
1177,21.69,0.49,-18.73,1
1178,21.7,-3.35,-14.33,1
1179,21.72,-6.82,-7.23,1
1180,21.73,-7.3,-9.77,1
1181,21.75,6.44,-11.65,1
1182,21.76,22.94,-2.39,1
1183,21.77,19.61,1.0,1
1184,21.78,4.09,-9.32,1
1185,21.8,-2.95,-14.83,1
1186,21.81,-2.65,-12.77,1
1187,21.82,-1.98,-16.2,1
1188,21.84,-1.61,-19.27,1
1189,21.85,-5.06,-14.08,1
1190,21.87,-8.86,-10.56,1
1191,21.88,-5.87,-15.73,1
1192,21.89,-2.56,-22.15,1
1193,21.91,-5.72,-20.64,1
1194,21.92,-7.56,-12.18,1
1195,21.93,-3.23,-5.86,1
1196,21.95,0.91,-6.85,1
1197,21.96,1.32,-10.07,1
1198,21.97,-0.15,-9.0,1
1199,21.99,1.79,-7.41,1
1200,22.0,14.05,-9.23,1
1201,22.01,26.51,-11.07,1
1202,22.03,20.4,-14.9,1
1203,22.04,1.73,-21.33,1
1204,22.05,-10.93,-20.03,1
1205,22.07,-11.21,-14.62,1
1206,22.08,-1.47,-20.74,1
1207,22.09,5.35,-32.46,1
1208,22.11,-2.58,-33.76,1
1209,22.12,-11.51,-23.34,1
1210,22.13,-2.96,-9.13,1
1211,22.15,12.27,-6.59,1
1212,22.16,14.61,-34.74,2
1213,22.17,6.57,-72.69,2
1214,22.18,4.2,-52.82,2
1215,22.2,16.52,41.79,2
1216,22.21,29.56,154.11,2
1217,22.22,22.21,199.37,2
1218,22.24,-0.14,156.68,2
1219,22.25,-17.68,166.3,2
1220,22.26,-15.71,280.47,2
1221,22.28,-0.78,304.83,2
1222,22.29,9.42,105.75,2
1223,22.3,29.1,-134.43,2
1224,22.32,41.81,-76.96,2
1225,22.33,1.18,184.17,2
1226,22.34,-45.04,180.97,2
1227,22.36,-42.02,19.68,2
1228,22.37,-15.74,136.14,2
1229,22.38,21.26,321.02,2
1230,22.4,34.6,187.38,2
1231,22.41,-28.85,-100.93,2
1232,22.42,-87.84,-149.68,2
1233,22.44,-32.24,54.35,2
1234,22.45,41.75,136.81,2
1235,22.46,-7.36,26.94,2
1236,22.48,-80.2,7.52,2
1237,22.49,-25.5,56.24,2
1238,22.5,70.34,-21.12,2
1239,22.52,64.8,-108.9,2
1240,22.53,3.08,-75.79,2
1241,22.55,-8.11,-83.06,1
1242,22.56,11.1,-178.5,1
1243,22.57,-7.43,-182.02,1
1244,22.59,-30.63,-118.01,1
1245,22.6,-3.31,-108.32,1
1246,22.61,23.58,-83.36,1
1247,22.63,9.23,-26.0,1
1248,22.64,19.5,-45.96,1
1249,22.65,41.28,-130.06,1
1250,22.67,-17.86,-167.81,1
1251,22.68,-68.21,-146.89,1
1252,22.69,6.41,-151.87,1
1253,22.71,62.29,-208.67,1
1254,22.72,-1.43,-231.77,1
1255,22.73,-16.26,-176.29,1
1256,22.75,80.83,-165.32,1
1257,22.76,122.56,-267.44,1
1258,22.77,72.69,-280.59,1
1259,22.79,35.39,-143.5,1
1260,22.8,-10.58,-140.51,1
1261,22.81,-88.91,-297.44,1
1262,22.82,-99.08,-371.66,1
1263,22.84,-30.49,-334.32,1
1264,22.85,-13.76,-197.89,1
1265,22.86,-76.61,13.13,1
1266,22.88,-104.0,88.22,1
1267,22.89,-65.68,-62.76,1
1268,22.9,-18.51,-240.04,1
1269,22.92,7.5,-231.21,1
1270,22.93,-9.4,-107.85,1
1271,22.94,-29.74,-89.04,1
1272,22.96,2.14,-177.48,1
1273,22.97,31.93,-215.23,1
1274,22.98,14.57,-146.58,1
1275,23.0,3.32,-61.36,1
1276,23.01,14.37,-30.75,1
1277,23.02,1.33,-37.24,1
1278,23.04,0.07,-68.34,1
1279,23.05,53.13,-58.97,1
1280,23.06,60.78,26.47,1
1281,23.08,-14.59,76.22,1
1282,23.09,-56.94,47.21,1
1283,23.1,-38.59,36.45,1
1284,23.12,-18.69,104.89,1
1285,23.13,-10.13,160.49,1
1286,23.14,-15.62,116.54,1
1287,23.16,-9.75,85.42,1
1288,23.17,33.51,136.45,1
1289,23.19,45.38,199.21,1
1290,23.2,-7.65,236.5,1
1291,23.21,-41.3,187.03,1
1292,23.23,-5.94,69.8,1
1293,23.24,50.13,66.24,1
1294,23.25,59.02,195.64,1
1295,23.27,9.1,268.79,1
1296,23.28,-40.5,224.1,1
1297,23.29,-29.44,179.52,1
1298,23.31,22.52,196.71,1
1299,23.32,28.34,213.03,1
1300,23.33,-30.47,176.0,1
1301,23.35,-56.36,115.07,1
1302,23.36,-4.86,78.51,1
1303,23.37,40.07,87.22,1
1304,23.39,20.78,137.13,1
1305,23.4,-17.0,163.64,1
1306,23.41,-26.3,114.6,1
1307,23.43,-11.28,56.89,1
1308,23.44,21.47,61.66,1
1309,23.45,55.29,88.33,1
1310,23.46,41.95,78.37,1
1311,23.48,-5.8,76.33,1
1312,23.49,-13.8,114.23,1
1313,23.5,10.94,133.75,1
1314,23.52,5.62,137.11,1
1315,23.53,-24.8,95.52,1
1316,23.54,-25.42,-33.36,1
1317,23.56,16.83,-51.41,1
1318,23.57,47.09,116.29,1
1319,23.58,20.48,174.69,1
1320,23.6,-21.77,77.71,1
1321,23.61,-25.62,79.82,1
1322,23.62,-19.86,127.62,1
1323,23.64,-28.81,82.69,1
1324,23.65,-15.6,60.38,1
1325,23.67,29.71,103.53,1
1326,23.68,66.67,124.96,1
1327,23.69,56.01,99.2,1
1328,23.7,20.54,71.56,1
1329,23.72,18.0,76.58,1
1330,23.73,43.6,60.05,1
1331,23.75,50.96,22.57,1
1332,23.76,24.45,24.84,1
1333,23.77,-7.17,-2.72,1
1334,23.78,-6.84,-66.71,1
1335,23.8,7.47,-70.19,1
1336,23.81,4.95,-43.96,1
1337,23.83,-0.6,2.32,1
1338,23.84,-17.64,80.55,1
1339,23.85,-56.27,85.02,1
1340,23.87,-64.56,31.46,1
1341,23.88,-22.08,26.11,1
1342,23.89,16.2,42.09,1
1343,23.91,9.09,57.01,1
1344,23.92,-21.38,74.66,1
1345,23.93,-34.47,35.29,1
1346,23.95,-17.1,-26.43,1
1347,23.96,29.95,-18.09,1
1348,23.97,66.86,-1.1,1
1349,23.99,38.61,-36.38,1
1350,24.0,-22.53,-57.07,1
1351,24.01,-42.16,-66.57,1
1352,24.03,-13.59,-118.37,1
1353,24.04,13.6,-155.63,1
1354,24.05,13.4,-104.5,1
1355,24.07,5.38,11.24,1
1356,24.08,-3.91,102.6,1
1357,24.09,-21.82,78.38,1
1358,24.1,-21.11,-62.14,1
1359,24.12,10.09,-190.83,1
1360,24.13,32.81,-184.74,1
1361,24.14,17.28,-67.05,1
1362,24.16,-17.18,18.59,0
1363,24.17,-18.36,6.25,0
1364,24.18,22.33,-14.34,0
1365,24.2,38.93,-9.4,0
1366,24.21,9.82,-42.22,0
1367,24.22,-0.29,-78.56,0
1368,24.24,16.86,-49.29,0
1369,24.25,3.69,-12.84,0
1370,24.26,-22.82,-28.71,0
1371,24.28,-13.49,-46.44,0
1372,24.29,-1.51,-32.08,0
1373,24.3,-23.64,-27.35,0
1374,24.32,-42.87,-60.57,0
1375,24.33,-30.52,-113.66,0
1376,24.34,-10.0,-184.02,0
1377,24.36,1.96,-294.34,0
1378,24.37,11.13,-418.26,0
1379,24.38,17.02,-481.12,0
1380,24.4,15.73,-453.55,0
1381,24.41,8.21,-374.04,0
1382,24.42,1.46,-278.94,0
1383,24.44,-0.71,-173.89,0
1384,24.45,-8.3,-69.91,0
1385,24.465,-20.37,8.09,0
1386,24.48,-19.1,56.15,0
1387,24.49,-7.08,89.83,0
1388,24.51,-4.73,115.04,0
1389,24.52,-13.92,126.37,0
1390,24.53,-16.92,124.95,0
1391,24.55,-7.49,123.84,1
1392,24.56,-5.27,132.18,1
1393,24.57,-18.86,138.23,1
1394,24.59,-24.44,129.53,1
1395,24.6,-11.87,116.67,1
1396,24.61,-1.94,113.8,1
1397,24.63,-5.94,116.96,1
1398,24.64,-12.87,112.69,1
1399,24.65,-13.79,94.82,1
1400,24.67,-9.62,75.79,1
1401,24.68,-1.93,73.28,1
1402,24.69,4.9,82.18,1
1403,24.71,3.79,83.73,1
1404,24.72,-1.73,74.77,1
1405,24.73,0.48,64.91,1
1406,24.75,10.69,60.83,1
1407,24.76,14.41,61.81,1
1408,24.77,7.34,60.57,1
1409,24.78,1.65,55.84,1
1410,24.8,-0.92,57.57,1
1411,24.81,-9.54,61.23,1
1412,24.82,-12.97,49.17,1
1413,24.84,-0.46,29.4,1
1414,24.85,9.6,23.13,1
1415,24.86,9.31,25.95,1
1416,24.88,10.98,23.95,1
1417,24.89,4.14,17.16,1
1418,24.9,-32.5,9.08,1
1419,24.92,-73.58,4.52,1
1420,24.93,-64.34,5.92,1
1421,24.94,-10.7,2.22,1
1422,24.96,26.0,-9.01,1
1423,24.97,25.58,-13.28,1
1424,24.98,23.11,-4.28,1
1425,25.0,31.61,8.58,1
1426,25.01,17.04,7.49,1
1427,25.02,-11.23,-12.26,1
1428,25.04,12.5,-27.72,1
1429,25.05,70.55,-19.95,1
1430,25.06,75.39,-5.56,1
1431,25.08,29.75,-7.8,1
1432,25.09,2.78,-19.32,1
1433,25.1,8.19,-22.77,1
1434,25.12,14.42,-21.32,1
1435,25.13,9.49,-26.58,1
1436,25.15,6.08,-33.82,1
1437,25.16,7.89,-32.2,1
1438,25.17,4.06,-23.1,1
1439,25.19,-5.72,-12.67,1
1440,25.2,-9.19,-11.61,1
1441,25.21,-4.25,-26.28,1
1442,25.23,0.66,-36.02,1
1443,25.24,3.18,-26.93,1
1444,25.25,3.73,-21.34,1
1445,25.27,-0.26,-26.67,1
1446,25.28,-4.7,-24.62,1
1447,25.29,-3.25,-19.11,1
1448,25.31,0.39,-25.72,1
1449,25.32,0.7,-36.17,1
1450,25.33,1.36,-35.86,1
1451,25.35,1.82,-29.19,1
1452,25.36,-6.98,-25.6,1
1453,25.37,-19.6,-23.29,1
1454,25.38,-16.86,-22.81,1
1455,25.4,1.32,-28.02,1
1456,25.41,12.04,-33.85,1
1457,25.42,7.85,-33.22,1
1458,25.44,4.67,-28.8,1
1459,25.45,6.62,-27.27,1
1460,25.46,7.56,-25.1,1
1461,25.48,10.93,-17.14,1
1462,25.49,14.95,-14.33,1
1463,25.5,7.86,-23.58,1
1464,25.52,-11.41,-31.74,1
1465,25.53,-22.72,-27.97,1
1466,25.54,-11.33,-19.53,1
1467,25.56,1.17,-18.12,1
1468,25.57,-4.47,-20.4,1
1469,25.58,-7.68,-17.56,1
1470,25.6,4.54,-15.48,1
1471,25.61,10.25,-20.05,1
1472,25.62,0.7,-21.16,1
1473,25.64,-4.71,-8.53,1
1474,25.65,1.4,7.0,1
1475,25.67,5.94,4.3,1
1476,25.68,0.02,-12.18,1
1477,25.69,-10.72,-18.23,1
1478,25.7,-12.46,-10.47,1
1479,25.72,-4.49,-1.88,1
1480,25.73,-3.01,1.87,1
1481,25.75,-9.79,1.07,1
1482,25.76,-9.47,-0.53,1
1483,25.77,-3.33,-1.95,1
1484,25.79,-2.81,-5.95,1
1485,25.8,-2.8,-6.83,1
1486,25.81,2.02,-0.07,1
1487,25.83,4.35,3.77,1
1488,25.84,1.85,-0.67,1
1489,25.85,-4.26,0.37,1
1490,25.87,-13.68,11.87,1
1491,25.88,-18.88,18.99,1
1492,25.89,-11.16,12.19,1
1493,25.91,3.3,0.43,1
1494,25.92,8.82,-0.75,1
1495,25.93,7.4,5.1,1
1496,25.95,9.35,0.32,1
1497,25.96,6.01,-9.63,1
1498,25.97,-6.43,-4.97,1
1499,25.99,-7.66,12.39,1
1500,26.0,10.66,23.0,1
1501,26.01,21.62,19.21,1
1502,26.02,5.21,14.1,1
1503,26.04,-16.53,14.9,1
1504,26.05,-16.69,15.85,1
1505,26.06,-3.54,17.08,1
1506,26.08,4.81,18.77,1
1507,26.09,6.18,17.92,1
1508,26.1,4.02,16.38,1
1509,26.12,1.49,12.9,1
1510,26.13,-1.47,7.71,1
1511,26.14,-2.93,8.64,1
1512,26.16,3.09,15.55,0
1513,26.17,3.93,16.69,0
1514,26.18,-14.51,7.73,0
1515,26.2,-28.8,-1.76,0
1516,26.21,-14.89,-2.16,0
1517,26.22,7.88,4.54,0
1518,26.24,12.46,10.04,0
1519,26.25,5.32,1.27,0
1520,26.26,3.2,-39.74,0
1521,26.28,9.05,-103.9,0
1522,26.29,20.64,-153.45,0
1523,26.3,33.84,-177.66,0
1524,26.32,39.1,-186.76,0
1525,26.33,23.7,-173.45,0
1526,26.34,-0.36,-138.21,0
1527,26.36,4.94,-101.59,0
1528,26.37,30.78,-75.93,0
1529,26.38,25.91,-54.44,0
1530,26.4,-10.33,-22.16,0
1531,26.41,-34.88,20.25,0
1532,26.43,-32.98,54.61,0
1533,26.44,-33.12,72.42,0
1534,26.45,-64.95,87.67,0
1535,26.47,-85.07,118.1,0
1536,26.48,-43.32,153.71,0
1537,26.49,-3.53,166.56,0
1538,26.51,-10.83,159.02,0
1539,26.52,-6.82,160.31,0
1540,26.53,18.79,177.77,0
1541,26.55,14.9,191.41,1
1542,26.56,-12.18,188.66,1
1543,26.57,-11.9,179.29,1
1544,26.59,14.57,170.01,1
1545,26.6,22.14,149.26,1
1546,26.61,1.73,125.29,1
1547,26.63,-12.57,122.97,1
1548,26.64,-4.84,127.03,1
1549,26.65,4.29,110.13,1
1550,26.67,6.44,88.98,1
1551,26.68,11.26,80.09,1
1552,26.69,15.51,67.6,1
1553,26.7,16.04,52.01,1
1554,26.72,17.03,47.65,1
1555,26.73,13.58,39.61,1
1556,26.75,4.74,17.42,1
1557,26.76,0.54,7.87,1
1558,26.77,2.35,18.01,1
1559,26.78,2.44,15.22,1
1560,26.8,1.14,-6.72,1
1561,26.81,1.64,-19.94,1
1562,26.82,1.49,-18.2,1
1563,26.84,1.94,-19.58,1
1564,26.85,5.52,-28.78,1
1565,26.86,9.61,-32.78,1
1566,26.88,13.81,-25.05,1
1567,26.89,15.08,-19.38,1
1568,26.9,6.4,-29.38,1
1569,26.92,-5.67,-42.73,1
1570,26.93,-7.74,-45.35,1
1571,26.94,-1.52,-44.69,1
1572,26.96,-0.7,-45.49,1
1573,26.97,-7.34,-44.19,1
1574,26.98,-8.27,-45.49,1
1575,27.0,0.03,-50.25,1
1576,27.01,6.89,-52.29,1
1577,27.02,6.44,-53.7,1
1578,27.04,3.8,-56.04,1
1579,27.05,2.98,-55.94,1
1580,27.065,-0.09,-57.65,1
1581,27.08,-5.39,-61.6,1
1582,27.09,-5.76,-59.34,1
1583,27.11,-0.61,-54.97,1
1584,27.12,4.97,-57.81,1
1585,27.13,6.06,-62.12,1
1586,27.15,-0.83,-57.86,1
1587,27.16,-7.31,-49.93,1
1588,27.17,-0.28,-51.99,1
1589,27.19,10.17,-60.78,1
1590,27.2,6.59,-60.05,1
1591,27.21,-2.86,-51.59,1
1592,27.23,-3.77,-48.41,1
1593,27.24,0.61,-51.64,1
1594,27.25,2.98,-52.46,1
1595,27.27,5.42,-45.15,1
1596,27.28,11.32,-37.21,1
1597,27.29,12.01,-39.44,1
1598,27.3,2.22,-44.16,1
1599,27.32,-4.55,-39.14,1
1600,27.33,-2.07,-33.21,1
1601,27.34,1.89,-36.06,1
1602,27.36,6.23,-37.34,1
1603,27.37,7.08,-31.29,1
1604,27.38,1.02,-29.87,1
1605,27.4,2.58,-35.43,1
1606,27.41,10.84,-33.85,1
1607,27.42,0.95,-23.28,1
1608,27.44,-20.29,-16.46,1
1609,27.45,-20.1,-16.07,1
1610,27.46,-2.56,-17.46,1
1611,27.48,3.1,-20.73,1
1612,27.49,-3.83,-23.03,1
1613,27.5,-7.82,-18.65,1
1614,27.52,-8.49,-7.8,1
1615,27.53,-9.58,0.93,1
1616,27.54,-5.76,-3.96,1
1617,27.56,4.24,-18.76,1
1618,27.57,8.61,-20.64,1
1619,27.58,3.34,-4.71,1
1620,27.6,1.91,6.92,1
1621,27.61,8.08,6.08,1
1622,27.62,9.11,7.2,1
1623,27.64,0.47,10.33,1
1624,27.65,-8.76,4.84,1
1625,27.67,-9.12,0.08,1
1626,27.68,-0.89,4.96,1
1627,27.69,2.43,8.57,1
1628,27.7,-6.01,9.75,1
1629,27.72,-7.34,15.91,1
1630,27.73,7.76,18.59,1
1631,27.75,16.76,12.37,1
1632,27.76,6.8,4.86,1
1633,27.77,-4.28,0.81,1
1634,27.79,-3.16,4.16,1
1635,27.8,2.58,16.92,1
1636,27.81,4.64,28.2,1
1637,27.83,-1.49,27.27,1
1638,27.84,-10.4,19.6,1
1639,27.85,-7.21,14.05,1
1640,27.87,1.74,9.4,1
1641,27.88,1.01,2.79,1
1642,27.89,-2.08,-1.58,1
1643,27.91,-2.63,2.18,1
1644,27.92,-8.29,12.48,1
1645,27.93,-12.91,21.05,1
1646,27.94,-5.68,21.99,1
1647,27.96,7.08,18.38,1
1648,27.97,10.38,16.12,1
1649,27.98,4.57,16.21,1
1650,28.0,0.98,15.99,1
1651,28.01,-0.09,13.12,1
1652,28.02,0.43,9.31,1
1653,28.04,10.13,11.84,1
1654,28.05,20.13,22.26,1
1655,28.06,15.23,27.6,1
1656,28.08,5.33,19.14,1
1657,28.09,1.75,12.1,1
1658,28.1,-2.09,20.54,1
1659,28.12,-7.28,31.25,1
1660,28.13,-8.11,28.76,1
1661,28.14,-3.81,19.5,1
1662,28.16,4.99,15.54,2
1663,28.17,8.26,21.9,2
1664,28.18,-2.71,47.88,2
1665,28.2,-9.46,107.4,2
1666,28.21,0.2,198.55,2
1667,28.22,2.29,290.39,2
1668,28.24,-15.2,333.4,2
1669,28.25,-29.03,292.18,2
1670,28.26,-28.13,209.42,2
1671,28.28,-25.43,168.45,2
1672,28.29,-27.21,142.23,2
1673,28.3,-28.17,53.52,2
1674,28.32,-22.42,-57.91,2
1675,28.33,-8.75,-125.26,2
1676,28.34,5.14,-165.69,2
1677,28.36,10.41,-195.96,2
1678,28.37,7.44,-196.6,2
1679,28.39,3.24,-173.21,2
1680,28.4,4.56,-154.09,2
1681,28.41,8.59,-148.82,2
1682,28.43,7.35,-146.82,2
1683,28.44,5.88,-137.79,2
1684,28.45,9.99,-121.04,2
1685,28.47,11.35,-102.57,2
1686,28.48,6.41,-90.26,2
1687,28.49,5.29,-89.2,2
1688,28.51,13.38,-94.21,2
1689,28.52,22.43,-91.28,2
1690,28.53,22.59,-77.37,2
1691,28.55,14.89,-64.97,1
1692,28.56,9.75,-61.8,1
1693,28.57,10.57,-61.81,1
1694,28.58,6.18,-59.9,1
1695,28.6,-2.15,-56.57,1
1696,28.61,2.44,-44.28,1
1697,28.62,13.14,-25.44,1
1698,28.64,10.82,-19.95,1
1699,28.65,3.38,-24.84,1
1700,28.67,4.03,-20.66,1
1701,28.68,2.96,-9.6,1
1702,28.69,-8.08,-0.37,1
1703,28.7,-14.98,7.64,1
1704,28.72,-9.4,11.65,1
1705,28.73,-2.94,8.88,1
1706,28.75,-1.11,7.19,1
1707,28.76,0.01,13.5,1
1708,28.77,-2.12,22.53,1
1709,28.78,-4.71,25.28,1
1710,28.8,-0.82,24.43,1
1711,28.81,3.65,27.41,1
1712,28.82,3.41,31.06,1
1713,28.84,1.68,33.33,1
1714,28.85,-2.01,37.69,1
1715,28.86,-6.83,35.85,1
1716,28.88,-8.58,21.87,1
1717,28.89,-7.46,15.57,1
1718,28.9,-4.26,29.69,1
1719,28.92,0.67,42.94,1
1720,28.93,2.68,42.59,1
1721,28.94,1.36,42.49,1
1722,28.96,1.82,43.63,1
1723,28.97,2.95,36.91,1
1724,28.98,1.22,29.54,1
1725,29.0,-2.6,32.82,1
1726,29.01,-9.68,44.01,1
1727,29.03,-17.25,46.28,1
1728,29.04,-11.87,34.92,1
1729,29.05,8.03,28.33,1
1730,29.07,20.71,32.57,1
1731,29.08,14.27,32.63,1
1732,29.09,-0.24,25.25,1
1733,29.11,-10.59,19.58,1
1734,29.12,-10.1,20.81,1
1735,29.13,-4.33,29.77,1
1736,29.15,-4.19,40.5,1
1737,29.16,-1.31,44.24,1
1738,29.17,12.34,39.54,1
1739,29.19,17.92,28.78,1
1740,29.2,5.33,14.15,1
1741,29.21,-4.7,0.82,1
1742,29.22,-7.76,-1.33,1
1743,29.24,-20.45,10.6,1
1744,29.25,-22.7,21.2,1
1745,29.26,8.23,17.44,1
1746,29.28,33.23,6.17,1
1747,29.29,16.47,3.21,1
1748,29.3,-11.41,12.36,1
1749,29.32,-15.97,19.43,1
1750,29.33,-10.3,13.87,1
1751,29.34,-8.03,3.18,1
1752,29.36,2.86,-1.0,1
1753,29.37,16.1,6.26,1
1754,29.38,9.1,19.72,1
1755,29.4,-7.3,26.55,1
1756,29.41,-11.4,22.47,1
1757,29.42,-15.35,16.28,1
1758,29.44,-24.66,12.1,1
1759,29.45,-11.45,7.09,1
1760,29.46,22.78,0.82,1
1761,29.48,34.08,-5.83,1
1762,29.49,15.59,-10.42,1
1763,29.5,4.06,-7.41,1
1764,29.52,4.83,2.64,1
1765,29.53,-3.77,9.82,1
1766,29.54,-16.28,5.7,1
1767,29.56,-15.57,-3.02,1
1768,29.57,-7.2,-4.32,1
1769,29.58,-3.01,-3.83,1
1770,29.6,-2.98,-11.79,1
1771,29.61,-5.25,-17.19,1
1772,29.62,-6.45,-10.38,1
1773,29.64,-0.91,-4.33,1
1774,29.65,4.62,-7.62,1
1775,29.67,1.35,-12.01,1
1776,29.68,-2.71,-10.44,1
1777,29.69,0.84,-3.52,1
1778,29.71,7.65,0.0,1
1779,29.72,10.99,-6.77,1
1780,29.73,11.4,-14.97,1
1781,29.75,11.21,-16.31,1
1782,29.76,8.19,-13.4,1
1783,29.77,3.35,-8.76,1
1784,29.79,1.02,-5.08,1
1785,29.8,-0.58,-5.49,1
1786,29.81,0.43,-7.42,1
1787,29.83,4.94,-8.58,1
1788,29.84,-1.51,-11.38,1
1789,29.85,-18.57,-14.38,1
1790,29.86,-19.16,-14.7,1
1791,29.88,-1.4,-14.96,1
1792,29.89,5.7,-15.05,1
1793,29.9,-4.43,-11.6,1
1794,29.92,-12.05,-6.59,1
1795,29.93,-10.8,-6.71,1
1796,29.94,-8.12,-14.73,1
1797,29.96,-6.05,-19.2,1
1798,29.97,-2.55,-12.1,1
1799,29.98,3.58,-7.89,1
1800,30.0,8.53,-13.31,1
1801,30.01,6.9,-17.39,1
1802,30.02,5.43,-20.99,1
1803,30.04,8.44,-23.93,1
1804,30.05,4.75,-18.73,1
1805,30.06,-4.65,-10.99,1
1806,30.08,-1.57,-5.64,1
1807,30.09,13.17,-3.49,1
1808,30.1,19.15,-8.66,1
1809,30.12,8.89,-15.82,1
1810,30.13,-6.64,-17.47,1
1811,30.14,-14.36,-16.47,1
1812,30.16,-7.89,-15.3,2
1813,30.17,4.24,2.5,2
1814,30.18,7.31,55.92,2
1815,30.2,14.98,119.59,2
1816,30.21,42.46,174.86,2
1817,30.22,60.96,193.26,2
1818,30.24,49.35,90.12,2
1819,30.25,22.66,-37.13,2
1820,30.26,-3.87,-22.13,2
1821,30.28,-11.77,22.98,2
1822,30.29,12.84,29.98,2
1823,30.3,47.43,139.47,2
1824,30.32,44.28,265.35,2
1825,30.33,-15.42,181.78,2
1826,30.35,-70.35,63.9,2
1827,30.36,-43.25,188.33,2
1828,30.37,15.34,329.15,2
1829,30.39,-6.4,240.48,2
1830,30.4,-60.36,116.46,2
1831,30.41,-23.84,107.72,2
1832,30.43,32.75,64.5,2
1833,30.44,-8.63,-99.17,2
1834,30.45,-64.86,-178.14,2
1835,30.47,-54.06,-57.66,2
1836,30.48,-31.84,-8.53,2
1837,30.49,-17.44,-181.19,2
1838,30.5,11.96,-327.6,2
1839,30.52,16.22,-291.38,2
1840,30.53,-37.65,-212.19,2
1841,30.54,-81.8,-195.07,2
1842,30.56,-38.3,-192.12,1
1843,30.57,42.34,-200.9,1
1844,30.58,42.0,-203.23,1
1845,30.6,-20.84,-128.77,1
1846,30.61,-27.35,-89.63,1
1847,30.62,-1.23,-144.59,1
1848,30.64,-23.16,-144.56,1
1849,30.65,-41.1,-121.48,1
1850,30.67,-10.6,-166.85,1
1851,30.68,8.92,-185.84,1
1852,30.69,-22.18,-177.93,1
1853,30.7,-56.5,-204.35,1
1854,30.72,-34.18,-184.55,1
1855,30.73,23.9,-88.47,1
1856,30.75,49.47,-33.46,1
1857,30.76,26.86,-98.89,1
1858,30.77,1.08,-177.61,1
1859,30.78,3.86,-121.23,1
1860,30.8,14.84,-13.34,1
1861,30.81,10.65,-24.95,1
1862,30.82,9.22,-100.04,1
1863,30.84,17.22,-99.96,1
1864,30.85,5.48,-56.99,1
1865,30.86,-13.29,-25.55,1
1866,30.88,-0.83,25.28,1
1867,30.89,24.81,50.07,1
1868,30.9,29.31,-1.46,1
1869,30.92,16.59,-47.62,1
1870,30.93,7.82,-17.94,1
1871,30.94,9.81,46.52,1
1872,30.96,9.09,50.45,1
1873,30.97,0.85,-15.45,1
1874,30.99,-6.82,-32.09,1
1875,31.0,-9.07,22.34,1
1876,31.01,-0.04,43.22,1
1877,31.03,5.0,41.07,1
1878,31.04,-4.29,65.23,1
1879,31.05,6.41,49.41,1
1880,31.07,37.08,-5.27,1
1881,31.08,40.24,6.46,1
1882,31.09,17.71,84.51,1
1883,31.11,9.77,121.86,1
1884,31.12,14.81,63.32,1
1885,31.13,7.57,-9.35,1
1886,31.14,-2.21,24.58,1
1887,31.16,1.38,106.07,1
1888,31.17,11.64,94.72,1
1889,31.18,15.5,73.78,1
1890,31.2,12.09,121.01,1
1891,31.21,23.83,94.48,1
1892,31.22,33.91,24.57,1
1893,31.24,2.57,63.72,1
1894,31.25,-19.82,108.73,1
1895,31.26,14.57,67.1,1
1896,31.28,35.92,51.13,1
1897,31.29,-0.02,109.9,1
1898,31.3,-29.04,145.78,1
1899,31.32,-14.81,89.57,1
1900,31.33,3.52,22.72,1
1901,31.34,5.65,48.97,1
1902,31.36,8.83,117.62,1
1903,31.37,12.52,122.33,1
1904,31.38,6.04,76.68,1
1905,31.4,4.57,70.45,1
1906,31.41,11.35,104.38,1
1907,31.42,1.22,84.78,1
1908,31.44,-13.95,31.75,1
1909,31.45,2.37,53.37,1
1910,31.46,34.37,92.04,1
1911,31.48,30.46,75.79,1
1912,31.49,-9.08,83.7,1
1913,31.5,-19.19,94.37,1
1914,31.52,16.38,42.83,1
1915,31.53,32.7,32.07,1
1916,31.54,13.09,94.1,1
1917,31.56,10.94,109.9,1
1918,31.57,24.77,56.65,1
1919,31.58,5.38,0.4,1
1920,31.6,-27.2,8.65,1
1921,31.61,-22.36,93.23,1
1922,31.63,-9.73,132.25,1
1923,31.64,-24.62,69.64,1
1924,31.65,-23.73,15.09,1
1925,31.67,4.61,-6.38,1
1926,31.68,9.74,-40.06,1
1927,31.69,-14.91,-26.29,1
1928,31.71,-31.84,51.23,1
1929,31.72,-19.32,81.97,1
1930,31.73,9.35,37.53,1
1931,31.75,23.19,10.92,1
1932,31.76,4.97,37.11,1
1933,31.77,-36.76,45.33,1
1934,31.78,-64.78,-0.96,1
1935,31.8,-54.47,-27.89,1
1936,31.81,-29.42,-0.93,1
1937,31.82,-14.4,4.44,1
1938,31.84,-4.1,-33.4,1
1939,31.85,-3.13,-40.02,1
1940,31.86,-29.13,-4.37,1
1941,31.88,-57.09,-9.96,1
1942,31.89,-44.5,-41.36,1
1943,31.9,-0.32,-11.45,1
1944,31.92,35.2,6.76,1
1945,31.93,32.26,-63.01,1
1946,31.94,-11.15,-92.16,1
1947,31.96,-44.27,-22.97,1
1948,31.97,-25.68,-4.45,1
1949,31.98,1.02,-62.19,1
1950,32.0,-3.42,-56.32,1
1951,32.01,-8.3,-1.79,1
1952,32.03,1.41,-0.89,1
1953,32.04,4.92,-32.99,1
1954,32.05,6.96,-60.15,1
1955,32.06,19.81,-55.23,1
1956,32.08,18.45,-1.53,1
1957,32.09,-2.31,18.8,1
1958,32.11,-2.99,-25.98,1
1959,32.12,12.85,-59.98,1
1960,32.13,17.0,-67.38,1
1961,32.15,18.81,-63.07,1
1962,32.16,5.55,-38.25,0
1963,32.17,-17.11,-15.94,0
1964,32.19,14.6,2.84,0
1965,32.2,54.44,32.01,0
1966,32.21,14.84,26.67,0
1967,32.22,-27.14,-27.74,0
1968,32.24,0.44,-78.38,0
1969,32.25,32.17,-115.7,0
1970,32.27,23.84,-179.08,0
1971,32.28,6.29,-254.7,0
1972,32.29,-2.86,-273.93,0
1973,32.31,-16.23,-225.04,0
1974,32.32,-26.37,-163.87,0
1975,32.33,-8.91,-123.26,0
1976,32.35,26.06,-94.12,0
1977,32.36,36.7,-54.53,0
1978,32.37,10.35,0.67,0
1979,32.39,-13.27,48.8,0
1980,32.4,-5.7,74.74,0
1981,32.41,9.04,85.35,0
1982,32.43,7.61,87.11,0
1983,32.44,2.14,83.61,0
1984,32.45,4.27,83.94,0
1985,32.47,4.76,95.58,0
1986,32.48,-4.01,109.58,0
1987,32.49,-13.7,108.1,0
1988,32.51,-10.38,90.73,0
1989,32.52,2.42,69.14,0
1990,32.53,6.88,50.69,0
1991,32.54,4.7,42.41,0
1992,32.56,10.01,46.01,1
1993,32.57,15.08,51.58,1
1994,32.59,8.09,51.84,1
1995,32.6,2.37,50.47,1
1996,32.61,9.19,45.65,1
1997,32.63,12.91,32.83,1
1998,32.64,-1.63,25.28,1
1999,32.65,-18.91,30.22,1
2000,32.67,-12.06,29.59,1
2001,32.68,9.47,16.9,1
2002,32.69,12.32,11.16,1
2003,32.71,0.42,17.1,1
2004,32.72,-1.6,17.51,1
2005,32.73,1.76,12.33,1
2006,32.75,-0.67,16.54,1
2007,32.76,-9.24,21.35,1
2008,32.77,-20.25,13.84,1
2009,32.79,-21.89,7.57,1
2010,32.8,-13.76,7.33,1
2011,32.81,-9.79,1.86,1
2012,32.83,-8.73,-2.53,1
2013,32.84,-4.69,-1.61,1
2014,32.85,-4.08,-5.74,1
2015,32.87,-7.42,-11.77,1
2016,32.88,-6.08,-9.92,1
2017,32.89,-0.65,-4.64,1
2018,32.9,-0.94,-4.27,1
2019,32.92,-5.79,-7.48,1
2020,32.93,-5.32,-9.79,1
2021,32.95,-1.36,-9.47,1
2022,32.96,-1.2,-8.39,1
2023,32.97,-2.23,-11.26,1
2024,32.99,0.18,-16.72,1
2025,33.0,1.54,-18.14,1
2026,33.01,0.67,-16.62,1
2027,33.03,3.18,-19.34,1
2028,33.04,5.6,-26.01,1
2029,33.05,2.03,-24.28,1
2030,33.06,-4.12,-9.0,1
2031,33.08,-5.61,2.98,1
2032,33.09,1.15,-4.09,1
2033,33.11,9.76,-20.09,1
2034,33.12,11.02,-26.68,1
2035,33.13,7.54,-23.36,1
2036,33.15,8.75,-21.37,1
2037,33.16,12.22,-24.9,1
2038,33.17,8.99,-27.02,1
2039,33.19,0.04,-23.66,1
2040,33.2,-9.17,-23.84,1
2041,33.21,-13.01,-30.14,1
2042,33.22,-3.72,-30.75,1
2043,33.24,10.54,-23.79,1
2044,33.25,6.98,-20.1,1
2045,33.27,-8.93,-22.51,1
2046,33.28,-7.58,-26.95,1
2047,33.29,8.05,-34.49,1
2048,33.31,9.56,-37.09,1
2049,33.32,-0.77,-26.88,1
2050,33.33,-2.78,-20.23,1
2051,33.35,1.24,-22.91,1
2052,33.36,2.29,-20.98,1
2053,33.37,0.43,-16.82,1
2054,33.38,-4.31,-14.45,1
2055,33.4,-7.24,-9.48,1
2056,33.41,-4.16,-6.37,1
2057,33.43,-0.79,-7.03,1
2058,33.44,0.53,-7.3,1
2059,33.45,4.6,-7.17,1
2060,33.47,7.97,-4.66,1
2061,33.48,1.19,0.29,1
2062,33.49,-10.32,-1.46,1
2063,33.51,-15.42,-12.74,1
2064,33.52,-14.66,-21.2,1
2065,33.53,-8.89,-18.21,1
2066,33.54,2.49,-10.38,1
2067,33.56,8.09,-7.51,1
2068,33.57,-0.5,-10.69,1
2069,33.59,-7.92,-14.53,1
2070,33.6,0.96,-14.83,1
2071,33.61,12.76,-12.04,1
2072,33.63,9.36,-6.74,1
2073,33.64,-0.3,1.46,1
2074,33.65,0.25,5.99,1
2075,33.67,6.69,2.61,1
2076,33.68,6.54,-1.27,1
2077,33.69,1.98,-2.97,1
2078,33.71,0.93,-5.55,1
2079,33.72,1.76,-3.76,1
2080,33.73,-0.63,4.12,1
2081,33.75,-2.42,6.86,1
2082,33.76,2.1,-1.09,1
2083,33.77,8.49,-11.65,1
2084,33.79,7.06,-12.27,1
2085,33.8,-2.33,-1.46,1
2086,33.81,-7.08,2.58,1
2087,33.83,0.13,-3.76,1
2088,33.84,5.47,1.73,1
2089,33.85,1.66,14.53,1
2090,33.87,4.63,12.99,1
2091,33.88,13.06,9.43,1
2092,33.89,7.42,16.45,1
2093,33.9,-4.46,20.36,1
2094,33.92,-1.71,18.03,1
2095,33.93,7.73,15.47,1
2096,33.95,5.4,9.85,1
2097,33.96,-3.12,5.26,1
2098,33.97,-6.06,9.0,1
2099,33.99,-5.24,15.34,1
2100,34.0,-5.06,16.17,1
2101,34.01,-7.13,12.23,1
2102,34.03,-10.75,9.85,1
2103,34.04,-12.77,12.99,1
2104,34.05,-10.89,14.96,1
2105,34.06,-2.99,9.77,1
2106,34.08,4.42,6.78,1
2107,34.09,-0.8,10.05,1
2108,34.11,-12.12,7.71,1
2109,34.12,-8.97,0.52,1
2110,34.13,9.59,4.42,1
2111,34.15,19.16,19.96,1
2112,34.16,5.66,27.99,0
2113,34.17,-10.97,19.0,0
2114,34.19,-8.57,10.01,0
2115,34.2,5.36,5.4,0
2116,34.21,16.86,-22.48,0
2117,34.23,22.91,-65.41,0
2118,34.24,19.24,-80.22,0
2119,34.25,12.33,-78.68,0
2120,34.27,15.3,-96.38,0
2121,34.28,15.47,-123.52,0
2122,34.29,1.41,-144.62,0
2123,34.31,-3.28,-158.25,0
2124,34.32,14.12,-152.95,0
2125,34.33,25.78,-124.37,0
2126,34.35,11.47,-86.75,0
2127,34.36,-11.8,-51.4,0
2128,34.37,-18.05,-19.82,0
2129,34.38,-3.96,8.39,0
2130,34.4,12.02,35.13,0
2131,34.41,9.31,62.99,0
2132,34.43,-14.34,92.65,0
2133,34.44,-36.52,120.47,0
2134,34.45,-34.52,132.18,0
2135,34.47,-13.64,126.81,0
2136,34.48,0.96,125.3,0
2137,34.49,-2.79,134.87,0
2138,34.51,-12.67,149.11,0
2139,34.52,-13.42,164.16,0
2140,34.53,-11.18,171.41,0
2141,34.54,-14.18,166.53,0
2142,34.56,-13.37,155.74,1
2143,34.57,-12.19,144.31,1
2144,34.59,-18.71,133.12,1
2145,34.6,-19.57,121.72,1
2146,34.61,-6.05,108.05,1
2147,34.63,10.26,91.19,1
2148,34.64,13.29,77.6,1
2149,34.65,1.78,72.98,1
2150,34.67,-5.08,70.64,1
2151,34.68,1.5,62.18,1
2152,34.69,1.13,49.88,1
2153,34.71,-9.48,39.28,1
2154,34.72,-4.81,29.43,1
2155,34.73,13.0,15.39,1
2156,34.75,12.25,0.08,1
2157,34.76,-6.32,-4.82,1
2158,34.77,-10.18,3.53,1
2159,34.79,4.53,6.87,1
2160,34.8,8.79,-8.28,1
2161,34.81,-2.61,-25.26,1
2162,34.83,-5.3,-24.82,1
2163,34.84,-0.78,-19.88,1
2164,34.85,-6.08,-28.43,1
2165,34.87,-10.21,-36.8,1
2166,34.88,-1.41,-32.76,1
2167,34.89,9.12,-33.89,1
2168,34.91,11.0,-45.88,1
2169,34.92,5.11,-52.98,1
2170,34.93,1.27,-52.42,1
2171,34.95,9.73,-51.03,1
2172,34.96,21.23,-50.65,1
2173,34.97,19.12,-50.23,1
2174,34.99,8.3,-46.69,1
2175,35.0,5.16,-41.48,1
2176,35.01,7.93,-43.13,1
2177,35.03,5.62,-52.7,1
2178,35.04,-0.31,-59.37,1
2179,35.05,-0.62,-56.52,1
2180,35.06,6.4,-49.59,1
2181,35.08,11.0,-46.69,1
2182,35.09,7.81,-50.53,1
2183,35.11,2.9,-59.0,1
2184,35.12,1.94,-65.94,1
2185,35.13,8.14,-62.16,1
2186,35.15,15.84,-48.74,1
2187,35.16,10.95,-40.58,1
2188,35.17,-4.63,-45.1,1
2189,35.19,-10.51,-52.5,1
2190,35.2,-3.34,-51.28,1
2191,35.21,-2.11,-43.37,1
2192,35.22,-8.03,-39.84,1
2193,35.24,-3.48,-44.24,1
2194,35.25,9.53,-48.81,1
2195,35.27,9.5,-47.04,1
2196,35.28,-6.48,-39.23,1
2197,35.29,-13.89,-30.13,1
2198,35.31,-4.28,-29.29,1
2199,35.32,-0.98,-37.69,1
2200,35.33,-10.25,-39.73,1
2201,35.35,-10.97,-28.46,1
2202,35.36,-0.96,-18.25,1
2203,35.37,4.27,-19.12,1
2204,35.38,4.06,-22.7,1
2205,35.4,6.53,-20.83,1
2206,35.41,8.48,-20.15,1
2207,35.43,5.14,-25.34,1
2208,35.44,3.45,-25.74,1
2209,35.45,6.05,-16.03,1
2210,35.47,5.38,-6.7,1
2211,35.48,2.44,-5.77,1
2212,35.49,4.09,-11.73,1
2213,35.51,6.58,-16.4,1
2214,35.52,1.67,-11.41,1
2215,35.53,-5.84,-1.39,1
2216,35.55,-4.98,4.97,1
2217,35.56,-1.61,8.94,1
2218,35.57,-5.97,8.25,1
2219,35.59,-8.4,-0.28,1
2220,35.6,-0.93,-5.54,1
2221,35.61,4.88,2.39,1
2222,35.63,3.69,12.69,1
2223,35.64,0.31,9.2,1
2224,35.65,-6.91,-1.41,1
2225,35.67,-12.33,-0.29,1
2226,35.68,-7.34,8.75,1
2227,35.69,-0.06,6.32,1
2228,35.71,4.13,-2.33,1
2229,35.72,9.93,1.79,1
2230,35.73,10.38,10.49,1
2231,35.75,-0.77,9.34,1
2232,35.76,-7.76,6.42,1
2233,35.77,2.98,10.31,1
2234,35.79,11.69,17.49,1
2235,35.8,-1.94,19.17,1
2236,35.81,-17.09,12.97,1
2237,35.83,-13.5,9.74,1
2238,35.84,-9.3,12.89,1
2239,35.85,-16.13,14.76,1
2240,35.87,-18.56,13.21,1
2241,35.88,-11.07,10.44,1
2242,35.89,-0.97,12.46,1
2243,35.9,9.9,22.29,1
2244,35.92,17.27,27.34,1
2245,35.93,12.98,15.85,1
2246,35.95,2.55,2.77,1
2247,35.96,-1.44,11.73,1
2248,35.97,2.31,31.1,1
2249,35.99,5.2,31.88,1
2250,36.0,-0.45,18.58,1
2251,36.01,-9.95,12.83,1
2252,36.03,-11.55,20.78,1
2253,36.04,-8.37,35.62,1
2254,36.05,-9.76,41.46,1
2255,36.06,-9.97,31.99,1
2256,36.08,-3.82,17.54,1
2257,36.09,0.84,7.31,1
2258,36.11,1.8,7.94,1
2259,36.12,2.69,16.99,1
2260,36.13,2.67,23.16,1
2261,36.15,2.65,29.25,1
2262,36.16,3.88,50.63,2
2263,36.17,6.49,101.84,2
2264,36.19,13.18,185.86,2
2265,36.2,21.91,274.77,2
2266,36.21,25.91,323.79,2
2267,36.23,23.08,305.69,2
2268,36.24,13.38,229.71,2
2269,36.25,1.94,140.66,2
2270,36.27,-5.91,77.67,2
2271,36.28,-18.17,35.54,2
2272,36.29,-32.02,-12.67,2
2273,36.31,-30.76,-72.94,2
2274,36.32,-23.11,-130.59,2
2275,36.33,-28.16,-174.11,2
2276,36.35,-32.57,-194.99,2
2277,36.36,-19.22,-191.52,2
2278,36.37,-2.62,-178.73,2
2279,36.38,1.04,-165.33,2
2280,36.4,-1.33,-149.17,2
2281,36.41,0.57,-138.47,2
2282,36.43,5.16,-136.89,2
2283,36.44,9.17,-126.11,2
2284,36.45,11.31,-92.58,2
2285,36.47,9.96,-54.22,2
2286,36.48,4.08,-41.25,2
2287,36.49,-6.26,-56.05,2
2288,36.51,-11.21,-71.92,2
2289,36.52,-0.8,-73.96,2
2290,36.53,11.42,-71.81,2
2291,36.54,12.06,-68.73,2
2292,36.56,11.34,-55.99,1
2293,36.57,16.04,-40.95,1
2294,36.59,18.93,-37.74,1
2295,36.6,15.64,-44.66,1
2296,36.61,6.86,-48.72,1
2297,36.63,-1.38,-39.33,1
2298,36.64,-4.95,-20.9,1
2299,36.65,-7.73,-7.16,1
2300,36.67,-6.87,-1.33,1
2301,36.68,-0.12,2.24,1
2302,36.69,4.77,4.69,1
2303,36.71,6.31,4.18,1
2304,36.72,7.7,2.99,1
2305,36.73,8.47,5.49,1
2306,36.75,10.45,10.21,1
2307,36.76,10.66,14.93,1
2308,36.77,3.01,19.33,1
2309,36.79,-3.41,20.58,1
2310,36.8,-0.76,21.35,1
2311,36.81,4.0,25.35,1
2312,36.83,4.7,26.49,1
2313,36.84,-1.31,22.52,1
2314,36.85,-5.67,22.03,1
2315,36.87,2.39,27.65,1
2316,36.88,9.99,33.33,1
2317,36.89,2.58,35.96,1
2318,36.9,-9.51,33.3,1
2319,36.92,-8.43,26.09,1
2320,36.93,5.35,25.44,1
2321,36.95,9.89,36.17,1
2322,36.96,-4.14,46.94,1
2323,36.97,-14.04,48.42,1
2324,36.99,-6.56,43.09,1
2325,37.0,2.15,42.07,1
2326,37.01,5.43,46.31,1
2327,37.03,11.1,39.84,1
2328,37.04,12.96,24.38,1
2329,37.05,1.54,24.63,1
2330,37.06,-11.25,41.52,1
2331,37.08,-9.56,48.97,1
2332,37.09,-0.28,38.24,1
2333,37.11,3.37,25.39,1
2334,37.12,5.81,24.02,1
2335,37.13,9.85,28.24,1
2336,37.15,4.38,25.22,1
2337,37.16,-6.47,17.71,1
2338,37.17,-5.97,14.69,1
2339,37.19,3.52,13.17,1
2340,37.2,11.84,9.46,1
2341,37.21,13.32,8.0,1
2342,37.22,3.36,13.88,1
2343,37.24,-7.24,23.43,1
2344,37.25,-8.62,25.75,1
2345,37.27,-8.26,19.94,1
2346,37.28,-7.03,18.13,1
2347,37.29,-4.1,27.43,1
2348,37.31,-9.75,35.21,1
2349,37.32,-18.21,27.23,1
2350,37.33,-10.82,14.44,1
2351,37.35,6.83,12.92,1
2352,37.36,13.75,15.24,1
2353,37.37,5.7,10.84,1
2354,37.38,-2.04,8.02,1
2355,37.4,1.52,13.52,1
2356,37.41,6.09,19.21,1
2357,37.43,1.79,20.59,1
2358,37.44,0.69,20.24,1
2359,37.45,8.49,14.9,1
2360,37.47,6.85,2.85,1
2361,37.48,-8.72,-7.08,1
2362,37.49,-13.73,-5.26,1
2363,37.51,0.65,3.73,1
2364,37.52,8.56,7.88,1
2365,37.53,-5.88,4.88,1
2366,37.54,-19.37,0.66,1
2367,37.56,-11.38,-1.25,1
2368,37.57,-3.12,-1.62,1
2369,37.59,-9.98,-3.08,1
2370,37.6,-7.05,-2.67,1
2371,37.61,6.99,0.69,1
2372,37.63,-1.25,-3.73,1
2373,37.64,-25.24,-21.55,1
2374,37.65,-23.58,-39.03,1
2375,37.67,4.76,-38.43,1
2376,37.68,18.76,-23.61,1
2377,37.69,3.73,-12.38,1
2378,37.71,-13.47,-9.41,1
2379,37.72,-14.18,-9.77,1
2380,37.73,-6.44,-15.59,1
2381,37.75,0.14,-26.56,1
2382,37.76,3.02,-29.36,1
2383,37.77,1.46,-16.78,1
2384,37.79,1.22,-5.05,1
2385,37.8,5.43,-9.83,1
2386,37.81,7.38,-19.73,1
2387,37.83,6.12,-21.35,1
2388,37.84,6.49,-21.69,1
2389,37.85,7.56,-27.62,1
2390,37.87,4.36,-31.59,1
2391,37.88,-0.75,-25.52,1
2392,37.89,0.23,-13.86,1
2393,37.9,4.28,-8.57,1
2394,37.92,3.73,-8.83,1
2395,37.93,1.69,-3.7,1
2396,37.95,1.4,2.07,1
2397,37.96,0.55,-2.35,1
2398,37.97,1.47,-10.13,1
2399,37.99,1.9,-15.61,1
2400,38.0,-4.82,-24.62,1
2401,38.01,-8.13,-27.41,1
2402,38.03,3.11,-12.94,1
2403,38.04,12.66,0.27,1
2404,38.05,7.86,-1.99,1
2405,38.06,3.91,-8.8,1
2406,38.08,6.39,-13.8,1
2407,38.09,0.25,-16.49,1
2408,38.11,-10.55,-14.1,1
2409,38.12,-6.4,-17.45,1
2410,38.13,7.82,-32.01,1
2411,38.15,12.99,-34.22,1
2412,38.16,5.74,-5.31,2
2413,38.17,-7.59,48.73,2
2414,38.19,-13.36,120.4,2
2415,38.2,6.15,208.04,2
2416,38.21,39.19,258.56,2
2417,38.22,41.48,196.77,2
2418,38.24,1.63,48.41,2
2419,38.25,-25.97,-118.58,2
2420,38.27,-7.11,-207.47,2
2421,38.28,11.24,-121.32,2
2422,38.29,1.39,31.92,2
2423,38.31,3.68,155.04,2
2424,38.32,28.77,280.82,2
2425,38.33,43.63,279.38,2
2426,38.35,43.46,127.04,2
2427,38.36,40.09,68.98,2
2428,38.37,8.2,92.4,2
2429,38.38,-59.39,-17.31,2
2430,38.4,-81.93,-151.94,2
2431,38.41,-36.35,-99.52,2
2432,38.43,-17.42,11.87,2
2433,38.44,-29.85,-20.33,2
2434,38.45,-13.72,-130.63,2
2435,38.47,1.85,-182.1,2
2436,38.48,1.4,-155.27,2
2437,38.49,8.34,-93.37,2
2438,38.51,14.8,-41.95,2
2439,38.52,27.35,-35.1,2
2440,38.53,31.34,-105.12,2
2441,38.54,-4.1,-192.83,2
2442,38.56,-29.0,-190.18,1
2443,38.57,-6.59,-164.05,1
2444,38.59,1.42,-211.45,1
2445,38.6,-37.5,-218.95,1
2446,38.61,-55.31,-110.16,1
2447,38.63,-15.8,-9.2,1
2448,38.64,10.65,9.94,1
2449,38.65,2.62,-27.44,1
2450,38.67,21.93,-87.34,1
2451,38.68,41.07,-99.1,1
2452,38.69,8.86,-55.32,1
2453,38.71,-12.9,-30.35,1
2454,38.72,4.46,-39.22,1
2455,38.73,5.57,-56.31,1
2456,38.75,-5.37,-59.63,1
2457,38.76,5.85,-29.33,1
2458,38.77,11.9,-7.65,1
2459,38.79,-12.5,-37.38,1
2460,38.8,-41.07,-64.76,1
2461,38.81,-41.17,-41.59,1
2462,38.83,-17.93,2.81,1
2463,38.84,-2.51,37.54,1
2464,38.85,-1.49,43.1,1
2465,38.87,1.1,-10.14,1
2466,38.88,-2.27,-67.79,1
2467,38.89,-15.79,-10.22,1
2468,38.9,-17.8,104.04,1
2469,38.92,-9.96,94.59,1
2470,38.93,-4.04,-5.05,1
2471,38.95,8.86,-40.09,1
2472,38.96,19.17,-31.52,1
2473,38.97,12.59,-36.91,1
2474,38.99,3.51,-11.57,1
2475,39.0,-1.58,28.17,1
2476,39.01,1.74,35.67,1
2477,39.03,21.86,43.51,1
2478,39.04,30.54,57.34,1
2479,39.05,10.59,39.24,1
2480,39.06,2.61,18.35,1
2481,39.08,21.8,44.22,1
2482,39.09,26.59,82.91,1
2483,39.11,11.53,75.21,1
2484,39.12,12.19,23.33,1
2485,39.13,25.13,-8.66,1
2486,39.15,24.31,19.38,1
2487,39.16,3.13,51.74,1
2488,39.17,-27.32,57.43,1
2489,39.19,-36.84,80.47,1
2490,39.2,-16.95,90.04,1
2491,39.21,-6.64,58.0,1
2492,39.22,-16.31,56.81,1
2493,39.24,-14.85,75.59,1
2494,39.25,-5.01,48.94,1
2495,39.27,0.8,23.58,1
2496,39.28,14.92,32.78,1
2497,39.29,24.05,13.54,1
2498,39.31,4.71,-10.19,1
2499,39.32,-15.11,58.57,1
2500,39.33,-6.43,130.12,1
2501,39.35,0.85,73.09,1
2502,39.36,-9.54,-0.91,1
2503,39.37,-9.18,24.36,1
2504,39.38,3.46,67.1,1
2505,39.4,5.27,54.81,1
2506,39.41,2.39,22.49,1
2507,39.43,10.44,15.85,1
2508,39.44,9.97,14.66,1
2509,39.45,-22.18,-3.15,1
2510,39.47,-50.72,29.29,1
2511,39.48,-34.86,92.02,1
2512,39.49,-9.89,61.73,1
2513,39.51,-14.95,2.07,1
2514,39.52,-17.49,55.84,1
2515,39.53,3.46,139.92,1
2516,39.54,11.29,103.46,1
2517,39.56,4.76,17.25,1
2518,39.57,14.37,8.24,1
2519,39.59,19.66,18.84,1
2520,39.6,13.59,-1.85,1
2521,39.61,32.15,3.06,1
2522,39.63,41.72,8.04,1
2523,39.64,3.82,-19.37,1
2524,39.65,-17.54,-8.75,1
2525,39.67,1.87,40.34,1
2526,39.68,4.37,35.51,1
2527,39.69,1.45,-22.32,1
2528,39.71,32.05,-14.28,1
2529,39.72,40.59,65.19,1
2530,39.73,-4.17,64.61,1
2531,39.75,-22.99,-24.31,1
2532,39.76,11.78,-40.15,1
2533,39.77,29.0,42.31,1
2534,39.79,5.13,71.99,1
2535,39.8,-13.42,8.82,1
2536,39.81,-6.47,-16.96,1
2537,39.83,-1.56,11.92,1
2538,39.84,-17.34,-3.26,1
2539,39.85,-33.5,-34.85,1
2540,39.87,-29.8,-15.94,1
2541,39.88,-17.85,8.3,1
2542,39.89,-8.92,7.53,1
2543,39.9,7.0,21.67,1
2544,39.92,21.29,18.03,1
2545,39.93,11.18,-63.62,1
2546,39.95,8.97,-129.59,1
2547,39.96,51.45,-77.66,1
2548,39.97,68.15,17.03,1
2549,39.99,2.79,49.04,1
2550,40.0,-56.32,0.73,1
2551,40.01,-31.83,-73.1,1
2552,40.03,20.61,-72.66,1
2553,40.04,24.98,-9.26,1
2554,40.05,-10.3,-14.14,1
2555,40.065,-24.23,-64.28,1
2556,40.08,4.53,-36.46,1
2557,40.09,39.08,8.64,1
2558,40.11,42.41,-15.6,1
2559,40.12,15.82,-34.85,1
2560,40.13,-12.3,-24.73,1
2561,40.15,-24.75,-54.78,1
2562,40.16,-26.62,-84.29,0
2563,40.17,-24.73,-33.84,0
2564,40.19,-12.92,40.1,0
2565,40.2,11.9,48.13,0
2566,40.21,23.59,11.49,0
2567,40.22,6.91,-5.2,0
2568,40.24,-10.93,-4.43,0
2569,40.25,-8.26,-9.97,0
2570,40.27,0.94,12.75,0
2571,40.28,-1.34,88.41,0
2572,40.29,-4.92,148.46,0
2573,40.31,2.25,116.54,0
2574,40.32,4.9,4.21,0
2575,40.33,-5.03,-128.43,0
2576,40.35,-12.21,-232.91,0
2577,40.36,-13.58,-298.09,0
2578,40.37,-11.89,-333.16,0
2579,40.38,4.02,-335.44,0
2580,40.4,26.96,-304.38,0
2581,40.41,33.66,-251.34,0
2582,40.43,26.09,-185.11,0
2583,40.44,18.02,-111.52,0
2584,40.45,12.69,-43.28,0
2585,40.47,11.7,8.13,0
2586,40.48,8.53,51.61,0
2587,40.49,-4.44,89.36,0
2588,40.51,-18.09,96.88,0
2589,40.52,-23.98,77.97,0
2590,40.53,-23.09,73.98,0
2591,40.54,-17.43,90.6,0
2592,40.56,-16.54,99.24,1
2593,40.57,-25.15,93.13,1
2594,40.59,-28.14,80.46,1
2595,40.6,-16.05,59.09,1
2596,40.61,-6.36,36.71,1
2597,40.63,-11.09,36.32,1
2598,40.64,-16.93,59.31,1
2599,40.65,-13.25,78.93,1
2600,40.67,-4.17,81.43,1
2601,40.68,0.5,76.67,1
2602,40.69,-5.46,77.09,1
2603,40.71,-15.65,81.2,1
2604,40.72,-18.07,76.69,1
2605,40.73,-10.29,65.77,1
2606,40.75,-1.39,61.89,1
2607,40.76,1.15,63.85,1
2608,40.77,-1.24,66.95,1
2609,40.79,-2.64,69.53,1
2610,40.8,2.38,59.58,1
2611,40.81,11.27,39.41,1
2612,40.83,12.4,31.96,1
2613,40.84,1.45,40.65,1
2614,40.85,-9.02,47.6,1
2615,40.87,-7.84,40.74,1
2616,40.88,-2.87,28.31,1
2617,40.89,-7.23,30.38,1
2618,40.9,-14.16,43.78,1
2619,40.92,-8.55,45.5,1
2620,40.93,4.35,34.01,1
2621,40.95,10.15,23.51,1
2622,40.96,4.98,18.06,1
2623,40.97,-5.23,19.91,1
2624,40.99,-5.99,25.68,1
2625,41.0,2.72,21.12,1
2626,41.01,1.53,11.75,1
2627,41.03,-6.19,13.23,1
2628,41.04,-1.72,14.85,1
2629,41.05,9.27,6.4,1
2630,41.06,10.91,1.22,1
2631,41.08,5.6,1.68,1
2632,41.09,4.76,-4.84,1
2633,41.11,7.28,-11.47,1
2634,41.12,5.05,-5.39,1
2635,41.13,0.23,-1.85,1
2636,41.15,-1.64,-11.98,1
2637,41.16,-0.84,-16.26,1
2638,41.17,3.36,-11.88,1
2639,41.19,10.52,-18.86,1
2640,41.2,14.73,-29.74,1
2641,41.21,12.88,-25.87,1
2642,41.22,5.84,-18.76,1
2643,41.24,-3.96,-22.26,1
2644,41.25,-7.42,-24.88,1
2645,41.27,2.92,-18.66,1
2646,41.28,17.32,-13.31,1
2647,41.29,19.24,-14.62,1
2648,41.31,11.01,-17.21,1
2649,41.32,6.95,-17.53,1
2650,41.33,8.69,-18.81,1
2651,41.35,7.58,-21.93,1
2652,41.36,4.71,-21.29,1
2653,41.37,2.92,-19.33,1
2654,41.38,-2.07,-27.17,1
2655,41.4,-4.59,-40.54,1
2656,41.41,2.2,-39.61,1
2657,41.43,11.83,-21.38,1
2658,41.44,14.83,-7.96,1
2659,41.45,7.47,-13.5,1
2660,41.47,-1.93,-25.5,1
2661,41.48,-1.94,-29.6,1
2662,41.49,4.08,-30.64,1
2663,41.51,6.03,-34.51,1
2664,41.52,5.54,-33.41,1
2665,41.53,9.49,-24.47,1
2666,41.54,9.52,-18.29,1
2667,41.56,-5.15,-18.81,1
2668,41.57,-22.18,-20.49,1
2669,41.59,-23.83,-23.17,1
2670,41.6,-10.33,-26.24,1
2671,41.61,6.21,-22.63,1
2672,41.63,11.8,-16.75,1
2673,41.64,5.41,-20.7,1
2674,41.65,2.18,-27.81,1
2675,41.67,3.36,-22.98,1
2676,41.68,-2.88,-12.09,1
2677,41.69,-13.05,-14.03,1
2678,41.71,-13.79,-23.39,1
2679,41.72,-0.58,-17.71,1
2680,41.73,15.23,-6.46,1
2681,41.75,16.84,-15.06,1
2682,41.76,8.78,-30.61,1
2683,41.77,6.86,-25.98,1
2684,41.79,6.17,-10.02,1
2685,41.8,-1.67,-4.94,1
2686,41.81,-5.36,-7.72,1
2687,41.83,3.39,-5.58,1
2688,41.84,9.49,-1.05,1
2689,41.85,-0.46,-2.78,1
2690,41.87,-13.32,-9.74,1
2691,41.88,-12.95,-14.44,1
2692,41.89,-6.63,-12.65,1
2693,41.9,-7.81,-4.37,1
2694,41.92,-12.34,1.68,1
2695,41.93,-12.03,-2.91,1
2696,41.95,-9.36,-6.35,1
2697,41.96,-3.85,0.08,1
2698,41.97,2.44,1.16,1
2699,41.99,-0.1,-6.6,1
2700,42.0,-7.65,-4.86,1
2701,42.01,-11.86,6.01,1
2702,42.03,-11.67,9.9,1
2703,42.04,-4.94,10.29,1
2704,42.05,3.41,13.99,1
2705,42.06,4.93,12.18,1
2706,42.08,1.61,1.67,1
2707,42.09,-1.19,-8.74,1
2708,42.11,-3.35,-12.07,1
2709,42.12,-5.13,-7.3,1
2710,42.13,-2.02,2.54,1
2711,42.15,3.52,6.83,1
2712,42.16,-0.08,-2.62,0
2713,42.17,-8.04,-10.83,0
2714,42.19,-7.03,-1.43,0
2715,42.2,-2.31,10.53,0
2716,42.21,0.67,7.74,0
2717,42.22,6.21,2.5,0
2718,42.24,11.7,4.69,0
2719,42.25,13.44,3.58,0
2720,42.27,13.38,-10.57,0
2721,42.28,10.8,-49.78,0
2722,42.29,3.97,-118.0,0
2723,42.31,-3.09,-179.01,0
2724,42.32,-4.84,-192.23,0
2725,42.33,2.62,-164.43,0
2726,42.35,18.58,-131.13,0
2727,42.36,27.29,-118.0,0
2728,42.37,20.47,-120.08,0
2729,42.38,20.98,-102.52,0
2730,42.4,34.09,-51.67,0
2731,42.41,32.59,-0.63,0
2732,42.43,17.16,22.82,0
2733,42.44,4.37,31.89,0
2734,42.45,-15.54,53.68,0
2735,42.47,-40.49,88.34,0
2736,42.48,-42.14,110.23,0
2737,42.49,-18.17,112.34,0
2738,42.51,-6.25,115.3,0
2739,42.52,-27.65,129.66,0
2740,42.53,-51.59,147.91,0
2741,42.54,-47.27,168.57,0
2742,42.56,-27.79,191.86,1
2743,42.57,-16.82,199.99,1
2744,42.59,-16.31,182.37,1
2745,42.6,-12.11,162.84,1
2746,42.61,3.68,158.69,1
2747,42.63,18.63,150.62,1
2748,42.64,20.84,130.26,1
2749,42.65,14.2,114.14,1
2750,42.66,5.17,104.23,1
2751,42.68,-1.43,94.21,1
2752,42.69,-5.64,84.03,1
2753,42.71,-11.4,68.1,1
2754,42.72,-17.25,49.12,1
2755,42.73,-18.57,44.54,1
2756,42.75,-11.32,49.17,1
2757,42.76,6.86,36.95,1
2758,42.77,22.8,15.55,1
2759,42.79,14.57,16.29,1
2760,42.8,-10.13,32.74,1
2761,42.81,-20.55,30.1,1
2762,42.83,-11.43,4.37,1
2763,42.84,0.71,-14.44,1
2764,42.85,7.23,-10.88,1
2765,42.87,6.44,-2.54,1
2766,42.88,3.85,-6.78,1
2767,42.89,6.59,-19.58,1
2768,42.9,2.79,-28.17,1
2769,42.92,-9.3,-29.96,1
2770,42.93,-5.32,-35.49,1
2771,42.95,12.61,-46.87,1
2772,42.96,15.0,-50.14,1
2773,42.97,0.1,-43.85,1
2774,42.99,-4.96,-42.21,1
2775,43.0,11.45,-44.39,1
2776,43.01,27.69,-42.77,1
2777,43.03,22.25,-43.68,1
2778,43.04,5.87,-47.62,1
2779,43.05,-0.88,-46.56,1
2780,43.06,5.76,-43.35,1
2781,43.08,16.06,-44.51,1
2782,43.09,18.33,-49.13,1
2783,43.11,16.25,-52.0,1
2784,43.12,19.08,-47.23,1
2785,43.13,18.35,-39.44,1
2786,43.15,5.55,-40.72,1
2787,43.16,-13.43,-47.81,1
2788,43.17,-20.75,-49.58,1
2789,43.19,-2.8,-51.17,1
2790,43.2,15.79,-55.4,1
2791,43.21,2.22,-48.79,1
2792,43.22,-17.47,-33.63,1
2793,43.24,-2.09,-33.02,1
2794,43.25,20.52,-49.43,1
2795,43.27,10.2,-58.93,1
2796,43.28,-7.53,-51.38,1
2797,43.29,0.51,-41.61,1
2798,43.3,19.74,-39.54,1
2799,43.32,18.03,-39.54,1
2800,43.33,-8.46,-38.66,1
2801,43.35,-25.45,-37.36,1
2802,43.36,-13.55,-33.11,1
2803,43.37,1.72,-30.15,1
2804,43.38,-0.23,-33.05,1
2805,43.4,-9.27,-36.13,1
2806,43.41,-16.37,-35.61,1
2807,43.43,-22.37,-34.4,1
2808,43.44,-20.0,-33.13,1
2809,43.45,-5.75,-30.79,1
2810,43.47,7.84,-26.55,1
2811,43.48,10.45,-21.7,1
2812,43.49,5.11,-19.77,1
2813,43.51,-0.23,-15.96,1
2814,43.52,-1.53,-4.24,1
2815,43.53,-2.66,2.77,1
2816,43.54,-3.57,-9.73,1
2817,43.56,-1.63,-26.98,1
2818,43.57,-0.52,-21.19,1
2819,43.59,1.64,4.95,1
2820,43.6,8.8,18.05,1
2821,43.61,13.06,4.3,1
2822,43.63,10.14,-11.41,1
2823,43.64,7.08,-10.63,1
2824,43.65,6.88,-3.33,1
2825,43.67,3.85,2.87,1
2826,43.68,-2.08,10.19,1
2827,43.69,-4.77,10.93,1
2828,43.71,-2.27,0.62,1
2829,43.72,2.15,-5.86,1
2830,43.73,2.44,0.3,1
2831,43.75,-3.29,9.42,1
2832,43.76,-8.15,15.61,1
2833,43.77,-8.03,20.2,1
2834,43.79,-2.84,21.57,1
2835,43.8,5.79,20.55,1
2836,43.81,8.96,18.63,1
2837,43.83,4.2,13.5,1
2838,43.84,4.14,7.97,1
2839,43.85,9.49,10.43,1
2840,43.87,8.77,19.39,1
2841,43.88,3.29,21.29,1
2842,43.89,0.46,12.53,1
2843,43.9,-0.96,5.64,1
2844,43.92,-4.97,9.13,1
2845,43.93,-7.12,17.57,1
2846,43.94,-1.89,20.65,1
2847,43.96,2.75,14.95,1
2848,43.97,-1.28,6.71,1
2849,43.99,-6.16,2.2,1
2850,44.0,-5.19,5.51,1
2851,44.01,-4.72,18.07,1
2852,44.03,-9.56,29.03,1
2853,44.04,-13.2,28.8,1
2854,44.05,-10.15,23.97,1
2855,44.06,-9.29,20.6,1
2856,44.08,-14.55,19.92,1
2857,44.09,-8.52,23.53,1
2858,44.11,10.72,23.7,1
2859,44.12,15.12,14.08,1
2860,44.13,-0.63,4.96,1
2861,44.15,-13.03,5.42,1
2862,44.16,-13.89,10.87,2
2863,44.17,-6.46,17.11,2
2864,44.19,7.91,23.65,2
2865,44.2,15.61,24.74,2
2866,44.21,8.27,24.8,2
2867,44.22,1.38,54.5,2
2868,44.24,4.8,129.21,2
2869,44.25,5.07,220.5,2
2870,44.27,-5.76,292.83,2
2871,44.28,-9.95,316.5,2
2872,44.29,3.39,274.14,2
2873,44.31,13.57,198.28,2
2874,44.32,7.47,135.92,2
2875,44.33,-3.68,82.22,2
2876,44.35,-11.44,14.7,2
2877,44.36,-14.8,-56.09,2
2878,44.37,-14.64,-107.57,2
2879,44.38,-12.44,-140.54,2
2880,44.4,-2.69,-166.51,2
2881,44.41,14.05,-178.7,2
2882,44.43,19.51,-172.1,2
2883,44.44,7.01,-166.17,2
2884,44.45,-4.65,-168.15,2
2885,44.47,-3.07,-159.72,2
2886,44.48,0.53,-141.61,2
2887,44.49,-3.39,-130.99,2
2888,44.51,-7.27,-121.79,2
2889,44.52,-5.4,-104.81,2
2890,44.53,-1.92,-90.92,2
2891,44.54,0.8,-79.54,2
2892,44.56,5.12,-56.35,1
2893,44.57,10.18,-34.26,1
2894,44.58,10.66,-39.39,1
2895,44.6,9.79,-62.01,1
2896,44.61,12.55,-71.93,1
2897,44.63,10.84,-62.44,1
2898,44.64,1.66,-47.11,1
2899,44.65,-2.68,-39.07,1
2900,44.67,2.14,-40.36,1
2901,44.68,7.2,-40.23,1
2902,44.69,8.08,-29.57,1
2903,44.71,7.99,-14.84,1
2904,44.72,7.66,-10.56,1
2905,44.73,5.83,-18.99,1
2906,44.75,0.55,-22.98,1
2907,44.76,-8.63,-11.36,1
2908,44.77,-15.52,7.42,1
2909,44.79,-13.88,22.77,1
2910,44.8,-5.47,28.14,1
2911,44.81,2.96,23.54,1
2912,44.83,3.99,21.39,1
2913,44.84,0.2,24.8,1
2914,44.85,1.15,25.96,1
2915,44.87,5.8,28.27,1
2916,44.88,6.19,33.2,1
2917,44.89,4.66,31.74,1
2918,44.9,4.13,27.61,1
2919,44.92,-3.83,32.53,1
2920,44.93,-20.63,35.71,1
2921,44.95,-27.9,29.0,1
2922,44.96,-13.44,24.99,1
2923,44.97,6.1,25.34,1
2924,44.99,12.75,24.91,1
2925,45.0,12.49,26.61,1
2926,45.01,11.09,30.55,1
2927,45.03,4.43,33.7,1
2928,45.04,-3.19,34.19,1
2929,45.05,-3.76,33.98,1
2930,45.06,3.14,34.53,1
2931,45.08,9.09,34.0,1
2932,45.09,6.48,29.93,1
2933,45.11,-0.57,26.34,1
2934,45.12,-4.52,27.19,1
2935,45.13,-3.78,29.96,1
2936,45.15,-0.12,32.47,1
2937,45.16,3.95,33.0,1
2938,45.17,5.06,31.81,1
2939,45.19,-1.73,36.47,1
2940,45.2,-13.14,46.95,1
2941,45.21,-15.03,49.69,1
2942,45.22,-4.68,42.47,1
2943,45.24,0.46,34.66,1
2944,45.25,-8.28,27.99,1
2945,45.26,-14.86,23.85,1
2946,45.28,-5.9,25.64,1
2947,45.29,3.7,28.3,1
2948,45.31,-2.0,27.26,1
2949,45.32,-6.21,25.4,1
2950,45.33,3.5,21.33,1
2951,45.35,4.66,15.88,1
2952,45.36,-8.98,17.23,1
2953,45.37,-9.68,23.69,1
2954,45.38,7.12,24.54,1
2955,45.4,14.02,17.0,1
2956,45.41,-0.09,10.23,1
2957,45.43,-16.18,11.78,1
2958,45.44,-14.81,16.19,1
2959,45.45,-2.64,13.69,1
2960,45.47,5.03,8.53,1
2961,45.48,8.83,10.5,1
2962,45.49,9.51,13.03,1
2963,45.51,2.52,8.2,1
2964,45.52,-3.64,2.32,1
2965,45.53,-0.54,-1.94,1
2966,45.54,2.03,-5.26,1
2967,45.56,-3.26,-5.16,1
2968,45.57,-7.54,-5.52,1
2969,45.59,-1.96,-9.48,1
2970,45.6,7.64,-12.68,1
2971,45.61,11.16,-13.01,1
2972,45.63,8.36,-12.78,1
2973,45.64,2.34,-11.87,1
2974,45.65,-1.21,-6.41,1
2975,45.67,3.6,0.89,1
2976,45.68,9.67,-0.87,1
2977,45.69,8.06,-12.39,1
2978,45.71,2.83,-19.54,1
2979,45.72,-2.65,-16.18,1
2980,45.73,-8.8,-11.28,1
2981,45.75,-5.94,-9.94,1
2982,45.76,11.16,-11.31,1
2983,45.77,19.13,-14.56,1
2984,45.79,2.25,-14.77,1
2985,45.8,-8.87,-12.68,1
2986,45.81,4.5,-14.22,1
2987,45.83,13.83,-16.81,1
2988,45.84,5.62,-18.73,1
2989,45.85,-3.15,-21.28,1
2990,45.86,-10.28,-22.37,1
2991,45.88,-17.98,-21.13,1
2992,45.89,-14.69,-17.46,1
2993,45.9,0.58,-17.22,1
2994,45.92,14.13,-21.2,1
2995,45.93,11.87,-18.9,1
2996,45.95,-5.75,-14.07,1
2997,45.96,-15.04,-17.06,1
2998,45.97,-5.39,-19.89,1
2999,45.99,2.97,-16.26,1
3000,46.0,-0.71,-14.14,1
3001,46.01,-5.44,-16.63,1
3002,46.03,-1.75,-17.68,1
3003,46.04,5.25,-9.5,1
3004,46.05,4.48,3.04,1
3005,46.06,-3.97,1.06,1
3006,46.08,-11.19,-16.42,1
3007,46.09,-12.23,-25.61,1
3008,46.11,-6.58,-17.89,1
3009,46.12,0.74,-9.31,1
3010,46.13,4.37,-6.48,1
3011,46.15,6.38,-4.03,1
3012,46.16,7.75,-5.03,2
3013,46.17,5.26,-0.55,2
3014,46.19,1.49,37.35,2
3015,46.2,-2.41,102.31,2
3016,46.21,-5.35,141.1,2
3017,46.22,8.9,150.95,2
3018,46.24,40.11,198.62,2
3019,46.25,50.66,233.47,2
3020,46.27,21.71,126.72,2
3021,46.28,-19.32,19.59,2
3022,46.29,-43.82,50.17,2
3023,46.31,-44.08,12.83,2
3024,46.32,-24.1,-73.11,2
3025,46.33,-4.38,-17.57,2
3026,46.35,-2.25,3.2,2
3027,46.36,-6.91,-88.07,2
3028,46.37,-7.57,-64.74,2
3029,46.38,-11.57,56.59,2
3030,46.4,-20.55,27.22,2
3031,46.41,-15.72,-132.92,2
3032,46.43,12.49,-171.46,2
3033,46.44,33.38,-82.66,2
3034,46.45,19.75,-75.25,2
3035,46.47,-4.96,-137.85,2
3036,46.48,-9.84,-126.1,2
3037,46.49,2.16,-97.3,2
3038,46.5,14.23,-129.0,2
3039,46.52,16.09,-140.9,2
3040,46.53,14.4,-87.2,2
3041,46.54,21.17,-44.14,2
3042,46.56,24.67,-78.46,1
3043,46.57,7.83,-98.05,1
3044,46.59,-14.67,-30.68,1
3045,46.6,-6.04,1.73,1
3046,46.61,30.86,-43.19,1
3047,46.63,38.99,-77.79,1
3048,46.64,2.51,-87.75,1
3049,46.65,-29.13,-97.28,1
3050,46.67,-26.78,-125.01,1
3051,46.68,-5.8,-150.11,1
3052,46.69,6.17,-92.77,1
3053,46.71,2.01,8.54,1
3054,46.72,-1.74,11.91,1
3055,46.73,-1.96,-60.31,1
3056,46.75,-11.46,-76.12,1
3057,46.76,-23.18,-26.56,1
3058,46.77,-20.56,22.0,1
3059,46.79,-9.36,32.59,1
3060,46.8,1.83,10.21,1
3061,46.81,12.1,2.12,1
3062,46.83,5.61,24.24,1
3063,46.84,-14.76,38.17,1
3064,46.85,-14.36,40.3,1
3065,46.87,1.62,46.36,1
3066,46.88,-4.33,36.83,1
3067,46.89,-24.49,36.94,1
3068,46.9,-26.5,80.01,1
3069,46.92,-8.77,97.44,1
3070,46.93,5.62,47.94,1
3071,46.95,-4.26,0.18,1
3072,46.96,-23.48,-6.42,1
3073,46.97,-10.23,4.63,1
3074,46.99,22.91,15.03,1
3075,47.0,20.91,28.23,1
3076,47.01,-4.67,54.51,1
3077,47.03,-5.17,55.6,1
3078,47.04,5.83,-2.43,1
3079,47.05,-2.03,-39.87,1
3080,47.06,-15.27,-4.81,1
3081,47.08,-11.63,27.41,1
3082,47.09,6.79,29.37,1
3083,47.11,24.32,39.59,1
3084,47.12,32.58,39.9,1
3085,47.13,28.41,23.06,1
3086,47.14,9.34,36.21,1
3087,47.16,-10.62,66.76,1
3088,47.17,-11.71,72.1,1
3089,47.18,5.7,82.75,1
3090,47.2,20.22,110.67,1
3091,47.21,10.98,87.21,1
3092,47.22,-10.34,10.59,1
3093,47.24,-10.21,3.49,1
3094,47.25,14.34,90.19,1
3095,47.27,35.15,123.2,1
3096,47.28,31.1,56.68,1
3097,47.29,8.9,5.12,1
3098,47.31,-7.64,13.48,1
3099,47.32,-4.93,25.62,1
3100,47.33,9.89,14.63,1
3101,47.35,10.3,-7.2,1
3102,47.36,-15.26,-26.39,1
3103,47.37,-28.45,-10.47,1
3104,47.38,-3.87,44.16,1
3105,47.4,20.97,64.98,1
3106,47.41,16.28,21.14,1
3107,47.43,5.46,-13.6,1
3108,47.44,4.09,-2.95,1
3109,47.45,-2.56,10.04,1
3110,47.47,-11.12,22.95,1
3111,47.48,-11.09,70.55,1
3112,47.49,-14.2,96.23,1
3113,47.51,-23.19,11.52,1
3114,47.52,-25.42,-79.56,1
3115,47.53,-15.61,-26.08,1
3116,47.54,-2.75,60.71,1
3117,47.56,0.09,33.65,1
3118,47.57,-2.69,-14.43,1
3119,47.59,-0.94,19.43,1
3120,47.6,3.16,57.71,1
3121,47.61,6.88,8.97,1
3122,47.63,9.51,-67.19,1
3123,47.64,10.16,-46.97,1
3124,47.65,11.91,55.41,1
3125,47.67,12.64,85.36,1
3126,47.68,5.39,7.12,1
3127,47.69,-5.65,-19.61,1
3128,47.71,-14.09,23.79,1
3129,47.72,-16.06,-27.36,1
3130,47.73,-13.07,-117.87,1
3131,47.75,-16.96,-69.43,1
3132,47.76,-20.23,33.46,1
3133,47.77,-5.92,36.67,1
3134,47.78,10.3,-2.59,1
3135,47.8,8.06,1.5,1
3136,47.81,-1.77,16.01,1
3137,47.82,-2.37,9.13,1
3138,47.84,2.5,-8.84,1
3139,47.85,4.65,-18.76,1
3140,47.86,9.07,8.39,1
3141,47.88,17.09,40.33,1
3142,47.89,14.61,10.75,1
3143,47.9,0.62,-28.82,1
3144,47.92,-3.38,-7.53,1
3145,47.93,10.44,5.55,1
3146,47.95,27.63,-25.18,1
3147,47.96,31.9,-11.8,1
3148,47.97,12.76,33.07,1
3149,47.99,-10.84,3.85,1
3150,48.0,-6.89,-62.9,1
3151,48.01,6.74,-65.04,1
3152,48.03,1.18,-29.39,1
3153,48.04,-2.61,-24.3,1
3154,48.05,4.03,-35.33,1
3155,48.06,-8.91,-16.58,1
3156,48.08,-32.01,17.77,1
3157,48.09,-23.71,16.1,1
3158,48.11,-1.01,-8.16,1
3159,48.12,-2.56,-11.42,1
3160,48.13,-5.31,5.37,1
3161,48.15,8.57,26.21,1
3162,48.16,3.82,26.24,0
3163,48.17,-12.48,-1.75,0
3164,48.19,2.67,-35.82,0
3165,48.2,26.46,-54.18,0
3166,48.21,21.06,-30.98,0
3167,48.22,7.85,-0.6,0
3168,48.24,2.1,-27.42,0
3169,48.25,-2.61,-60.32,0
3170,48.27,7.68,-25.53,0
3171,48.28,24.98,17.1,0
3172,48.29,13.77,-7.69,0
3173,48.31,-16.56,-57.71,0
3174,48.32,-26.3,-63.6,0
3175,48.33,-14.11,-27.41,0
3176,48.35,-6.58,6.37,0
3177,48.36,-9.7,-11.99,0
3178,48.37,-10.27,-78.36,0
3179,48.38,-4.03,-114.59,0
3180,48.4,1.18,-99.01,0
3181,48.41,-2.58,-116.36,0
3182,48.42,-11.78,-209.34,0
3183,48.44,-11.27,-302.65,0
3184,48.45,0.71,-309.06,0
3185,48.46,8.19,-234.51,0
3186,48.48,5.62,-145.07,0
3187,48.49,0.81,-72.58,0
3188,48.5,-0.33,-1.43,0
3189,48.52,1.69,66.62,0
3190,48.53,2.47,105.1,0
3191,48.54,-4.29,117.19,0
3192,48.56,-14.43,127.79,1
3193,48.57,-13.35,139.47,1
3194,48.59,-3.6,144.3,1
3195,48.6,-2.14,141.04,1
3196,48.61,-3.41,131.81,1
3197,48.63,6.56,123.71,1
3198,48.64,13.52,117.82,1
3199,48.65,1.8,111.29,1
3200,48.67,-13.87,108.2,1
3201,48.68,-17.19,111.47,1
3202,48.69,-12.91,116.1,1
3203,48.71,-7.4,111.17,1
3204,48.72,-0.61,91.66,1
3205,48.73,1.23,77.53,1
3206,48.75,-3.83,84.18,1
3207,48.76,-6.24,89.7,1
3208,48.77,-4.49,79.47,1
3209,48.79,-2.86,67.46,1
3210,48.8,-0.39,53.61,1
3211,48.81,1.25,34.22,1
3212,48.83,2.65,27.77,1
3213,48.84,2.72,36.32,1
3214,48.85,-5.62,37.57,1
3215,48.87,-11.45,24.63,1
3216,48.88,-1.76,10.92,1
3217,48.89,4.47,9.3,1
3218,48.9,-4.83,15.67,1
3219,48.92,-5.72,16.0,1
3220,48.93,13.33,13.19,1
3221,48.95,27.87,14.98,1
3222,48.96,21.23,13.01,1
3223,48.97,5.35,4.65,1
3224,48.99,-2.52,-1.36,1
3225,49.0,0.92,-3.02,1
3226,49.01,5.62,-4.2,1
3227,49.03,4.8,-7.26,1
3228,49.04,-0.32,-9.89,1
3229,49.05,-6.47,-10.65,1
3230,49.06,-10.42,-13.54,1
3231,49.08,-10.67,-18.34,1
3232,49.09,-2.83,-18.2,1
3233,49.1,7.27,-13.1,1
3234,49.12,1.3,-13.14,1
3235,49.13,-12.79,-20.34,1
3236,49.14,-9.41,-24.15,1
3237,49.16,5.33,-22.7,1
3238,49.17,9.17,-23.45,1
3239,49.19,4.25,-25.64,1
3240,49.2,3.34,-21.72,1
3241,49.21,4.84,-14.61,1
3242,49.22,2.87,-16.5,1
3243,49.24,-0.29,-27.54,1
3244,49.25,-5.32,-34.28,1
3245,49.27,-13.0,-30.9,1
3246,49.28,-12.27,-26.99,1
3247,49.29,0.28,-28.78,1
3248,49.31,7.5,-30.23,1
3249,49.32,1.17,-27.03,1
3250,49.33,-1.55,-24.21,1
3251,49.35,10.12,-26.43,1
3252,49.36,19.29,-31.48,1
3253,49.37,13.4,-36.59,1
3254,49.38,8.41,-38.0,1
3255,49.4,14.88,-34.4,1
3256,49.41,18.37,-31.75,1
3257,49.43,11.78,-32.14,1
3258,49.44,3.59,-33.5,1
3259,49.45,-2.6,-33.38,1
3260,49.47,-6.59,-26.82,1
3261,49.48,-6.64,-18.8,1
3262,49.49,-4.24,-20.35,1
3263,49.51,-2.53,-31.46,1
3264,49.52,0.91,-38.97,1
3265,49.53,9.06,-28.37,1
3266,49.54,13.62,-10.58,1
3267,49.56,6.53,-11.99,1
3268,49.57,-3.95,-25.61,1
3269,49.59,-5.2,-25.37,1
3270,49.6,-0.09,-17.98,1
3271,49.61,-0.51,-22.8,1
3272,49.63,-8.72,-26.82,1
3273,49.64,-13.89,-14.96,1
3274,49.65,-7.44,-5.66,1
3275,49.67,3.32,-9.08,1
3276,49.68,5.88,-8.71,1
3277,49.69,6.16,-3.66,1
3278,49.7,12.42,-3.85,1
3279,49.72,10.18,-1.59,1
3280,49.73,-7.22,5.71,1
3281,49.74,-17.26,3.73,1
3282,49.76,-7.94,-7.37,1
3283,49.77,0.14,-11.66,1
3284,49.78,-6.96,-8.32,1
3285,49.8,-10.95,-9.0,1
3286,49.81,1.63,-13.52,1
3287,49.825,14.67,-15.6,1
3288,49.84,14.81,-14.99,1
3289,49.85,10.8,-10.07,1
3290,49.87,8.73,-1.51,1
3291,49.88,2.56,4.15,1
3292,49.89,-7.99,5.41,1
3293,49.9,-10.51,3.42,1
3294,49.92,0.75,-1.84,1
3295,49.93,6.6,-2.75,1
3296,49.95,-5.18,5.84,1
3297,49.96,-13.65,11.82,1
3298,49.97,-7.97,6.17,1
3299,49.99,-1.13,-2.05,1
3300,50.0,4.44,-6.44,1
3301,50.01,11.89,-6.49,1
3302,50.03,13.79,1.53,1
3303,50.04,4.97,13.63,1
3304,50.05,-7.37,18.24,1
3305,50.06,-10.56,12.27,1
3306,50.08,-1.61,5.72,1
3307,50.09,7.39,7.68,1
3308,50.11,4.09,9.08,1
3309,50.12,-4.83,-1.48,1
3310,50.13,-5.06,-11.86,1
3311,50.15,-1.34,-6.16,1
3312,50.16,-5.47,9.32,0
3313,50.17,-12.82,22.32,0
3314,50.19,-14.48,24.69,0
3315,50.2,-7.01,8.6,0
3316,50.21,4.22,-12.94,0
3317,50.22,2.85,-10.9,0
3318,50.24,-8.49,9.96,0
3319,50.25,-6.21,18.53,0
3320,50.27,9.32,12.0,0
3321,50.28,16.26,-1.97,0
3322,50.29,8.37,-41.17,0
3323,50.31,-5.04,-108.26,0
3324,50.32,-12.97,-171.69,0
3325,50.33,-6.86,-203.0,0
3326,50.34,3.71,-192.16,0
3327,50.36,-6.15,-148.56,0
3328,50.37,-23.95,-98.48,0
3329,50.38,-9.9,-62.87,0
3330,50.4,16.97,-40.29,0
3331,50.41,17.31,-23.74,0
3332,50.42,11.95,-8.51,0
3333,50.44,12.77,18.43,0
3334,50.45,-1.43,54.08,0
3335,50.46,-6.82,78.44,0
3336,50.48,13.62,89.35,0
3337,50.49,21.39,95.45,0
3338,50.51,11.59,103.79,0
3339,50.52,12.49,122.82,0
3340,50.53,19.7,148.82,0
3341,50.54,15.54,165.46,0
3342,50.56,-0.05,162.52,1
3343,50.57,-10.29,151.14,1
3344,50.59,-8.51,153.38,1
3345,50.6,-8.83,168.09,1
3346,50.61,-14.38,170.0,1
3347,50.63,-17.98,151.08,1
3348,50.64,-19.63,134.29,1
3349,50.65,-15.1,132.7,1
3350,50.67,-4.58,127.03,1
3351,50.68,2.61,104.65,1
3352,50.69,1.46,81.88,1
3353,50.71,-5.81,69.44,1
3354,50.72,-9.86,59.34,1
3355,50.73,-6.51,52.67,1
3356,50.75,-4.1,55.23,1
3357,50.76,-4.44,52.5,1
3358,50.77,-4.48,35.67,1
3359,50.79,-6.6,21.63,1
3360,50.8,-7.12,19.56,1
3361,50.81,-5.61,16.44,1
3362,50.83,-11.14,1.57,1
3363,50.84,-14.16,-18.71,1
3364,50.85,-1.54,-28.79,1
3365,50.87,10.08,-23.49,1
3366,50.88,5.85,-12.0,1
3367,50.89,-6.04,-6.14,1
3368,50.9,-17.24,-11.42,1
3369,50.92,-20.01,-21.64,1
3370,50.93,-9.31,-26.74,1
3371,50.95,2.39,-30.49,1
3372,50.96,4.56,-40.69,1
3373,50.97,5.92,-50.43,1
3374,50.98,11.03,-50.58,1
3375,51.0,13.57,-45.2,1
3376,51.01,11.12,-45.68,1
3377,51.02,6.98,-56.97,1
3378,51.04,2.59,-69.48,1
3379,51.05,-1.71,-68.93,1
3380,51.06,-1.35,-60.74,1
3381,51.08,3.89,-61.46,1
3382,51.09,9.26,-67.8,1
3383,51.1,13.84,-67.4,1
3384,51.12,13.09,-60.44,1
3385,51.13,6.71,-52.13,1
3386,51.15,3.46,-47.95,1
3387,51.16,4.43,-50.95,1
3388,51.17,4.11,-53.16,1
3389,51.19,-1.65,-47.68,1
3390,51.2,-11.95,-44.84,1
3391,51.21,-15.47,-52.55,1
3392,51.22,-5.95,-58.49,1
3393,51.24,2.45,-53.71,1
3394,51.25,-1.7,-47.29,1
3395,51.27,-8.34,-47.18,1
3396,51.28,-5.8,-46.83,1
3397,51.29,5.4,-40.16,1
3398,51.31,16.49,-33.38,1
3399,51.32,16.09,-32.22,1
3400,51.33,5.42,-33.37,1
3401,51.35,3.38,-36.38,1
3402,51.36,10.71,-42.86,1
3403,51.37,4.3,-43.92,1
3404,51.38,-11.23,-36.02,1
3405,51.4,-9.18,-27.49,1
3406,51.41,3.02,-19.72,1
3407,51.43,0.52,-14.93,1
3408,51.44,-8.21,-17.55,1
3409,51.45,-4.38,-21.68,1
3410,51.47,1.21,-23.41,1
3411,51.48,-3.24,-22.5,1
3412,51.49,-7.05,-19.39,1
3413,51.51,-2.64,-18.92,1
3414,51.52,3.45,-20.01,1
3415,51.53,3.69,-16.68,1
3416,51.54,2.83,-9.13,1
3417,51.56,5.58,-2.74,1
3418,51.57,3.62,-2.21,1
3419,51.59,-4.95,-7.87,1
3420,51.6,-8.25,-12.79,1
3421,51.61,0.82,-8.89,1
3422,51.62,10.85,2.38,1
3423,51.64,7.44,10.58,1
3424,51.65,-0.07,10.82,1
3425,51.66,-0.29,6.58,1
3426,51.68,-2.53,-2.25,1
3427,51.69,-6.19,-13.7,1
3428,51.7,2.48,-14.77,1
3429,51.72,15.7,-1.71,1
3430,51.73,13.2,13.83,1
3431,51.74,-1.06,22.05,1
3432,51.76,-6.22,21.33,1
3433,51.77,-0.05,16.78,1
3434,51.79,4.26,14.0,1
3435,51.8,6.26,11.92,1
3436,51.81,9.71,10.87,1
3437,51.83,9.0,17.57,1
3438,51.84,4.62,26.14,1
3439,51.85,4.17,20.63,1
3440,51.87,4.17,6.01,1
3441,51.88,-2.84,-1.57,1
3442,51.89,-8.53,1.52,1
3443,51.9,-5.79,11.52,1
3444,51.92,-4.09,20.14,1
3445,51.93,-6.24,20.86,1
3446,51.95,-2.35,21.15,1
3447,51.96,8.23,26.81,1
3448,51.97,10.89,29.48,1
3449,51.99,1.88,26.38,1
3450,52.0,-1.98,21.18,1
3451,52.01,0.53,12.8,1
3452,52.03,-5.16,7.93,1
3453,52.04,-12.42,15.08,1
3454,52.05,-6.81,26.05,1
3455,52.06,3.95,28.39,1
3456,52.08,2.69,19.27,1
3457,52.09,-9.85,9.17,1
3458,52.11,-12.14,13.86,1
3459,52.12,3.28,26.24,1
3460,52.13,13.03,26.72,1
3461,52.15,5.66,21.99,1
3462,52.16,-1.01,24.77,2
3463,52.17,1.35,24.26,2
3464,52.19,3.63,16.13,2
3465,52.2,2.06,15.88,2
3466,52.21,-2.29,21.99,2
3467,52.22,-6.96,15.9,2
3468,52.24,-6.48,2.29,2
3469,52.25,-0.16,5.83,2
3470,52.26,4.72,44.13,2
3471,52.28,5.66,123.9,2
3472,52.29,10.24,229.01,2
3473,52.3,15.3,317.62,2
3474,52.32,1.58,348.77,2
3475,52.33,-28.67,311.73,2
3476,52.34,-47.8,232.16,2
3477,52.36,-46.24,143.99,2
3478,52.37,-34.9,60.72,2
3479,52.38,-18.78,-15.92,2
3480,52.4,-4.43,-76.99,2
3481,52.41,-1.17,-117.09,2
3482,52.43,-1.35,-152.13,2
3483,52.44,6.6,-196.36,2
3484,52.45,13.54,-227.7,2
3485,52.47,10.0,-220.46,2
3486,52.48,7.39,-191.82,2
3487,52.49,12.95,-167.62,2
3488,52.51,13.62,-151.06,2
3489,52.52,7.31,-143.24,2
3490,52.53,11.81,-138.23,2
3491,52.54,25.68,-120.56,2
3492,52.56,24.08,-93.76,1
3493,52.57,7.73,-72.52,1
3494,52.59,3.1,-60.15,1
3495,52.6,12.22,-59.87,1
3496,52.61,23.23,-69.61,1
3497,52.63,35.65,-72.94,1
3498,52.64,35.21,-67.13,1
3499,52.65,14.48,-64.79,1
3500,52.67,-1.55,-63.81,1
3501,52.68,0.32,-53.28,1
3502,52.69,4.92,-36.23,1
3503,52.71,-0.86,-25.3,1
3504,52.72,-11.11,-25.56,1
3505,52.73,-10.34,-29.87,1
3506,52.75,-3.1,-23.77,1
3507,52.76,-7.37,-8.73,1
3508,52.77,-18.43,-3.85,1
3509,52.79,-19.89,-5.61,1
3510,52.8,-12.28,3.63,1
3511,52.81,-4.32,12.24,1
3512,52.83,0.4,4.46,1
3513,52.84,-1.02,-2.58,1
3514,52.85,-10.98,5.85,1
3515,52.87,-20.44,17.04,1
3516,52.88,-17.13,23.1,1
3517,52.89,-6.55,28.35,1
3518,52.9,1.12,31.2,1
3519,52.92,6.55,30.79,1
3520,52.93,7.41,33.23,1
3521,52.94,0.06,37.36,1
3522,52.96,-9.93,34.26,1
3523,52.97,-14.98,32.92,1
3524,52.98,-11.5,46.13,1
3525,53.0,-2.29,55.97,1
3526,53.01,3.79,46.72,1
3527,53.02,2.71,36.78,1
3528,53.04,-1.59,38.32,1
3529,53.05,-5.66,38.69,1
3530,53.06,-8.91,33.13,1
3531,53.08,-5.89,33.53,1
3532,53.09,5.11,45.17,1
3533,53.11,5.83,55.57,1
3534,53.12,-13.05,50.32,1
3535,53.13,-19.85,36.56,1
3536,53.15,5.27,32.6,1
3537,53.16,27.49,36.91,1
3538,53.17,19.98,36.56,1
3539,53.19,2.26,31.66,1
3540,53.2,-6.79,28.61,1
3541,53.21,-8.31,26.81,1
3542,53.22,-5.45,26.0,1
3543,53.24,-4.52,28.34,1
3544,53.25,-5.51,30.39,1
3545,53.27,1.85,28.25,1
3546,53.28,12.58,26.38,1
3547,53.29,12.48,26.49,1
3548,53.31,2.03,26.04,1
3549,53.32,-7.77,26.07,1
3550,53.33,-5.53,26.87,1
3551,53.35,2.58,28.84,1
3552,53.36,0.54,32.29,1
3553,53.37,-5.66,30.9,1
3554,53.38,-3.57,21.77,1
3555,53.4,1.46,10.46,1
3556,53.41,3.31,3.31,1
3557,53.43,4.1,4.18,1
3558,53.44,3.38,7.31,1
3559,53.45,1.12,6.51,1
3560,53.47,-0.83,8.67,1
3561,53.48,-6.59,14.24,1
3562,53.49,-12.41,11.49,1
3563,53.51,-7.34,5.87,1
3564,53.52,2.21,8.79,1
3565,53.53,5.65,11.92,1
3566,53.54,6.29,4.05,1
3567,53.56,3.89,-8.24,1
3568,53.57,-1.12,-9.51,1
3569,53.58,-2.57,-2.79,1
3570,53.6,-2.19,-3.15,1
3571,53.61,0.93,-6.49,1
3572,53.62,12.07,-4.65,1
3573,53.64,16.95,-5.65,1
3574,53.65,6.06,-11.72,1
3575,53.66,-2.85,-11.31,1
3576,53.68,-2.3,-4.27,1
3577,53.69,-3.51,-1.66,1
3578,53.7,-8.5,-3.87,1
3579,53.72,-6.34,-6.38,1
3580,53.73,3.32,-7.74,1
3581,53.75,6.03,-6.99,1
3582,53.76,3.08,-9.21,1
3583,53.77,4.84,-12.16,1
3584,53.79,3.91,-4.81,1
3585,53.8,-2.28,2.63,1
3586,53.81,-2.09,-4.85,1
3587,53.83,5.85,-14.34,1
3588,53.84,10.73,-15.26,1
3589,53.85,1.37,-16.82,1
3590,53.87,-19.26,-19.99,1
3591,53.88,-26.7,-19.02,1
3592,53.89,-11.8,-16.11,1
3593,53.9,-1.77,-13.52,1
3594,53.92,-7.99,-12.01,1
3595,53.93,-4.34,-13.93,1
3596,53.95,14.98,-17.96,1
3597,53.96,20.78,-17.89,1
3598,53.97,6.93,-13.05,1
3599,53.99,-1.36,-15.55,1
3600,54.0,5.33,-26.01,1
3601,54.01,12.4,-27.32,1
3602,54.03,10.42,-18.86,1
3603,54.04,5.51,-10.31,1
3604,54.05,3.81,-3.0,1
3605,54.06,-0.91,-5.42,1
3606,54.08,-11.89,-19.5,1
3607,54.09,-19.2,-25.92,1
3608,54.11,-15.82,-19.17,1
3609,54.12,-3.13,-17.75,1
3610,54.13,13.32,-34.15,1
3611,54.15,19.41,-46.95,1
3612,54.16,8.77,-18.04,2
3613,54.17,-4.81,64.65,2
3614,54.18,-10.33,175.81,2
3615,54.2,-12.14,204.51,2
3616,54.21,-2.18,38.66,2
3617,54.22,34.29,-150.11,2
3618,54.24,58.48,-63.21,2
3619,54.25,18.65,204.8,2
3620,54.26,-38.0,324.54,2
3621,54.28,-43.68,262.67,2
3622,54.29,-26.68,207.46,2
3623,54.3,-11.28,231.82,2
3624,54.32,23.07,241.04,2
3625,54.33,61.12,173.36,2
3626,54.34,82.92,90.83,2
3627,54.36,80.28,16.55,2
3628,54.37,47.33,-56.92,2
3629,54.38,19.91,-81.29,2
3630,54.4,8.23,-35.95,2
3631,54.41,-22.92,24.87,2
3632,54.43,-49.61,12.84,2
3633,54.44,-20.42,-75.21,2
3634,54.45,43.25,-171.65,2
3635,54.47,58.83,-257.84,2
3636,54.48,-2.92,-277.15,2
3637,54.49,-53.89,-211.95,2
3638,54.51,-42.18,-206.41,2
3639,54.52,-38.19,-268.14,2
3640,54.53,-57.63,-245.58,2
3641,54.54,-39.19,-178.25,2
3642,54.56,-16.21,-161.64,1
3643,54.57,-38.13,-124.98,1
3644,54.59,-40.78,-58.0,1
3645,54.6,1.29,-82.41,1
3646,54.61,16.1,-201.91,1
3647,54.63,-4.86,-244.38,1
3648,54.64,-10.51,-151.87,1
3649,54.65,-6.72,-87.75,1
3650,54.67,-13.84,-133.2,1
3651,54.68,-13.16,-183.51,1
3652,54.69,-9.6,-153.62,1
3653,54.71,-30.14,-58.79,1
3654,54.72,-62.37,29.81,1
3655,54.73,-70.37,34.11,1
3656,54.75,-43.82,-33.04,1
3657,54.76,-9.54,-71.98,1
3658,54.77,-3.23,-49.88,1
3659,54.79,-29.33,-13.4,1
3660,54.8,-42.11,-3.08,1
3661,54.81,5.71,-46.38,1
3662,54.82,63.11,-97.42,1
3663,54.84,41.92,-68.68,1
3664,54.85,-20.48,13.22,1
3665,54.86,-31.52,59.64,1
3666,54.88,-0.54,51.5,1
3667,54.89,23.49,34.84,1
3668,54.9,39.31,52.46,1
3669,54.92,34.38,79.12,1
3670,54.93,-14.2,56.32,1
3671,54.94,-48.49,-13.26,1
3672,54.96,-8.02,-54.21,1
3673,54.97,50.79,-29.19,1
3674,54.98,49.52,7.0,1
3675,55.0,3.73,24.31,1
3676,55.01,-13.79,27.14,1
3677,55.025000000000006,3.57,21.87,1
3678,55.04,-3.73,57.84,1
3679,55.05,-20.9,85.93,1
3680,55.06,1.18,25.25,1
3681,55.08,26.46,2.14,1
3682,55.09,12.16,59.89,1
3683,55.11,0.04,27.27,1
3684,55.12,22.53,-35.71,1
3685,55.13,27.02,57.55,1
3686,55.15,-3.78,167.35,1
3687,55.16,-5.43,115.68,1
3688,55.17,33.32,31.85,1
3689,55.19,55.85,42.05,1
3690,55.2,43.44,68.51,1
3691,55.21,23.18,65.67,1
3692,55.22,13.46,83.55,1
3693,55.24,17.74,104.95,1
3694,55.25,32.36,91.02,1
3695,55.27,46.54,64.95,1
3696,55.28,49.07,31.44,1
3697,55.29,25.22,6.46,1
3698,55.31,-12.81,57.18,1
3699,55.32,-14.94,142.84,1
3700,55.33,4.27,135.17,1
3701,55.35,-20.83,79.77,1
3702,55.36,-48.69,111.36,1
3703,55.37,-11.32,164.63,1
3704,55.38,24.54,105.22,1
3705,55.4,4.22,2.89,1
3706,55.41,-10.16,21.85,1
3707,55.43,-1.93,120.7,1
3708,55.44,-17.48,126.86,1
3709,55.45,-30.86,61.95,1
3710,55.46,-12.16,40.68,1
3711,55.48,-1.85,45.99,1
3712,55.49,0.7,58.3,1
3713,55.5,18.71,87.33,1
3714,55.52,11.57,67.21,1
3715,55.53,-28.12,-12.21,1
3716,55.54,-42.45,-33.39,1
3717,55.56,-5.89,31.66,1
3718,55.57,45.25,66.79,1
3719,55.58,45.67,31.19,1
3720,55.6,-5.06,9.72,1
3721,55.61,-21.29,34.92,1
3722,55.62,7.02,40.42,1
3723,55.64,0.82,19.21,1
3724,55.65,-25.81,27.3,1
3725,55.66,-2.71,48.63,1
3726,55.68,34.47,37.13,1
3727,55.69,23.39,17.25,1
3728,55.71,-10.27,34.21,1
3729,55.72,-24.94,55.09,1
3730,55.73,-19.44,28.86,1
3731,55.75,-9.75,-22.94,1
3732,55.76,-7.28,-54.57,1
3733,55.77,-3.19,-56.01,1
3734,55.79,4.54,-50.69,1
3735,55.8,6.64,-50.81,1
3736,55.81,7.92,-31.85,1
3737,55.83,1.02,8.59,1
3738,55.84,-14.04,25.03,1
3739,55.85,-3.81,-0.83,1
3740,55.87,30.84,-16.87,1
3741,55.88,45.18,9.24,1
3742,55.89,23.31,25.78,1
3743,55.9,-8.42,9.74,1
3744,55.92,-25.58,-9.51,1
3745,55.93,-29.22,-46.31,1
3746,55.95,-21.89,-86.44,1
3747,55.96,-9.18,-60.55,1
3748,55.97,-16.04,-1.08,1
3749,55.99,-36.12,-10.8,1
3750,56.0,-36.25,-66.2,1
3751,56.01,-18.65,-67.92,1
3752,56.03,5.75,-44.65,1
3753,56.04,25.77,-78.98,1
3754,56.05,7.88,-98.35,1
3755,56.06,-32.19,-13.48,1
3756,56.08,-34.54,50.04,1
3757,56.09,-6.91,-15.58,1
3758,56.1,7.19,-77.2,1
3759,56.12,12.79,-48.37,1
3760,56.13,11.44,-29.23,1
3761,56.14,-11.08,-31.18,1
3762,56.16,-28.85,14.98,0
3763,56.17,-17.49,26.2,0
3764,56.18,12.48,-64.09,0
3765,56.2,40.32,-113.41,0
3766,56.21,37.59,-39.96,0
3767,56.22,8.84,30.25,0
3768,56.24,-3.76,15.84,0
3769,56.25,4.94,-12.9,0
3770,56.26,10.17,-6.08,0
3771,56.28,6.35,-11.8,0
3772,56.29,3.8,-68.45,0
3773,56.3,7.13,-156.28,0
3774,56.32,5.78,-251.17,0
3775,56.33,-0.32,-327.43,0
3776,56.35,5.74,-351.59,0
3777,56.36,17.29,-319.87,0
3778,56.37,11.83,-261.06,0
3779,56.38,-2.3,-197.2,0
3780,56.4,-2.21,-123.88,0
3781,56.41,3.17,-40.44,0
3782,56.43,-4.13,24.01,0
3783,56.44,-9.72,53.07,0
3784,56.45,-1.1,69.86,0
3785,56.47,-0.3,92.46,0
3786,56.48,-14.46,110.01,0
3787,56.49,-18.48,117.9,0
3788,56.51,-6.81,123.14,0
3789,56.52,1.8,122.05,0
3790,56.53,3.61,119.84,0
3791,56.54,1.36,131.05,0
3792,56.56,-7.02,137.99,1
3793,56.57,-10.53,119.11,1
3794,56.59,-1.51,94.77,1
3795,56.6,5.8,90.35,1
3796,56.61,-3.91,101.15,1
3797,56.63,-23.25,107.8,1
3798,56.64,-26.54,97.93,1
3799,56.65,-5.82,83.07,1
3800,56.67,14.56,83.27,1
3801,56.68,21.16,88.96,1
3802,56.69,21.09,81.74,1
3803,56.71,8.04,70.57,1
3804,56.72,-18.43,66.34,1
3805,56.73,-29.37,67.42,1
3806,56.74,-9.14,69.36,1
3807,56.76,14.67,61.72,1
3808,56.77,12.13,47.43,1
3809,56.78,-8.73,42.93,1
3810,56.8,-19.02,40.77,1
3811,56.81,-2.81,28.73,1
3812,56.82,23.81,23.07,1
3813,56.84,28.89,31.95,1
3814,56.85,13.79,35.83,1
3815,56.86,5.04,25.95,1
3816,56.88,1.08,18.09,1
3817,56.89,-13.48,16.69,1
3818,56.9,-20.57,7.5,1
3819,56.92,-3.03,-2.57,1
3820,56.93,13.69,2.66,1
3821,56.94,11.91,7.33,1
3822,56.96,6.23,-4.76,1
3823,56.97,1.02,-15.36,1
3824,56.99,-6.28,-8.82,1
3825,57.0,-8.85,-0.05,1
3826,57.01,-5.85,-3.65,1
3827,57.03,-1.75,-9.01,1
3828,57.04,1.04,-5.47,1
3829,57.05,-3.13,-1.34,1
3830,57.06,-14.63,-2.9,1
3831,57.08,-23.07,-7.23,1
3832,57.09,-18.34,-15.34,1
3833,57.11,-1.94,-24.0,1
3834,57.12,8.9,-25.24,1
3835,57.13,5.02,-23.49,1
3836,57.15,0.72,-28.93,1
3837,57.16,3.83,-38.27,1
3838,57.17,5.3,-36.34,1
3839,57.19,3.66,-21.39,1
3840,57.2,3.0,-13.13,1
3841,57.21,3.73,-20.72,1
3842,57.22,7.59,-26.28,1
3843,57.24,11.31,-19.87,1
3844,57.25,8.37,-18.71,1
3845,57.27,-0.87,-29.34,1
3846,57.28,-8.45,-35.63,1
3847,57.29,-4.31,-34.77,1
3848,57.31,6.9,-37.78,1
3849,57.32,9.99,-42.5,1
3850,57.33,8.73,-38.72,1
3851,57.35,10.05,-31.05,1
3852,57.36,1.44,-31.65,1
3853,57.37,-16.16,-36.12,1
3854,57.38,-17.31,-31.8,1
3855,57.4,0.57,-20.85,1
3856,57.41,5.65,-18.32,1
3857,57.42,-9.13,-28.24,1
3858,57.44,-15.06,-34.83,1
3859,57.45,-4.53,-31.72,1
3860,57.46,6.93,-29.54,1
3861,57.48,9.6,-27.2,1
3862,57.49,2.16,-18.94,1
3863,57.5,-2.87,-11.84,1
3864,57.52,4.02,-11.29,1
3865,57.53,8.12,-17.3,1
3866,57.54,3.9,-25.5,1
3867,57.56,5.36,-26.11,1
3868,57.57,8.89,-20.72,1
3869,57.58,4.05,-20.01,1
3870,57.6,-1.65,-23.75,1
3871,57.61,-4.55,-20.83,1
3872,57.63,-7.78,-12.44,1
3873,57.64,-5.16,-15.11,1
3874,57.65,3.96,-24.04,1
3875,57.67,7.47,-20.63,1
3876,57.68,4.87,-12.91,1
3877,57.69,4.52,-9.21,1
3878,57.71,1.34,-1.83,1
3879,57.72,-8.5,0.64,1
3880,57.73,-9.96,-11.64,1
3881,57.75,3.85,-22.22,1
3882,57.76,16.27,-14.45,1
3883,57.77,16.35,-1.78,1
3884,57.79,10.23,-5.41,1
3885,57.8,3.63,-16.3,1
3886,57.81,1.1,-15.98,1
3887,57.83,3.09,-5.1,1
3888,57.84,0.54,6.14,1
3889,57.85,-5.44,7.8,1
3890,57.87,-4.22,0.65,1
3891,57.88,3.78,-2.23,1
3892,57.89,5.78,1.79,1
3893,57.9,-4.23,1.68,1
3894,57.92,-11.92,-3.1,1
3895,57.93,-4.67,-0.83,1
3896,57.95,5.61,4.66,1
3897,57.96,2.88,-2.05,1
3898,57.97,-6.89,-11.92,1
3899,57.99,-8.7,-8.65,1
3900,58.0,-3.25,-1.85,1
3901,58.01,-0.08,0.54,1
3902,58.02,-0.64,4.26,1
3903,58.04,-4.58,4.46,1
3904,58.05,-8.71,-3.44,1
3905,58.06,-7.41,-3.92,1
3906,58.08,-5.52,11.44,1
3907,58.09,-7.93,22.66,1
3908,58.1,-9.15,18.2,1
3909,58.12,-3.82,11.78,1
3910,58.13,5.73,12.61,1
3911,58.14,8.85,18.62,1
3912,58.16,2.82,25.33,0
3913,58.17,-1.05,29.98,0
3914,58.18,1.51,34.1,0
3915,58.2,6.92,31.26,0
3916,58.21,10.6,17.38,0
3917,58.22,6.96,9.47,0
3918,58.24,1.35,12.03,0
3919,58.25,2.26,8.31,0
3920,58.26,2.26,1.46,0
3921,58.28,-5.06,7.21,0
3922,58.29,-12.33,8.42,0
3923,58.31,-11.08,-39.15,0
3924,58.32,0.91,-130.81,0
3925,58.33,14.46,-186.59,0
3926,58.35,15.42,-166.45,0
3927,58.36,7.48,-129.47,0
3928,58.37,9.08,-131.52,0
3929,58.38,19.89,-154.69,0
3930,58.4,23.63,-154.42,0
3931,58.41,20.04,-120.03,0
3932,58.43,17.6,-74.35,0
3933,58.44,12.98,-32.97,0
3934,58.45,1.11,6.7,0
3935,58.47,-12.47,40.88,0
3936,58.48,-16.57,62.5,0
3937,58.49,-8.8,79.19,0
3938,58.51,-1.82,103.46,0
3939,58.52,-9.73,136.6,0
3940,58.53,-22.14,164.85,0
3941,58.54,-18.47,174.04,0
3942,58.56,-10.16,170.8,1
3943,58.57,-16.9,176.69,1
3944,58.59,-27.6,194.91,1
3945,58.6,-29.72,200.75,1
3946,58.61,-27.02,183.37,1
3947,58.63,-14.32,161.98,1
3948,58.64,6.71,145.68,1
3949,58.65,10.61,128.36,1
3950,58.66,-7.25,114.66,1
3951,58.68,-19.09,110.05,1
3952,58.69,-9.06,108.04,1
3953,58.7,9.28,98.83,1
3954,58.72,11.75,76.85,1
3955,58.73,-0.81,53.4,1
3956,58.74,-10.8,43.06,1
3957,58.76,-16.77,37.67,1
3958,58.77,-15.28,27.74,1
3959,58.78,0.19,19.47,1
3960,58.8,13.46,12.53,1
3961,58.81,6.75,2.62,1
3962,58.82,-9.99,-2.41,1
3963,58.84,-13.89,-1.09,1
3964,58.85,1.26,-3.23,1
3965,58.86,22.7,-7.24,1
3966,58.88,31.87,-7.1,1
3967,58.89,20.71,-7.91,1
3968,58.9,0.54,-15.75,1
3969,58.92,-12.01,-27.93,1
3970,58.93,-11.9,-36.27,1
3971,58.95,-3.9,-34.86,1
3972,58.96,10.54,-28.38,1
3973,58.97,27.34,-30.37,1
3974,58.99,24.51,-44.58,1
3975,59.0,-2.93,-54.75,1
3976,59.01,-20.83,-48.26,1
3977,59.03,-10.74,-37.69,1
3978,59.04,8.46,-36.51,1
3979,59.05,19.56,-37.3,1
3980,59.06,18.65,-36.82,1
3981,59.08,9.34,-44.36,1
3982,59.09,2.21,-54.33,1
3983,59.11,-2.06,-51.74,1
3984,59.12,-10.72,-41.19,1
3985,59.13,-11.6,-42.53,1
3986,59.15,6.35,-59.72,1
3987,59.16,16.58,-68.55,1
3988,59.17,2.13,-55.25,1
3989,59.19,-7.98,-42.36,1
3990,59.2,1.64,-45.02,1
3991,59.21,8.62,-49.78,1
3992,59.22,0.81,-49.72,1
3993,59.24,-6.54,-49.98,1
3994,59.25,0.09,-48.93,1
3995,59.27,10.52,-41.9,1
3996,59.28,8.45,-35.18,1
3997,59.29,-3.81,-39.61,1
3998,59.3,-12.57,-49.53,1
3999,59.32,-7.73,-48.97,1
4000,59.33,5.2,-39.59,1
4001,59.34,9.78,-36.39,1
4002,59.36,3.27,-40.89,1
4003,59.37,-3.04,-41.55,1
4004,59.38,-3.97,-34.26,1
4005,59.4,-4.49,-28.78,1
4006,59.41,-4.39,-31.06,1
4007,59.42,1.71,-30.06,1
4008,59.44,6.12,-24.09,1
4009,59.45,2.26,-27.07,1
4010,59.46,0.49,-32.74,1
4011,59.48,4.89,-26.04,1
4012,59.49,7.15,-18.49,1
4013,59.5,8.27,-24.08,1
4014,59.52,11.46,-29.73,1
4015,59.53,9.53,-20.68,1
4016,59.54,4.37,-7.46,1
4017,59.56,6.6,-6.21,1
4018,59.57,10.76,-11.27,1
4019,59.59,9.39,-8.11,1
4020,59.6,9.15,0.05,1
4021,59.61,8.27,-2.6,1
4022,59.63,-2.41,-14.11,1
4023,59.64,-15.61,-15.36,1
4024,59.65,-17.12,-5.36,1
4025,59.67,-6.3,1.31,1
4026,59.68,5.2,3.84,1
4027,59.69,5.74,5.66,1
4028,59.71,-1.62,3.28,1
4029,59.72,-5.26,-1.69,1
4030,59.73,-4.27,-4.2,1
4031,59.75,-1.37,-3.18,1
4032,59.76,3.64,0.09,1
4033,59.77,6.29,3.05,1
4034,59.79,3.98,6.36,1
4035,59.8,-3.02,11.04,1
4036,59.81,-7.61,13.28,1
4037,59.83,0.8,13.74,1
4038,59.84,10.39,17.18,1
4039,59.85,3.16,18.1,1
4040,59.87,-10.44,11.05,1
4041,59.88,-12.89,5.19,1
4042,59.89,-7.99,8.69,1
4043,59.9,-2.64,16.58,1
4044,59.92,4.53,20.2,1
4045,59.93,5.53,19.38,1
4046,59.94,-4.33,21.61,1
4047,59.96,-9.53,25.46,1
4048,59.97,-3.65,23.25,1
4049,59.98,-0.62,18.88,1
4050,60.0,-4.2,17.21,1
4051,60.01,-3.27,13.07,1
4052,60.02,3.78,7.98,1
4053,60.04,6.74,9.4,1
4054,60.05,2.62,16.0,1
4055,60.06,-3.93,24.44,1
4056,60.08,-14.78,32.04,1
4057,60.09,-26.58,30.45,1
4058,60.1,-23.69,18.52,1
4059,60.12,-4.85,11.06,1
4060,60.13,11.48,15.83,1
4061,60.14,10.67,20.45,1
4062,60.16,-5.13,18.4,2
4063,60.17,-14.26,17.99,2
4064,60.18,-3.26,21.56,2
4065,60.2,7.05,22.64,2
4066,60.21,-1.02,20.62,2
4067,60.22,-11.66,29.8,2
4068,60.24,-12.51,74.63,2
4069,60.25,-10.28,162.83,2
4070,60.27,-1.36,261.62,2
4071,60.28,19.11,316.76,2
4072,60.29,31.61,301.11,2
4073,60.31,19.72,241.07,2
4074,60.32,-2.33,181.96,2
4075,60.33,-16.64,134.29,2
4076,60.35,-27.79,80.22,2
4077,60.36,-38.68,12.51,2
4078,60.37,-37.48,-60.46,2
4079,60.38,-25.69,-129.27,2
4080,60.4,-19.27,-179.68,2
4081,60.41,-18.15,-195.55,2
4082,60.43,-9.84,-188.09,2
4083,60.44,4.61,-185.28,2
4084,60.45,14.66,-187.6,2
4085,60.47,18.86,-175.72,2
4086,60.48,16.7,-152.48,2
4087,60.49,6.36,-134.73,2
4088,60.51,2.46,-120.47,2
4089,60.52,17.63,-105.56,2
4090,60.53,32.06,-97.89,2
4091,60.54,26.5,-94.7,2
4092,60.56,14.9,-88.09,1
4093,60.57,13.19,-73.19,1
4094,60.58,17.89,-47.4,1
4095,60.6,22.44,-35.5,1
4096,60.61,21.66,-54.66,1
4097,60.62,15.77,-66.98,1
4098,60.64,11.85,-49.39,1
4099,60.65,8.49,-32.61,1
4100,60.66,1.47,-32.12,1
4101,60.68,-4.49,-33.47,1
4102,60.69,-7.85,-30.63,1
4103,60.7,-8.35,-22.97,1
4104,60.72,-0.72,-12.7,1
4105,60.73,8.3,-6.5,1
4106,60.74,6.05,-4.73,1
4107,60.76,-0.6,-1.94,1
4108,60.77,0.67,8.01,1
4109,60.78,4.81,23.68,1
4110,60.8,3.28,29.38,1
4111,60.81,-3.42,19.55,1
4112,60.82,-8.67,11.27,1
4113,60.84,-7.39,14.78,1
4114,60.85,-3.86,22.04,1
4115,60.865,-1.74,28.91,1
4116,60.88,3.25,32.73,1
4117,60.89,9.02,28.54,1
4118,60.9,3.35,23.71,1
4119,60.92,-9.63,23.27,1
4120,60.93,-9.75,19.48,1
4121,60.95,0.97,19.09,1
4122,60.96,1.66,30.43,1
4123,60.97,-6.54,41.19,1
4124,60.99,-4.39,45.75,1
4125,61.0,7.33,46.7,1
4126,61.01,9.3,37.19,1
4127,61.03,-4.24,24.52,1
4128,61.04,-18.96,26.68,1
4129,61.05,-15.59,37.72,1
4130,61.06,2.2,41.76,1
4131,61.08,6.81,40.45,1
4132,61.09,-6.13,42.18,1
4133,61.11,-11.64,45.62,1
4134,61.12,-5.27,43.81,1
4135,61.13,-4.96,37.23,1
4136,61.15,-8.24,34.54,1
4137,61.16,0.46,36.4,1
4138,61.17,11.68,34.61,1
4139,61.19,6.91,32.0,1
4140,61.2,-5.42,33.41,1
4141,61.21,-7.45,27.35,1
4142,61.22,-1.81,16.77,1
4143,61.24,1.07,21.67,1
4144,61.25,4.6,34.51,1
4145,61.26,10.02,36.96,1
4146,61.28,3.94,32.96,1
4147,61.29,-11.02,26.21,1
4148,61.3,-13.25,12.24,1
4149,61.32,-2.8,1.0,1
4150,61.33,-0.22,8.09,1
4151,61.34,-8.01,24.87,1
4152,61.36,-12.73,28.08,1
4153,61.37,-10.25,19.83,1
4154,61.38,-5.55,16.62,1
4155,61.4,-2.83,14.69,1
4156,61.41,-1.18,4.43,1
4157,61.42,-0.18,-3.5,1
4158,61.44,-1.93,3.57,1
4159,61.45,-2.21,14.94,1
4160,61.46,3.3,19.16,1
4161,61.48,11.07,20.07,1
4162,61.49,16.84,12.34,1
4163,61.5,16.36,-4.2,1
4164,61.52,7.41,-11.75,1
4165,61.53,-2.53,-8.93,1
4166,61.54,-5.17,-5.34,1
4167,61.56,-4.12,-3.59,1
4168,61.57,-2.84,-9.83,1
4169,61.59,0.46,-17.62,1
4170,61.6,-0.68,-10.22,1
4171,61.61,-6.13,3.15,1
4172,61.63,-1.88,3.6,1
4173,61.64,10.57,-2.9,1
4174,61.65,17.08,-0.54,1
4175,61.67,13.83,7.19,1
4176,61.68,2.44,0.04,1
4177,61.69,-11.23,-17.89,1
4178,61.71,-18.56,-16.65,1
4179,61.72,-16.25,-3.91,1
4180,61.73,-6.02,-9.94,1
4181,61.75,3.97,-21.44,1
4182,61.76,4.78,-16.88,1
4183,61.77,-1.67,-11.07,1
4184,61.79,-3.86,-14.37,1
4185,61.8,5.19,-14.66,1
4186,61.81,13.79,-6.57,1
4187,61.83,9.95,2.56,1
4188,61.84,1.61,2.15,1
4189,61.85,-5.47,-13.96,1
4190,61.86,-11.17,-32.71,1
4191,61.88,-7.05,-31.02,1
4192,61.89,3.64,-11.86,1
4193,61.9,7.19,-2.42,1
4194,61.92,3.39,-11.07,1
4195,61.93,-2.38,-20.26,1
4196,61.94,-10.39,-17.53,1
4197,61.96,-14.03,-12.51,1
4198,61.97,-5.98,-21.32,1
4199,61.98,2.56,-31.22,1
4200,62.0,-0.26,-18.95,1
4201,62.01,-4.56,-4.81,1
4202,62.02,4.4,-16.9,1
4203,62.04,20.27,-30.94,1
4204,62.05,21.28,-17.99,1
4205,62.06,5.93,0.28,1
4206,62.08,-4.76,-2.45,1
4207,62.09,-4.69,-14.56,1
4208,62.1,-3.98,-18.33,1
4209,62.12,-3.44,-15.77,1
4210,62.13,2.24,-18.14,1
4211,62.14,5.99,-27.12,1
4212,62.16,-0.72,-28.4,2
4213,62.17,-6.98,-2.66,2
4214,62.19,-1.56,59.74,2
4215,62.2,7.06,120.52,2
4216,62.21,11.29,134.14,2
4217,62.22,7.86,125.79,2
4218,62.24,-3.03,83.42,2
4219,62.25,-4.53,-4.4,2
4220,62.27,9.69,35.8,2
4221,62.28,14.77,233.24,2
4222,62.29,6.22,279.18,2
4223,62.31,10.49,98.13,2
4224,62.32,12.24,-25.94,2
4225,62.33,-25.15,-5.01,2
4226,62.35,-56.23,7.86,2
4227,62.36,-21.97,-50.03,2
4228,62.37,24.99,-127.9,2
4229,62.38,22.94,-152.85,2
4230,62.4,4.66,-118.8,2
4231,62.41,8.69,-117.89,2
4232,62.43,27.51,-141.35,2
4233,62.44,38.18,-88.33,2
4234,62.45,17.76,-15.85,2
4235,62.47,-17.44,-41.78,2
4236,62.48,-28.33,-129.53,2
4237,62.49,-29.22,-165.61,2
4238,62.5,-46.53,-125.33,2
4239,62.52,-50.51,-75.12,2
4240,62.53,-18.66,-61.08,2
4241,62.54,14.06,-55.02,2
4242,62.56,15.64,-30.98,1
4243,62.57,3.13,-39.63,1
4244,62.58,0.44,-72.85,1
4245,62.6,-2.86,-21.14,1
4246,62.61,-17.26,70.21,1
4247,62.62,-22.82,49.95,1
4248,62.64,-14.61,-31.75,1
4249,62.65,-5.31,-49.83,1
4250,62.66,14.99,-31.95,1
4251,62.68,30.77,-17.31,1
4252,62.69,10.95,7.72,1
4253,62.7,-9.82,12.37,1
4254,62.72,0.08,-6.73,1
4255,62.73,7.23,-8.05,1
4256,62.74,0.05,-9.65,1
4257,62.76,2.28,-31.23,1
4258,62.77,13.94,-36.61,1
4259,62.78,15.28,-16.02,1
4260,62.8,0.02,-18.28,1
4261,62.81,-8.68,-73.16,1
4262,62.825,-1.47,-120.76,1
4263,62.84,-1.82,-79.57,1
4264,62.85,1.06,18.6,1
4265,62.87,16.88,63.91,1
4266,62.88,8.72,30.65,1
4267,62.89,-10.21,-30.26,1
4268,62.9,1.87,-77.37,1
4269,62.92,17.66,-60.19,1
4270,62.93,5.57,13.41,1
4271,62.95,-4.5,56.2,1
4272,62.96,8.3,51.93,1
4273,62.97,16.2,53.79,1
4274,62.99,14.17,49.75,1
4275,63.0,20.67,10.4,1
4276,63.01,19.79,-3.92,1
4277,63.03,3.83,22.15,1
4278,63.04,0.33,15.16,1
4279,63.05,9.34,5.64,1
4280,63.06,5.59,46.5,1
4281,63.08,-5.49,47.55,1
4282,63.09,-10.45,-17.45,1
4283,63.11,-13.95,-21.71,1
4284,63.12,-9.88,50.58,1
4285,63.13,1.58,83.19,1
4286,63.14,0.19,41.96,1
4287,63.16,-6.95,-18.48,1
4288,63.17,0.81,-41.22,1
4289,63.18,9.95,-18.32,1
4290,63.2,16.7,8.12,1
4291,63.21,33.27,26.59,1
4292,63.22,31.59,47.07,1
4293,63.24,0.66,44.28,1
4294,63.25,-15.95,24.9,1
4295,63.26,-12.8,43.36,1
4296,63.28,-21.64,85.51,1
4297,63.29,-26.04,84.79,1
4298,63.3,-8.07,46.03,1
4299,63.32,-4.27,18.63,1
4300,63.33,-19.32,20.98,1
4301,63.34,-12.57,35.79,1
4302,63.36,4.41,34.69,1
4303,63.37,-0.4,24.04,1
4304,63.38,-13.71,27.28,1
4305,63.4,-20.3,26.89,1
4306,63.41,-13.85,-5.5,1
4307,63.42,15.43,-45.61,1
4308,63.44,37.81,-59.12,1
4309,63.45,23.16,-37.09,1
4310,63.46,8.73,24.71,1
4311,63.48,14.58,86.45,1
4312,63.49,1.53,86.95,1
4313,63.51,-27.09,41.16,1
4314,63.52,-31.41,27.15,1
4315,63.53,-18.01,68.41,1
4316,63.54,-7.52,99.7,1
4317,63.56,6.56,75.8,1
4318,63.57,16.7,23.12,1
4319,63.59,3.63,-17.92,1
4320,63.6,-8.39,-34.99,1
4321,63.61,12.91,-27.47,1
4322,63.63,23.5,-4.41,1
4323,63.64,-14.84,10.6,1
4324,63.65,-39.32,25.7,1
4325,63.67,-13.98,58.1,1
4326,63.68,10.77,80.72,1
4327,63.69,17.67,58.03,1
4328,63.71,24.83,15.82,1
4329,63.72,35.04,18.46,1
4330,63.73,38.32,47.5,1
4331,63.75,19.11,35.65,1
4332,63.76,-1.76,-7.77,1
4333,63.77,9.27,-31.6,1
4334,63.78,21.31,-21.98,1
4335,63.8,-9.11,4.13,1
4336,63.81,-49.06,25.62,1
4337,63.82,-55.06,14.65,1
4338,63.84,-45.73,-22.79,1
4339,63.85,-39.79,-29.53,1
4340,63.86,-29.65,-11.8,1
4341,63.88,-16.24,-32.41,1
4342,63.89,8.42,-55.11,1
4343,63.9,43.27,-32.64,1
4344,63.92,43.39,-21.74,1
4345,63.93,1.08,-34.73,1
4346,63.94,-22.66,-24.95,1
4347,63.96,-6.21,0.85,1
4348,63.97,8.2,12.59,1
4349,63.98,-4.02,4.5,1
4350,64.0,-22.12,-7.66,1
4351,64.01,-21.99,-10.5,1
4352,64.02,-9.27,-4.23,1
4353,64.04,1.26,-2.83,1
4354,64.05,14.06,-29.44,1
4355,64.06,27.54,-67.03,1
4356,64.08,18.56,-53.82,1
4357,64.09,-9.05,8.71,1
4358,64.1,-24.05,39.84,1
4359,64.12,-23.15,17.32,1
4360,64.13,-25.48,-17.64,1
4361,64.14,-30.75,-48.4,1
4362,64.16,-19.07,-41.38,0
4363,64.17,6.23,16.09,0
4364,64.18,15.16,38.83,0
4365,64.2,8.15,-5.63,0
4366,64.21,8.47,-29.75,0
4367,64.22,16.08,2.74,0
4368,64.24,19.43,25.56,0
4369,64.25,9.61,-22.13,0
4370,64.26,-5.55,-124.24,0
4371,64.28,-0.74,-202.37,0
4372,64.29,19.49,-214.22,0
4373,64.3,26.53,-199.08,0
4374,64.32,18.38,-183.25,0
4375,64.33,10.82,-132.17,0
4376,64.34,10.59,-36.06,0
4377,64.36,15.07,49.92,0
4378,64.37,14.83,68.49,0
4379,64.38,2.94,20.81,0
4380,64.4,-10.68,-37.86,0
4381,64.41,-14.21,-57.28,0
4382,64.42,-14.1,-35.23,0
4383,64.44,-17.23,-2.35,0
4384,64.45,-17.7,16.9,0
4385,64.46,-15.49,26.77,0
4386,64.48,-15.71,39.08,0
4387,64.49,-14.39,54.82,0
4388,64.5,-8.33,69.45,0
4389,64.52,-2.63,70.79,0
4390,64.53,-0.17,62.0,0
4391,64.54,-0.28,63.99,0
4392,64.56,-2.42,72.65,1
4393,64.57,-4.08,72.86,1
4394,64.58,-1.31,70.41,1
4395,64.6,4.32,69.17,1
4396,64.61,6.23,68.04,1
4397,64.62,9.27,70.93,1
4398,64.64,15.69,69.36,1
4399,64.65,9.7,56.95,1
4400,64.66,-5.25,49.16,1
4401,64.68,-7.98,53.23,1
4402,64.69,-2.04,55.62,1
4403,64.7,-0.42,54.08,1
4404,64.72,1.22,52.39,1
4405,64.73,5.47,44.07,1
4406,64.74,6.64,36.36,1
4407,64.76,7.69,37.02,1
4408,64.77,13.52,36.37,1
4409,64.79,16.64,34.24,1
4410,64.8,14.79,35.47,1
4411,64.81,13.85,35.55,1
4412,64.82,10.73,30.78,1
4413,64.84,0.81,19.83,1
4414,64.85,-8.97,8.52,1
4415,64.86,-7.55,4.89,1
4416,64.88,-1.42,7.1,1
4417,64.89,-5.62,11.62,1
4418,64.9,-12.5,12.23,1
4419,64.92,-6.87,1.02,1
4420,64.93,3.16,-7.48,1
4421,64.94,3.23,3.3,1
4422,64.96,-0.65,8.77,1
4423,64.97,2.34,-11.86,1
4424,64.98,4.77,-26.3,1
4425,65.0,-1.33,-11.46,1
4426,65.01,-4.73,3.49,1
4427,65.02,3.88,1.68,1
4428,65.04,12.01,1.31,1
4429,65.05,9.74,2.62,1
4430,65.06,8.58,-8.83,1
4431,65.08,11.76,-21.29,1
4432,65.09,7.26,-20.34,1
4433,65.1,-1.56,-17.92,1
4434,65.12,-2.79,-21.45,1
4435,65.13,-0.73,-21.94,1
4436,65.14,-4.76,-22.71,1
4437,65.16,-8.03,-29.57,1
4438,65.17,-3.94,-32.95,1
4439,65.18,-0.9,-29.45,1
4440,65.2,-0.3,-23.86,1
4441,65.21,3.47,-19.27,1
4442,65.22,4.99,-26.2,1
4443,65.24,-0.79,-45.02,1
4444,65.25,-5.71,-49.82,1
4445,65.26,-4.93,-30.34,1
4446,65.28,-4.24,-14.7,1
4447,65.29,-3.46,-18.71,1
4448,65.3,-1.14,-27.7,1
4449,65.32,-2.32,-30.57,1
4450,65.33,-3.4,-27.79,1
4451,65.34,2.9,-22.41,1
4452,65.36,6.06,-18.49,1
4453,65.37,-4.53,-16.07,1
4454,65.38,-11.99,-15.9,1
4455,65.4,-0.44,-24.06,1
4456,65.41,15.53,-34.77,1
4457,65.42,16.24,-32.08,1
4458,65.44,5.96,-22.21,1
4459,65.45,1.14,-22.07,1
4460,65.46,4.53,-23.61,1
4461,65.48,7.62,-13.63,1
4462,65.49,3.51,-4.27,1
4463,65.5,-8.7,-9.41,1
4464,65.52,-13.87,-18.22,1
4465,65.53,1.31,-15.6,1
4466,65.54,14.55,-8.74,1
4467,65.56,3.38,-10.53,1
4468,65.57,-12.76,-15.21,1
4469,65.58,-11.72,-15.18,1
4470,65.6,2.68,-15.81,1
4471,65.61,17.41,-16.5,1
4472,65.62,16.63,-12.15,1
4473,65.64,0.66,-10.86,1
4474,65.65,-7.07,-17.65,1
4475,65.66,-2.5,-22.09,1
4476,65.68,-4.18,-17.03,1
4477,65.69,-9.02,-7.54,1
4478,65.7,-3.14,-0.99,1
4479,65.72,2.79,-4.09,1
4480,65.73,-4.69,-14.85,1
4481,65.74,-13.33,-18.26,1
4482,65.76,-6.78,-8.98,1
4483,65.77,4.89,-1.88,1
4484,65.78,3.32,-4.97,1
4485,65.8,-6.52,-4.97,1
4486,65.81,-10.02,6.44,1
4487,65.82,-9.54,13.59,1
4488,65.84,-11.63,3.88,1
4489,65.85,-8.38,-9.26,1
4490,65.86,-0.85,-11.49,1
4491,65.88,-2.04,-5.42,1
4492,65.89,-5.75,4.34,1
4493,65.9,-1.22,10.58,1
4494,65.92,3.05,3.9,1
4495,65.93,0.66,-6.48,1
4496,65.94,-3.54,-3.02,1
4497,65.96,-6.29,6.2,1
4498,65.97,-6.92,4.39,1
4499,65.98,-6.1,-2.27,1
4500,66.0,-0.62,-2.75,1
4501,66.01,11.02,2.46,1
4502,66.02,11.99,10.93,1
4503,66.04,-4.49,19.32,1
4504,66.05,-14.71,19.57,1
4505,66.06,-9.34,8.03,1
4506,66.08,-6.99,-2.82,1
4507,66.09,-10.43,0.38,1
4508,66.11,-5.36,8.87,1
4509,66.12,1.15,7.91,1
4510,66.13,-4.28,2.2,1
4511,66.14,-10.58,6.82,1
4512,66.16,-7.72,19.1,0
4513,66.17,3.09,22.66,0
4514,66.18,14.25,12.38,0
4515,66.2,9.7,-18.34,0
4516,66.21,-2.6,-74.6,0
4517,66.22,-0.39,-126.86,0
4518,66.24,3.93,-139.02,0
4519,66.25,-4.69,-123.94,0
4520,66.26,-7.42,-123.26,0
4521,66.28,7.82,-143.12,0
4522,66.29,27.46,-143.09,0
4523,66.3,36.2,-104.4,0
4524,66.32,28.23,-63.19,0
4525,66.33,8.17,-42.08,0
4526,66.34,-8.09,-22.95,0
4527,66.36,-5.13,0.77,0
4528,66.37,17.19,21.29,0
4529,66.38,39.7,43.74,0
4530,66.4,35.58,69.75,0
4531,66.41,6.84,87.87,0
4532,66.42,-16.29,98.33,0
4533,66.44,-22.43,114.8,0
4534,66.45,-20.56,137.09,0
4535,66.46,-11.24,154.25,0
4536,66.48,5.37,168.35,0
4537,66.49,13.69,184.29,0
4538,66.5,-0.43,190.8,0
4539,66.52,-19.44,181.12,0
4540,66.53,-14.63,167.78,0
4541,66.54,2.46,156.72,0
4542,66.56,3.14,138.39,1
4543,66.57,-6.07,116.44,1
4544,66.58,-8.28,104.68,1
4545,66.6,-7.78,96.85,1
4546,66.61,-6.84,77.79,1
4547,66.62,0.71,56.58,1
4548,66.64,10.21,55.66,1
4549,66.65,9.93,66.89,1
4550,66.66,-2.51,61.24,1
4551,66.68,-16.5,41.88,1
4552,66.69,-18.29,33.17,1
4553,66.7,-6.39,30.28,1
4554,66.72,2.84,13.42,1
4555,66.73,-2.6,-4.18,1
4556,66.75,-14.39,1.14,1
4557,66.76,-15.08,11.62,1
4558,66.77,-1.75,1.61,1
4559,66.79,1.98,-13.7,1
4560,66.8,-11.99,-12.88,1
4561,66.81,-18.55,-5.73,1
4562,66.82,-11.16,-11.27,1
4563,66.84,-5.5,-24.97,1
4564,66.85,-2.83,-31.22,1
4565,66.86,8.59,-30.04,1
4566,66.88,27.48,-32.63,1
4567,66.89,33.53,-42.56,1
4568,66.9,20.67,-50.99,1
4569,66.92,5.68,-51.9,1
4570,66.93,-2.18,-49.79,1
4571,66.94,-4.95,-50.25,1
4572,66.96,-5.22,-53.61,1
4573,66.97,-6.16,-55.72,1
4574,66.98,-9.75,-55.96,1
4575,67.0,-13.3,-56.49,1
4576,67.01,-10.13,-54.16,1
4577,67.02,-0.13,-48.5,1
4578,67.04,8.25,-47.99,1
4579,67.05,9.29,-53.54,1
4580,67.06,7.6,-53.85,1
4581,67.08,9.29,-49.77,1
4582,67.09,9.6,-53.21,1
4583,67.1,4.36,-59.03,1
4584,67.12,0.27,-52.52,1
4585,67.13,-0.33,-38.51,1
4586,67.14,-6.81,-35.04,1
4587,67.16,-14.95,-40.97,1
4588,67.17,-6.01,-40.52,1
4589,67.18,12.14,-36.44,1
4590,67.2,13.49,-39.57,1
4591,67.21,5.37,-41.12,1
4592,67.22,8.81,-34.68,1
4593,67.24,15.02,-33.58,1
4594,67.25,12.28,-41.51,1
4595,67.26,10.09,-43.4,1
4596,67.28,8.92,-34.17,1
4597,67.29,-2.6,-25.45,1
4598,67.3,-14.33,-23.92,1
4599,67.32,-11.29,-26.37,1
4600,67.33,-1.24,-29.59,1
4601,67.34,5.85,-28.96,1
4602,67.36,10.93,-21.65,1
4603,67.37,12.62,-15.57,1
4604,67.38,4.8,-20.09,1
4605,67.4,-7.39,-29.54,1
4606,67.41,-6.75,-29.15,1
4607,67.43,4.48,-19.29,1
4608,67.44,3.72,-15.08,1
4609,67.45,-8.95,-19.85,1
4610,67.46,-11.91,-23.51,1
4611,67.48,-1.97,-20.97,1
4612,67.49,3.35,-14.91,1
4613,67.5,-2.31,-5.8,1
4614,67.52,-5.07,4.63,1
4615,67.53,-0.64,7.34,1
4616,67.54,-1.48,3.55,1
4617,67.56,-7.29,6.4,1
4618,67.57,-5.28,14.26,1
4619,67.58,2.18,14.0,1
4620,67.6,-1.16,4.55,1
4621,67.61,-11.24,-2.01,1
4622,67.62,-9.8,0.44,1
4623,67.64,-3.39,3.82,1
4624,67.65,-2.48,2.39,1
4625,67.66,2.94,0.69,1
4626,67.68,11.87,3.2,1
4627,67.69,8.26,6.51,1
4628,67.7,-3.35,5.82,1
4629,67.72,-2.35,3.12,1
4630,67.73,8.37,-0.2,1
4631,67.74,9.98,-4.18,1
4632,67.76,3.2,-1.86,1
4633,67.77,0.5,7.65,1
4634,67.78,0.31,13.87,1
4635,67.8,-7.83,14.3,1
4636,67.81,-16.65,16.03,1
4637,67.82,-8.73,20.75,1
4638,67.84,6.8,22.91,1
4639,67.85,9.41,21.51,1
4640,67.86,4.95,23.07,1
4641,67.88,1.65,27.17,1
4642,67.89,-2.01,28.42,1
4643,67.9,0.34,24.17,1
4644,67.92,1.06,12.17,1
4645,67.93,-9.4,3.21,1
4646,67.94,-9.06,10.69,1
4647,67.96,9.14,21.76,1
4648,67.97,17.97,22.62,1
4649,67.98,5.6,20.11,1
4650,68.0,-12.55,18.14,1
4651,68.01,-19.57,13.7,1
4652,68.02,-16.05,11.15,1
4653,68.04,-8.74,15.73,1
4654,68.05,3.17,23.85,1
4655,68.06,11.59,31.09,1
4656,68.08,4.1,32.77,1
4657,68.09,-10.63,23.38,1
4658,68.11,-15.08,11.09,1
4659,68.12,-7.21,10.2,1
4660,68.13,3.93,15.91,1
4661,68.14,9.32,17.59,1
4662,68.16,7.15,21.64,2
4663,68.17,6.13,39.74,2
4664,68.18,6.53,83.78,2
4665,68.2,1.26,163.32,2
4666,68.21,-1.77,253.7,2
4667,68.22,6.0,300.33,2
4668,68.24,17.85,281.7,2
4669,68.25,27.13,232.3,2
4670,68.26,29.04,182.6,2
4671,68.28,17.84,124.12,2
4672,68.29,-1.92,54.98,2
4673,68.3,-20.17,-8.03,2
4674,68.32,-31.38,-63.57,2
4675,68.33,-29.69,-117.19,2
4676,68.34,-19.23,-160.88,2
4677,68.36,-12.7,-185.73,2
4678,68.37,-7.92,-191.11,2
4679,68.38,-3.8,-181.03,2
4680,68.4,-9.71,-163.19,2
4681,68.41,-16.36,-146.36,2
4682,68.42,-10.46,-133.95,2
4683,68.44,-0.19,-125.53,2
4684,68.45,5.57,-120.24,2
4685,68.46,10.56,-115.81,2
4686,68.48,13.81,-100.51,2
4687,68.49,8.28,-66.96,2
4688,68.5,0.72,-46.36,2
4689,68.52,2.48,-67.15,2
4690,68.53,5.37,-96.75,2
4691,68.54,-0.18,-96.53,2
4692,68.56,-0.74,-81.57,1
4693,68.57,9.9,-70.84,1
4694,68.58,14.57,-56.57,1
4695,68.6,9.51,-44.89,1
4696,68.61,10.02,-48.17,1
4697,68.62,15.38,-49.55,1
4698,68.64,9.45,-34.08,1
4699,68.65,-2.68,-17.43,1
4700,68.66,-0.13,-12.49,1
4701,68.68,11.41,-13.85,1
4702,68.69,12.16,-16.94,1
4703,68.7,5.37,-15.65,1
4704,68.72,2.91,-6.53,1
4705,68.73,2.89,0.61,1
4706,68.75,-3.01,2.93,1
4707,68.76,-12.34,9.17,1
4708,68.77,-11.93,20.62,1
4709,68.79,-2.86,32.58,1
4710,68.8,-3.31,37.46,1
4711,68.81,-14.37,33.85,1
4712,68.82,-16.59,31.28,1
4713,68.84,-5.37,29.5,1
4714,68.85,7.89,26.4,1
4715,68.86,16.57,29.2,1
4716,68.88,12.83,34.51,1
4717,68.89,-4.69,31.57,1
4718,68.9,-16.29,26.29,1
4719,68.92,-11.85,32.6,1
4720,68.93,-3.53,42.21,1
4721,68.94,2.11,37.65,1
4722,68.96,8.85,31.57,1
4723,68.97,15.5,40.3,1
4724,68.98,15.88,44.51,1
4725,69.0,9.1,34.14,1
4726,69.01,3.23,34.84,1
4727,69.02,8.41,49.24,1
4728,69.04,17.57,44.48,1
4729,69.05,11.67,27.39,1
4730,69.06,-3.94,35.59,1
4731,69.08,-10.1,54.81,1
4732,69.09,-6.21,47.76,1
4733,69.1,-4.93,27.37,1
4734,69.12,-13.31,26.12,1
4735,69.13,-21.37,38.8,1
4736,69.14,-13.83,38.94,1
4737,69.16,1.87,27.18,1
4738,69.17,7.4,21.18,1
4739,69.18,1.78,22.14,1
4740,69.2,-5.99,20.06,1
4741,69.21,-9.88,17.25,1
4742,69.22,-7.69,24.63,1
4743,69.24,-3.56,35.62,1
4744,69.25,-3.08,32.52,1
4745,69.26,-7.27,19.86,1
4746,69.28,-14.44,18.93,1
4747,69.29,-17.09,26.84,1
4748,69.3,-4.25,22.18,1
4749,69.32,13.02,8.47,1
4750,69.33,12.24,7.38,1
4751,69.34,-0.11,19.47,1
4752,69.36,-6.2,23.91,1
4753,69.37,-5.63,13.79,1
4754,69.38,-1.75,4.61,1
4755,69.4,6.58,4.31,1
4756,69.41,11.8,4.06,1
4757,69.43,2.11,1.44,1
4758,69.44,-15.21,-0.44,1
4759,69.45,-18.55,-4.64,1
4760,69.46,-5.81,-6.3,1
4761,69.48,6.33,1.41,1
4762,69.49,9.94,9.3,1
4763,69.5,9.16,5.95,1
4764,69.52,5.7,-5.39,1
4765,69.53,-0.28,-10.88,1
4766,69.54,-3.93,-6.21,1
4767,69.56,-2.24,-5.71,1
4768,69.57,-0.81,-13.21,1
4769,69.58,-3.36,-8.45,1
4770,69.6,0.6,12.82,1
4771,69.61,10.29,21.27,1
4772,69.62,7.01,4.64,1
4773,69.64,-3.09,-10.36,1
4774,69.65,-2.35,-7.77,1
4775,69.66,-0.74,-1.51,1
4776,69.68,-3.81,-4.36,1
4777,69.69,-0.88,-10.79,1
4778,69.7,0.5,-13.14,1
4779,69.72,-6.29,-14.2,1
4780,69.73,-7.42,-14.39,1
4781,69.74,-1.79,-8.87,1
4782,69.76,1.83,-2.06,1
4783,69.77,7.78,-2.74,1
4784,69.78,11.9,-13.29,1
4785,69.8,5.41,-28.5,1
4786,69.81,-0.99,-32.82,1
4787,69.82,-0.85,-22.39,1
4788,69.84,-4.27,-17.9,1
4789,69.85,-12.08,-22.73,1
4790,69.86,-12.75,-14.37,1
4791,69.88,-2.82,1.48,1
4792,69.89,6.88,-1.35,1
4793,69.9,3.2,-16.59,1
4794,69.92,-7.49,-24.59,1
4795,69.93,-5.78,-23.64,1
4796,69.94,6.2,-21.37,1
4797,69.96,9.67,-22.97,1
4798,69.97,1.9,-24.48,1
4799,69.98,-4.54,-20.15,1
4800,70.0,-3.03,-14.61,1
4801,70.01,2.06,-12.15,1
4802,70.02,4.63,-9.44,1
4803,70.04,0.48,-2.79,1
4804,70.05,-5.36,5.73,1
4805,70.06,-1.6,5.85,1
4806,70.08,4.7,-9.24,1
4807,70.09,-2.17,-20.62,1
4808,70.11,-10.67,-11.25,1
4809,70.12,-5.01,-1.08,1
4810,70.13,2.82,-5.72,1
4811,70.14,4.6,-12.02,1
4812,70.16,9.6,-18.67,2
4813,70.17,13.33,-32.71,2
4814,70.18,8.3,-36.6,2
4815,70.2,5.82,-8.37,2
4816,70.21,10.34,53.94,2
4817,70.22,10.76,130.19,2
4818,70.24,3.31,175.77,2
4819,70.25,-6.29,122.28,2
4820,70.26,-6.96,-39.69,2
4821,70.28,9.87,-100.79,2
4822,70.29,34.22,138.79,2
4823,70.3,45.78,430.76,2
4824,70.32,37.27,349.01,2
4825,70.33,21.65,-41.46,2
4826,70.34,10.81,-191.48,2
4827,70.36,-1.75,69.94,2
4828,70.37,-13.61,223.5,2
4829,70.38,-9.92,82.45,2
4830,70.4,-3.89,57.59,2
4831,70.41,-15.63,212.3,2
4832,70.42,-29.86,246.02,2
4833,70.44,-42.73,130.71,2
4834,70.45,-77.5,52.87,2
4835,70.46,-91.85,31.48,2
4836,70.48,-25.42,-48.88,2
4837,70.49,56.09,-142.43,2
4838,70.5,49.93,-104.34,2
4839,70.52,-7.31,0.27,2
4840,70.53,-19.78,-19.96,2
4841,70.54,-1.77,-127.3,2
