,Timestamp,Data1,Data2,Label
0,6.0,6.19,14.17,1
1,6.01,-2.78,4.18,1
2,6.03,-8.4,5.31,1
3,6.04,-4.78,16.05,1
4,6.05,3.5,17.77,1
5,6.07,7.98,11.98,1
6,6.08,5.02,10.52,1
7,6.09,-2.35,9.54,1
8,6.11,-7.27,-0.56,1
9,6.12,-4.99,-9.63,1
10,6.13,1.69,-4.47,1
11,6.15,2.82,0.07,2
12,6.16,-4.44,-9.18,2
13,6.17,-6.24,-23.23,2
14,6.19,7.43,-48.18,2
15,6.2,27.6,-60.34,2
16,6.21,36.86,10.63,2
17,6.23,5.33,101.69,2
18,6.24,-61.21,103.59,2
19,6.25,-76.42,91.56,2
20,6.27,-2.09,104.77,2
21,6.28,70.97,159.43,2
22,6.29,70.41,318.38,2
23,6.31,34.78,315.41,2
24,6.32,13.65,7.0,2
25,6.33,-8.55,-102.09,2
26,6.35,-32.14,214.91,2
27,6.36,-23.08,435.32,2
28,6.37,-11.01,297.8,2
29,6.39,-21.72,144.75,2
30,6.4,2.4,157.09,2
31,6.41,49.59,170.71,2
32,6.43,26.08,111.33,2
33,6.44,-42.9,60.74,2
34,6.45,-58.38,46.77,2
35,6.47,-8.34,29.31,2
36,6.48,51.3,-1.29,2
37,6.49,48.8,-26.38,2
38,6.51,-11.86,-43.2,2
39,6.52,-43.46,-60.32,2
40,6.53,-31.94,-92.63,2
41,6.55,-26.41,-153.07,2
42,6.56,-33.73,-194.51,1
43,6.57,-28.48,-185.07,1
44,6.59,9.6,-197.89,1
45,6.6,46.34,-216.45,1
46,6.61,33.18,-171.47,1
47,6.63,5.84,-197.2,1
48,6.64,5.66,-355.66,1
49,6.65,-0.79,-439.93,1
50,6.67,-24.05,-354.56,1
51,6.68,-23.49,-242.98,1
52,6.69,4.62,-209.54,1
53,6.71,16.11,-217.11,1
54,6.72,-5.27,-221.41,1
55,6.73,-25.87,-223.1,1
56,6.75,-24.44,-220.79,1
57,6.76,-19.8,-211.72,1
58,6.77,-21.33,-204.95,1
59,6.79,-9.34,-199.79,1
60,6.8,13.9,-159.73,1
61,6.81,17.33,-99.33,1
62,6.82,4.57,-95.43,1
63,6.84,6.04,-133.45,1
64,6.85,8.13,-135.79,1
65,6.86,-14.32,-90.48,1
66,6.88,-35.3,-58.21,1
67,6.89,-23.11,-77.27,1
68,6.91,8.58,-98.45,1
69,6.92,16.36,-98.15,1
70,6.93,-17.58,-124.29,1
71,6.95,-43.09,-151.49,1
72,6.96,-20.22,-131.61,1
73,6.97,5.36,-108.57,1
74,6.99,2.53,-61.29,1
75,7.0,-0.2,41.6,1
76,7.01,1.54,71.68,1
77,7.03,7.78,15.77,1
78,7.04,25.88,31.65,1
79,7.05,28.66,99.82,1
80,7.07,18.15,90.58,1
81,7.08,24.37,38.11,1
82,7.09,23.22,32.57,1
83,7.11,0.11,53.01,1
84,7.12,-7.89,50.7,1
85,7.13,-2.69,40.09,1
86,7.15,-12.34,63.08,1
87,7.16,-24.14,102.7,1
88,7.17,-17.47,103.6,1
89,7.19,11.81,104.7,1
90,7.2,43.42,155.99,1
91,7.21,35.35,182.56,1
92,7.23,-2.68,150.07,1
93,7.24,-10.32,128.71,1
94,7.25,15.29,135.04,1
95,7.27,24.3,140.55,1
96,7.28,13.78,138.65,1
97,7.29,17.49,124.48,1
98,7.31,27.35,124.25,1
99,7.32,11.69,157.2,1
100,7.33,-15.13,158.44,1
101,7.35,-18.29,111.14,1
102,7.36,1.15,112.19,1
103,7.37,21.74,179.73,1
104,7.39,17.41,202.48,1
105,7.4,-15.81,123.37,1
106,7.41,-23.78,37.16,1
107,7.43,22.64,64.08,1
108,7.44,54.29,151.11,1
109,7.45,19.21,138.32,1
110,7.47,-32.67,58.15,1
111,7.48,-44.41,66.06,1
112,7.49,-29.48,96.21,1
113,7.51,-25.25,10.23,1
114,7.52,-24.88,-80.76,1
115,7.53,2.52,-16.66,1
116,7.55,28.11,98.72,1
117,7.56,2.05,98.02,1
118,7.57,-27.74,90.43,1
119,7.59,-2.38,202.39,1
120,7.6,25.14,271.77,1
121,7.61,0.49,199.64,1
122,7.63,-34.06,125.62,1
123,7.64,-29.56,104.37,1
124,7.65,-12.45,64.52,1
125,7.67,-19.6,14.7,1
126,7.68,-22.71,26.46,1
127,7.69,1.44,75.72,1
128,7.71,23.16,69.44,1
129,7.72,25.23,32.48,1
130,7.73,12.42,31.31,1
131,7.75,-0.53,13.07,1
132,7.76,6.68,-43.8,1
133,7.77,13.37,-55.6,1
134,7.79,1.14,17.72,1
135,7.8,-2.4,76.82,1
136,7.81,-1.6,6.54,1
137,7.83,-18.4,-57.85,1
138,7.84,-16.05,50.84,1
139,7.85,26.38,164.04,1
140,7.87,56.49,118.83,1
141,7.88,36.71,15.08,1
142,7.89,-1.41,-49.64,1
143,7.91,-9.35,-55.61,1
144,7.92,6.53,-19.63,1
145,7.93,6.84,-11.6,1
146,7.95,-0.05,-37.11,1
147,7.96,4.58,-29.96,1
148,7.97,7.44,2.84,1
149,7.99,10.7,12.44,1
150,8.0,9.52,-21.91,1
151,8.01,-10.35,-106.5,1
152,8.03,-16.85,-155.5,1
153,8.04,8.51,-69.79,1
154,8.05,16.73,38.85,1
155,8.07,-7.9,10.12,1
156,8.08,-11.88,-71.12,1
157,8.09,9.97,-47.46,1
158,8.1,14.17,24.11,1
159,8.12,5.09,16.27,1
160,8.13,3.8,-37.96,1
161,8.15,4.37,-68.18,0
162,8.16,6.72,-102.57,0
163,8.17,14.26,-155.6,0
164,8.19,13.09,-190.55,0
165,8.2,-7.92,-211.69,0
166,8.21,-29.87,-243.24,0
167,8.23,-27.24,-268.38,0
168,8.24,-14.27,-259.55,0
169,8.25,-15.02,-215.29,0
170,8.27,-17.41,-148.7,0
171,8.28,-11.19,-78.02,0
172,8.29,-9.77,-23.06,0
173,8.31,-12.82,11.35,0
174,8.32,-11.03,30.5,0
175,8.33,-12.12,37.17,0
176,8.35,-16.9,38.66,0
177,8.36,-10.42,40.97,0
178,8.37,2.8,42.24,0
179,8.39,5.97,41.8,0
180,8.4,0.35,38.83,0
181,8.41,-4.38,31.13,0
182,8.43,-2.11,22.08,0
183,8.44,8.91,20.62,0
184,8.45,15.41,31.14,0
185,8.47,3.5,44.74,0
186,8.48,-12.05,49.81,0
187,8.49,-9.85,43.47,0
188,8.51,-0.86,29.73,0
189,8.52,-4.58,21.72,0
190,8.53,-13.55,28.07,0
191,8.55,-12.63,35.84,1
192,8.56,-1.78,31.08,1
193,8.57,12.05,17.4,1
194,8.59,15.19,8.36,1
195,8.6,1.8,6.82,1
196,8.61,-7.65,3.51,1
197,8.63,-1.05,4.05,1
198,8.64,8.22,15.57,1
199,8.65,8.23,23.87,1
200,8.67,2.51,20.45,1
201,8.68,0.76,13.64,1
202,8.69,0.51,9.41,1
203,8.71,-6.01,9.15,1
204,8.72,-13.08,11.96,1
205,8.73,-11.22,6.63,1
206,8.75,0.86,-11.65,1
207,8.76,11.9,-20.86,1
208,8.77,5.9,-10.97,1
209,8.78,-8.71,-7.62,1
210,8.8,-7.32,-18.84,1
211,8.81,7.44,-22.38,1
212,8.82,14.3,-13.4,1
213,8.84,7.27,-3.6,1
214,8.85,-2.91,3.94,1
215,8.87,-4.14,4.46,1
216,8.88,2.17,-3.92,1
217,8.89,6.48,-10.61,1
218,8.91,9.26,-10.97,1
219,8.92,13.39,-11.38,1
220,8.93,10.48,-10.57,1
221,8.95,0.96,-9.6,1
222,8.96,-1.61,-21.08,1
223,8.97,1.18,-34.33,1
224,8.99,0.75,-24.12,1
225,9.0,2.22,-1.59,1
226,9.01,4.16,2.68,1
227,9.03,-2.61,-14.39,1
228,9.04,-11.9,-31.68,1
229,9.05,-10.66,-38.24,1
230,9.07,1.44,-37.86,1
231,9.08,14.23,-30.62,1
232,9.09,14.75,-18.06,1
233,9.11,1.76,-10.99,1
234,9.12,-8.33,-13.98,1
235,9.13,-8.09,-17.15,1
236,9.15,-8.1,-13.73,1
237,9.16,-11.35,-10.98,1
238,9.17,-6.16,-15.52,1
239,9.19,6.88,-23.45,1
240,9.2,9.56,-23.27,1
241,9.21,0.09,-13.11,1
242,9.23,-6.22,-8.07,1
243,9.24,-8.29,-13.72,1
244,9.25,-7.09,-17.64,1
245,9.27,4.73,-15.57,1
246,9.28,15.56,-16.78,1
247,9.29,9.0,-21.84,1
248,9.31,-0.38,-20.52,1
249,9.32,2.44,-12.32,1
250,9.33,0.73,-8.34,1
251,9.35,-10.27,-12.95,1
252,9.36,-7.23,-15.78,1
253,9.37,10.48,-9.86,1
254,9.39,15.94,-4.42,1
255,9.4,5.24,-7.72,1
256,9.41,-1.98,-11.69,1
257,9.43,-1.92,-3.52,1
258,9.44,-2.93,5.71,1
259,9.45,-5.02,-6.23,1
260,9.47,-2.88,-21.48,1
261,9.48,6.45,-10.32,1
262,9.49,13.17,7.07,1
263,9.51,6.29,1.6,1
264,9.52,-3.62,-10.47,1
265,9.53,-2.4,-8.53,1
266,9.55,1.63,-4.0,1
267,9.56,-3.4,-4.59,1
268,9.57,-7.97,-1.25,1
269,9.59,-2.87,0.74,1
270,9.6,1.35,-8.61,1
271,9.61,-3.5,-12.13,1
272,9.63,-9.85,2.82,1
273,9.64,-6.11,11.5,1
274,9.65,7.46,1.33,1
275,9.67,12.98,1.16,1
276,9.68,1.12,17.83,1
277,9.69,-10.1,19.96,1
278,9.71,-5.27,7.41,1
279,9.72,5.86,7.95,1
280,9.73,8.54,14.73,1
281,9.75,1.03,10.64,1
282,9.76,-9.18,8.74,1
283,9.77,-15.32,16.4,1
284,9.79,-15.27,19.76,1
285,9.8,-8.95,12.1,1
286,9.81,-0.81,1.9,1
287,9.83,2.28,-2.77,1
288,9.84,4.51,-3.55,1
289,9.85,7.54,-0.72,1
290,9.87,4.66,7.51,1
291,9.88,-0.77,13.23,1
292,9.89,-2.35,11.06,1
293,9.91,-1.78,6.79,1
294,9.92,1.03,5.35,1
295,9.93,8.12,5.95,1
296,9.95,11.7,7.38,1
297,9.96,2.94,12.33,1
298,9.97,-8.07,18.49,1
299,9.99,-6.28,18.72,1
300,10.0,2.61,17.64,1
301,10.01,5.3,20.6,1
302,10.02,2.79,16.83,1
303,10.04,1.92,6.08,1
304,10.05,5.14,7.02,1
305,10.06,8.38,20.02,1
306,10.08,5.03,27.19,1
307,10.09,-1.98,24.35,1
308,10.1,-6.67,19.44,1
309,10.12,-5.95,14.09,1
310,10.13,1.68,10.92,1
311,10.15,9.4,12.7,0
312,10.16,15.7,-0.96,0
313,10.17,24.63,-47.31,0
314,10.19,26.31,-103.38,0
315,10.2,15.7,-141.81,0
316,10.21,2.51,-160.62,0
317,10.23,-4.59,-169.56,0
318,10.24,4.94,-173.0,0
319,10.25,21.61,-164.46,0
320,10.27,10.17,-144.4,0
321,10.28,-20.32,-118.12,0
322,10.29,-20.18,-81.82,0
323,10.31,3.68,-39.58,0
324,10.32,-2.6,1.29,0
325,10.33,-36.84,43.13,0
326,10.35,-42.41,78.29,0
327,10.36,-10.73,97.43,0
328,10.37,8.56,108.25,0
329,10.39,-2.11,119.23,0
330,10.4,-12.47,133.22,0
331,10.41,-5.8,147.25,0
332,10.43,0.14,152.07,0
333,10.44,-9.89,151.25,0
334,10.45,-20.25,159.27,0
335,10.47,-9.56,177.34,0
336,10.48,7.87,190.54,0
337,10.49,2.36,186.28,0
338,10.51,-14.56,166.16,0
339,10.52,-9.71,139.21,0
340,10.53,8.0,118.12,0
341,10.55,7.44,110.43,1
342,10.56,-4.3,105.21,1
343,10.57,-6.12,92.87,1
344,10.59,-6.18,79.79,1
345,10.6,-10.16,66.65,1
346,10.61,-6.76,52.18,1
347,10.63,-0.85,45.99,1
348,10.64,1.9,44.69,1
349,10.65,7.57,33.87,1
350,10.67,9.06,19.27,1
351,10.68,-0.71,16.77,1
352,10.69,-7.58,19.81,1
353,10.71,-1.32,11.09,1
354,10.72,3.53,-4.69,1
355,10.73,-6.06,-13.86,1
356,10.75,-14.34,-14.57,1
357,10.76,-4.12,-13.64,1
358,10.77,12.85,-20.22,1
359,10.78,14.69,-33.22,1
360,10.8,2.69,-41.36,1
361,10.81,-0.13,-42.19,1
362,10.83,9.79,-40.8,1
363,10.84,10.02,-39.91,1
364,10.85,1.22,-42.84,1
365,10.87,3.82,-50.79,1
366,10.88,10.67,-53.95,1
367,10.89,4.1,-46.47,1
368,10.91,-7.89,-42.69,1
369,10.92,-11.57,-51.29,1
370,10.93,-8.02,-59.02,1
371,10.95,-0.65,-57.06,1
372,10.96,8.89,-50.53,1
373,10.97,11.81,-47.45,1
374,10.99,3.19,-51.13,1
375,11.0,-6.46,-53.95,1
376,11.01,-8.33,-49.57,1
377,11.03,-7.57,-46.45,1
378,11.04,-5.19,-51.72,1
379,11.05,3.81,-60.13,1
380,11.07,16.66,-63.3,1
381,11.08,24.95,-57.71,1
382,11.09,21.89,-51.77,1
383,11.11,9.19,-54.11,1
384,11.12,-0.29,-56.39,1
385,11.13,-1.66,-54.27,1
386,11.15,-2.68,-56.11,1
387,11.16,-2.35,-56.99,1
388,11.17,3.72,-46.71,1
389,11.19,7.04,-32.36,1
390,11.2,4.31,-27.05,1
391,11.21,5.72,-34.93,1
392,11.23,10.04,-46.85,1
393,11.24,3.74,-48.32,1
394,11.25,-6.74,-40.96,1
395,11.27,-0.77,-36.02,1
396,11.28,13.27,-31.69,1
397,11.29,9.33,-25.7,1
398,11.31,-8.32,-23.78,1
399,11.32,-12.73,-22.65,1
400,11.33,-1.23,-18.86,1
401,11.35,5.98,-19.08,1
402,11.36,6.33,-20.85,1
403,11.37,3.23,-14.99,1
404,11.39,-12.54,-8.88,1
405,11.4,-25.3,-12.72,1
406,11.41,-11.18,-15.07,1
407,11.43,5.27,-9.62,1
408,11.44,-2.52,-9.9,1
409,11.45,-10.43,-11.39,1
410,11.47,2.23,-2.29,1
411,11.48,15.93,2.29,1
412,11.49,9.34,-8.91,1
413,11.51,-4.93,-17.91,1
414,11.52,-4.01,-10.89,1
415,11.53,1.95,0.12,1
416,11.55,-5.65,0.9,1
417,11.56,-13.92,-5.12,1
418,11.57,-6.87,-6.95,1
419,11.59,5.72,-0.09,1
420,11.6,8.35,9.78,1
421,11.61,0.92,14.71,1
422,11.63,-5.1,14.01,1
423,11.64,-2.73,12.22,1
424,11.65,2.38,9.97,1
425,11.67,3.82,4.51,1
426,11.68,2.25,-0.91,1
427,11.69,-1.09,-0.62,1
428,11.71,-2.67,5.19,1
429,11.72,0.43,12.54,1
430,11.73,1.74,14.27,1
431,11.75,-3.95,9.9,1
432,11.76,-8.85,9.37,1
433,11.77,-2.6,13.22,1
434,11.79,7.2,9.73,1
435,11.8,5.73,-1.91,1
436,11.81,-1.71,-7.57,1
437,11.83,-1.26,-2.63,1
438,11.84,4.86,2.51,1
439,11.85,5.29,6.98,1
440,11.87,-1.78,13.29,1
441,11.88,-4.72,14.99,1
442,11.89,3.91,17.77,1
443,11.91,13.39,29.05,1
444,11.92,9.28,33.11,1
445,11.93,-3.69,21.35,1
446,11.94,-8.13,12.37,1
447,11.96,-2.46,18.22,1
448,11.97,2.96,27.72,1
449,11.98,3.51,30.23,1
450,12.0,-3.55,28.73,1
451,12.01,-11.55,28.82,1
452,12.02,-6.53,30.19,1
453,12.04,6.91,29.4,1
454,12.05,10.15,25.15,1
455,12.06,-1.55,17.84,1
456,12.08,-14.26,12.03,1
457,12.09,-15.05,15.63,1
458,12.1,-6.83,24.38,1
459,12.12,1.16,27.39,1
460,12.13,3.77,24.49,1
461,12.15,0.42,19.35,2
462,12.16,-2.98,16.03,2
463,12.17,0.04,19.76,2
464,12.19,4.06,31.82,2
465,12.2,-1.24,64.45,2
466,12.21,-8.56,141.36,2
467,12.23,-4.71,249.34,2
468,12.24,-1.65,331.16,2
469,12.25,-11.56,349.02,2
470,12.27,-22.11,304.01,2
471,12.28,-23.8,210.73,2
472,12.29,-18.11,108.82,2
473,12.31,-6.2,37.93,2
474,12.32,7.05,-16.26,2
475,12.33,15.42,-81.97,2
476,12.35,14.59,-145.75,2
477,12.36,4.51,-186.76,2
478,12.37,-5.26,-207.13,2
479,12.39,-5.07,-211.69,2
480,12.4,4.84,-201.18,2
481,12.41,15.12,-182.08,2
482,12.43,18.01,-163.0,2
483,12.44,14.33,-146.5,2
484,12.45,7.55,-134.13,2
485,12.47,5.47,-129.4,2
486,12.48,12.2,-120.65,2
487,12.49,11.88,-89.49,2
488,12.51,-3.45,-59.67,2
489,12.52,-12.55,-71.4,2
490,12.53,-3.82,-103.71,2
491,12.55,5.84,-105.03,1
492,12.56,5.41,-76.63,1
493,12.57,4.7,-51.69,1
494,12.59,10.16,-36.64,1
495,12.6,14.66,-29.33,1
496,12.61,13.65,-34.29,1
497,12.63,10.49,-38.26,1
498,12.64,7.97,-28.79,1
499,12.65,6.04,-21.37,1
500,12.67,3.07,-25.07,1
501,12.68,-3.25,-20.75,1
502,12.69,-11.09,-7.08,1
503,12.71,-9.67,-3.32,1
504,12.72,1.81,-7.42,1
505,12.73,3.88,-6.17,1
506,12.75,-7.78,-0.59,1
507,12.76,-6.32,4.84,1
508,12.77,12.3,10.88,1
509,12.79,12.32,16.0,1
510,12.8,-7.43,17.96,1
511,12.81,-9.24,25.24,1
512,12.83,4.26,35.63,1
513,12.84,3.28,34.61,1
514,12.85,-9.36,28.58,1
515,12.87,-10.54,28.85,1
516,12.88,2.72,31.47,1
517,12.89,9.43,33.1,1
518,12.91,1.18,33.57,1
519,12.92,-4.39,34.52,1
520,12.93,0.35,40.36,1
521,12.95,3.56,46.44,1
522,12.96,0.83,43.92,1
523,12.97,-7.66,36.96,1
524,12.99,-19.57,37.61,1
525,13.0,-21.21,43.18,1
526,13.01,-8.16,41.28,1
527,13.03,1.41,36.19,1
528,13.04,-2.69,38.12,1
529,13.05,-5.07,37.68,1
530,13.07,2.88,30.99,1
531,13.08,5.27,35.28,1
532,13.09,-2.61,47.49,1
533,13.11,-5.15,45.22,1
534,13.12,-2.35,31.37,1
535,13.13,-3.13,23.58,1
536,13.15,-2.82,22.77,1
537,13.16,7.54,27.6,1
538,13.17,20.33,39.54,1
539,13.19,13.5,42.74,1
540,13.2,-10.96,29.46,1
541,13.21,-23.08,22.62,1
542,13.23,-15.01,35.58,1
543,13.24,-7.6,41.58,1
544,13.25,-7.34,22.85,1
545,13.27,0.79,8.94,1
546,13.28,14.9,20.22,1
547,13.29,13.02,29.06,1
548,13.31,-2.71,14.39,1
549,13.32,-6.41,-3.23,1
550,13.33,-0.21,-0.84,1
551,13.35,-5.67,13.23,1
552,13.36,-12.89,20.35,1
553,13.37,-5.36,20.96,1
554,13.39,2.69,23.95,1
555,13.4,0.12,23.5,1
556,13.41,-2.19,12.27,1
557,13.43,1.99,0.87,1
558,13.44,5.44,2.72,1
559,13.45,0.62,11.76,1
560,13.47,-5.62,13.87,1
561,13.48,2.78,8.36,1
562,13.49,17.73,1.01,1
563,13.51,15.22,-5.86,1
564,13.52,1.08,-5.21,1
565,13.53,-6.32,7.84,1
566,13.55,-10.49,20.17,1
567,13.56,-11.25,15.17,1
568,13.57,2.71,-1.69,1
569,13.59,19.06,-12.48,1
570,13.6,12.96,-14.13,1
571,13.61,-5.97,-13.02,1
572,13.63,-6.31,-14.42,1
573,13.64,9.49,-20.94,1
574,13.65,11.23,-21.85,1
575,13.67,-3.1,-8.16,1
576,13.68,-5.77,1.28,1
577,13.69,5.53,-10.63,1
578,13.71,5.6,-26.35,1
579,13.72,-8.1,-26.04,1
580,13.73,-13.61,-16.98,1
581,13.75,-6.8,-11.1,1
582,13.76,-3.91,-10.94,1
583,13.77,-7.07,-14.61,1
584,13.79,-1.33,-13.52,1
585,13.8,9.91,-5.13,1
586,13.81,6.98,-2.8,1
587,13.83,-4.06,-15.07,1
588,13.84,-3.56,-28.18,1
589,13.85,-1.89,-25.16,1
590,13.86,-10.04,-10.74,1
591,13.88,-10.09,-7.5,1
592,13.89,4.45,-22.29,1
593,13.9,11.84,-30.64,1
594,13.92,5.15,-19.97,1
595,13.93,3.8,-15.4,1
596,13.94,10.25,-26.31,1
597,13.96,7.66,-24.26,1
598,13.97,0.14,-5.1,1
599,13.98,1.44,-3.39,1
600,14.0,5.89,-22.98,1
601,14.01,4.38,-28.09,1
602,14.02,1.53,-8.21,1
603,14.04,-1.23,6.42,1
604,14.05,-6.28,-5.66,1
605,14.07,-6.48,-21.01,1
606,14.08,-1.19,-14.61,1
607,14.09,-0.37,-6.35,1
608,14.11,-3.3,-13.8,1
609,14.12,-0.69,-18.27,1
610,14.13,5.37,-11.17,1
611,14.15,8.23,-14.84,2
612,14.16,9.71,-42.08,2
613,14.17,6.54,-52.38,2
614,14.19,-6.05,-0.84,2
615,14.2,-16.59,62.37,2
616,14.21,-7.59,67.04,2
617,14.23,19.62,32.85,2
618,14.24,32.71,-23.47,2
619,14.25,6.75,-63.47,2
620,14.27,-25.31,42.6,2
621,14.28,-15.08,254.59,2
622,14.29,16.64,323.1,2
623,14.31,9.92,209.57,2
624,14.32,-39.24,113.87,2
625,14.33,-63.89,71.88,2
626,14.35,-13.35,37.02,2
627,14.36,53.41,117.92,2
628,14.37,55.22,253.63,2
629,14.39,38.06,199.54,2
630,14.4,47.89,35.24,2
631,14.41,29.09,14.47,2
632,14.43,-0.56,84.04,2
633,14.44,13.01,44.88,2
634,14.45,16.49,-110.28,2
635,14.47,-8.36,-222.6,2
636,14.48,-14.55,-198.35,2
637,14.49,-15.85,-172.46,2
638,14.51,-29.76,-274.76,2
639,14.52,-29.44,-340.53,2
640,14.53,-11.71,-222.66,2
641,14.55,-8.09,-99.95,1
642,14.56,-26.86,-129.17,1
643,14.57,-36.43,-182.3,1
644,14.59,-19.03,-156.49,1
645,14.6,-4.78,-145.28,1
646,14.61,-14.02,-191.98,1
647,14.63,-16.21,-206.26,1
648,14.64,-7.42,-126.67,1
649,14.65,-14.58,-44.5,1
650,14.67,-17.37,-52.01,1
651,14.68,-1.26,-50.21,1
652,14.69,3.17,12.98,1
653,14.71,-9.48,23.39,1
654,14.72,-11.29,-44.81,1
655,14.73,-5.83,-92.81,1
656,14.75,-12.69,-68.39,1
657,14.76,-12.88,-30.54,1
658,14.77,6.96,-34.8,1
659,14.79,25.24,-74.68,1
660,14.8,24.39,-106.05,1
661,14.81,2.2,-52.52,1
662,14.83,-22.15,23.55,1
663,14.84,-23.06,2.37,1
664,14.85,-8.02,-4.94,1
665,14.87,1.0,75.95,1
666,14.88,5.38,80.63,1
667,14.89,5.7,-12.69,1
668,14.91,-2.56,-22.1,1
669,14.92,-3.94,54.73,1
670,14.93,3.01,57.01,1
671,14.95,4.09,13.43,1
672,14.96,9.25,63.05,1
673,14.97,16.77,125.19,1
674,14.99,5.53,63.88,1
675,15.0,-12.44,1.42,1
676,15.01,-9.99,53.24,1
677,15.03,7.31,78.12,1
678,15.04,16.63,16.14,1
679,15.05,12.63,-3.75,1
680,15.07,9.26,40.51,1
681,15.08,15.23,49.28,1
682,15.09,15.37,11.54,1
683,15.11,-3.22,25.43,1
684,15.12,-20.04,76.76,1
685,15.13,-15.8,70.88,1
686,15.15,-6.68,61.18,1
687,15.16,-7.63,97.21,1
688,15.17,-2.35,105.74,1
689,15.19,13.27,85.42,1
690,15.2,16.17,96.23,1
691,15.21,5.33,96.19,1
692,15.23,0.15,28.49,1
693,15.24,14.51,-16.24,1
694,15.25,45.25,28.01,1
695,15.27,54.09,55.12,1
696,15.28,20.22,32.19,1
697,15.29,-12.46,28.64,1
698,15.31,-9.31,10.8,1
699,15.32,5.11,-24.04,1
700,15.33,5.21,2.26,1
701,15.35,5.54,51.15,1
702,15.36,20.17,61.58,1
703,15.37,29.4,58.62,1
704,15.39,17.86,28.04,1
705,15.4,7.65,-22.92,1
706,15.41,22.74,-23.46,1
707,15.43,47.76,-10.77,1
708,15.44,43.74,-33.16,1
709,15.45,7.83,-14.87,1
710,15.47,-15.83,37.51,1
711,15.48,-12.06,35.72,1
712,15.49,-16.75,6.95,1
713,15.51,-33.77,12.43,1
714,15.52,-18.93,42.16,1
715,15.53,22.18,55.05,1
716,15.55,28.11,32.27,1
717,15.56,2.34,8.38,1
718,15.57,-6.76,40.58,1
719,15.59,-13.51,116.17,1
720,15.6,-36.85,122.82,1
721,15.61,-36.09,37.12,1
722,15.63,-0.92,-17.99,1
723,15.64,8.74,3.56,1
724,15.65,-18.16,66.04,1
725,15.67,-15.39,116.8,1
726,15.68,14.13,86.24,1
727,15.69,1.53,18.56,1
728,15.71,-34.9,6.35,1
729,15.72,-34.12,21.86,1
730,15.73,-9.5,25.26,1
731,15.75,4.08,33.72,1
732,15.76,3.54,16.97,1
733,15.77,-8.23,-27.71,1
734,15.78,-20.01,-22.25,1
735,15.8,-13.7,7.92,1
736,15.81,6.91,-27.53,1
737,15.82,15.28,-55.6,1
738,15.84,-0.32,16.16,1
739,15.85,-15.67,58.86,1
740,15.86,-9.2,-33.3,1
741,15.88,3.12,-107.17,1
742,15.89,0.87,-52.4,1
743,15.9,-8.41,5.48,1
744,15.92,-8.36,-30.47,1
745,15.93,2.96,-72.94,1
746,15.94,7.42,-37.39,1
747,15.96,-3.52,-5.4,1
748,15.97,-3.58,-48.0,1
749,15.98,12.86,-65.22,1
750,16.0,11.59,-19.67,1
751,16.01,-12.28,-18.44,1
752,16.03,-23.28,-59.01,1
753,16.04,-8.34,-40.73,1
754,16.05,1.91,20.47,1
755,16.07,-8.72,24.41,1
756,16.08,-17.2,-19.27,1
757,16.09,-14.76,-21.5,1
758,16.11,-15.56,-3.9,1
759,16.12,-19.46,-17.92,1
760,16.13,-12.4,-26.64,1
761,16.15,2.97,-15.48,1
762,16.16,6.36,7.2,0
763,16.17,-1.27,32.99,0
764,16.19,-1.98,8.84,0
765,16.2,6.34,-44.78,0
766,16.21,13.64,-50.2,0
767,16.23,13.32,-40.9,0
768,16.24,8.3,-69.41,0
769,16.25,2.79,-90.86,0
770,16.27,-1.3,-70.46,0
771,16.28,4.33,-57.51,0
772,16.29,19.72,-107.19,0
773,16.31,26.69,-197.48,0
774,16.32,20.87,-260.74,0
775,16.33,18.17,-261.61,0
776,16.35,15.1,-213.22,0
777,16.36,-0.83,-142.62,0
778,16.37,-13.12,-70.91,0
779,16.39,-9.75,-14.52,0
780,16.4,-6.72,18.41,0
781,16.41,-9.25,37.67,0
782,16.42,-8.33,54.84,0
783,16.44,-5.87,67.45,0
784,16.45,-5.19,78.5,0
785,16.46,-4.71,91.1,0
786,16.48,-8.45,87.9,0
787,16.49,-16.38,71.54,0
788,16.5,-16.6,79.21,0
789,16.52,0.41,110.73,0
790,16.53,23.3,119.18,0
791,16.54,22.79,95.23,0
792,16.56,-2.37,74.02,1
793,16.57,-13.94,71.21,1
794,16.58,-0.73,73.47,1
795,16.6,8.3,69.99,1
796,16.61,1.19,62.02,1
797,16.62,-6.7,53.82,1
798,16.64,-2.65,47.17,1
799,16.65,6.72,45.6,1
800,16.67,5.61,51.29,1
801,16.68,-2.49,55.18,1
802,16.69,-0.8,51.7,1
803,16.71,4.22,52.34,1
804,16.72,-0.9,59.8,1
805,16.73,-4.23,57.33,1
806,16.75,-0.98,43.1,1
807,16.76,-4.27,33.74,1
808,16.77,-7.42,34.62,1
809,16.79,0.29,35.05,1
810,16.8,11.36,26.78,1
811,16.81,15.69,19.03,1
812,16.83,9.21,20.77,1
813,16.84,2.29,21.98,1
814,16.85,6.6,15.6,1
815,16.87,11.86,11.44,1
816,16.88,5.38,15.6,1
817,16.89,-10.47,20.13,1
818,16.91,-19.13,18.07,1
819,16.92,-3.93,10.5,1
820,16.93,18.9,1.98,1
821,16.95,20.91,0.7,1
822,16.96,5.44,6.21,1
823,16.97,-9.15,5.22,1
824,16.99,-11.16,-1.38,1
825,17.0,0.14,2.44,1
826,17.01,8.83,10.69,1
827,17.03,6.06,2.61,1
828,17.04,3.02,-13.65,1
829,17.05,4.22,-15.25,1
830,17.06,0.44,-6.93,1
831,17.08,-7.16,-5.54,1
832,17.09,-8.52,-13.1,1
833,17.1,-5.41,-24.49,1
834,17.12,-0.27,-31.66,1
835,17.13,10.16,-27.67,1
836,17.14,11.22,-18.72,1
837,17.16,-7.59,-16.75,1
838,17.17,-21.56,-24.45,1
839,17.18,-14.22,-28.53,1
840,17.2,-1.42,-16.93,1
841,17.21,5.18,-8.31,1
842,17.22,7.63,-19.95,1
843,17.24,7.7,-31.29,1
844,17.25,7.58,-28.27,1
845,17.26,7.44,-23.74,1
846,17.28,1.17,-24.48,1
847,17.29,-8.44,-28.67,1
848,17.3,-10.08,-34.63,1
849,17.32,-1.16,-36.59,1
850,17.33,10.68,-31.14,1
851,17.35,8.73,-25.6,1
852,17.36,-10.64,-31.62,1
853,17.37,-18.31,-45.7,1
854,17.39,-0.99,-45.08,1
855,17.4,8.61,-24.7,1
856,17.41,-1.69,-11.52,1
857,17.43,-3.7,-15.98,1
858,17.44,2.76,-19.31,1
859,17.45,-1.29,-16.35,1
860,17.47,-3.69,-17.97,1
861,17.48,5.28,-23.71,1
862,17.49,7.58,-28.06,1
863,17.51,-1.82,-28.97,1
864,17.52,-5.34,-21.75,1
865,17.53,3.54,-8.93,1
866,17.55,11.83,-8.18,1
867,17.56,7.47,-25.61,1
868,17.57,-6.52,-35.52,1
869,17.59,-13.76,-22.86,1
870,17.6,-7.18,-9.56,1
871,17.61,-0.05,-10.21,1
872,17.63,0.71,-13.26,1
873,17.64,2.66,-8.71,1
874,17.65,5.33,-0.04,1
875,17.67,2.84,-0.34,1
876,17.68,0.43,-17.96,1
877,17.69,3.62,-34.42,1
878,17.7,4.55,-27.68,1
879,17.72,1.01,-14.33,1
880,17.73,1.82,-19.12,1
881,17.75,3.54,-27.04,1
882,17.76,-1.08,-16.96,1
883,17.77,-2.8,-4.74,1
884,17.78,4.66,-7.41,1
885,17.8,8.01,-12.13,1
886,17.81,-1.36,-7.24,1
887,17.82,-9.12,0.4,1
888,17.84,-1.0,3.27,1
889,17.85,8.81,0.23,1
890,17.86,0.49,-2.87,1
891,17.88,-12.71,3.38,1
892,17.89,-9.35,14.07,1
893,17.9,2.58,10.14,1
894,17.92,3.64,-3.99,1
895,17.93,-5.24,-4.25,1
896,17.94,-5.91,2.82,1
897,17.96,8.11,-4.52,1
898,17.97,16.66,-14.56,1
899,17.99,4.85,-2.71,1
900,18.0,-7.42,22.31,1
901,18.01,-3.14,30.64,1
902,18.03,-2.21,18.96,1
903,18.04,-13.77,9.88,1
904,18.05,-12.14,7.61,1
905,18.07,5.31,3.75,1
906,18.08,7.84,4.43,1
907,18.09,-5.92,9.62,1
908,18.11,-7.67,8.17,1
909,18.12,1.57,2.97,1
910,18.13,1.6,6.18,1
911,18.15,-4.95,15.71,1
912,18.16,-7.59,17.5,0
913,18.17,-5.2,3.93,0
914,18.19,0.8,-32.09,0
915,18.2,0.78,-90.41,0
916,18.21,-11.42,-131.51,0
917,18.23,-15.64,-122.78,0
918,18.24,2.17,-100.28,0
919,18.25,12.71,-102.35,0
920,18.27,1.41,-111.61,0
921,18.28,0.29,-110.51,0
922,18.29,14.62,-102.5,0
923,18.31,16.23,-88.22,0
924,18.32,3.14,-72.55,0
925,18.33,-1.81,-56.49,0
926,18.34,9.37,-31.08,0
927,18.36,15.5,0.81,0
928,18.37,10.41,27.35,0
929,18.38,10.91,49.69,0
930,18.4,6.89,75.16,0
931,18.41,-11.76,101.57,0
932,18.42,-17.25,121.7,0
933,18.44,-6.27,134.98,0
934,18.45,-16.36,147.93,0
935,18.46,-40.12,159.57,0
936,18.48,-26.38,163.72,0
937,18.49,19.19,166.33,0
938,18.5,36.81,174.56,0
939,18.52,10.44,178.37,0
940,18.53,-13.17,162.27,0
941,18.54,-2.93,136.97,0
942,18.56,12.93,131.08,1
943,18.57,4.56,135.78,1
944,18.58,-11.71,116.8,1
945,18.6,-12.87,85.51,1
946,18.61,-5.66,77.39,1
947,18.63,-5.63,83.3,1
948,18.64,-7.28,77.84,1
949,18.65,0.33,66.4,1
950,18.67,6.2,56.37,1
951,18.68,1.5,39.83,1
952,18.69,-1.49,24.67,1
953,18.71,-0.08,29.24,1
954,18.72,-1.27,39.8,1
955,18.73,-0.17,28.02,1
956,18.75,3.45,3.75,1
957,18.76,1.96,-7.0,1
958,18.77,1.45,-8.72,1
959,18.79,6.74,-17.51,1
960,18.8,8.19,-28.21,1
961,18.81,4.99,-27.77,1
962,18.83,1.88,-19.76,1
963,18.84,-1.98,-17.38,1
964,18.85,-1.25,-22.71,1
965,18.87,1.11,-28.2,1
966,18.88,-6.66,-30.9,1
967,18.89,-14.37,-33.47,1
968,18.91,-10.69,-37.77,1
969,18.92,-7.98,-44.08,1
970,18.93,-8.41,-53.49,1
971,18.95,-1.43,-59.09,1
972,18.96,5.9,-52.63,1
973,18.97,3.06,-44.05,1
974,18.98,-4.55,-42.23,1
975,19.0,-7.1,-39.43,1
976,19.01,-0.46,-37.0,1
977,19.02,12.47,-44.22,1
978,19.04,20.76,-54.36,1
979,19.05,19.33,-55.25,1
980,19.06,14.06,-48.64,1
981,19.08,5.8,-44.2,1
982,19.09,-4.4,-47.07,1
983,19.1,-8.4,-53.36,1
984,19.12,-3.46,-57.52,1
985,19.13,5.34,-61.72,1
986,19.14,11.4,-63.49,1
987,19.16,12.99,-53.79,1
988,19.17,11.49,-42.3,1
989,19.18,3.88,-46.05,1
990,19.2,-7.19,-52.52,1
991,19.21,-9.28,-45.54,1
992,19.22,-2.25,-38.68,1
993,19.24,0.18,-42.86,1
994,19.25,-2.11,-46.15,1
995,19.265,2.41,-38.7,1
996,19.28,10.2,-27.13,1
997,19.29,8.43,-23.18,1
998,19.31,1.0,-26.29,1
999,19.32,1.99,-28.66,1
1000,19.33,7.04,-28.71,1
1001,19.35,1.95,-27.04,1
1002,19.36,-8.61,-24.9,1
1003,19.37,-9.83,-23.09,1
1004,19.39,-3.19,-18.57,1
1005,19.4,-4.21,-11.51,1
1006,19.41,-11.22,-4.48,1
1007,19.43,-4.06,-2.07,1
1008,19.44,10.54,-11.02,1
1009,19.45,8.21,-23.69,1
1010,19.47,-4.04,-20.83,1
1011,19.48,-5.34,-5.23,1
1012,19.49,-1.56,2.29,1
1013,19.51,-2.45,-2.07,1
1014,19.52,0.62,-6.78,1
1015,19.53,5.79,-6.76,1
1016,19.55,-2.02,-4.36,1
1017,19.56,-16.63,-1.43,1
1018,19.57,-16.06,2.43,1
1019,19.59,1.1,4.84,1
1020,19.6,12.55,3.29,1
1021,19.61,6.54,4.04,1
1022,19.62,-2.56,9.02,1
1023,19.64,-4.96,7.28,1
1024,19.65,-5.56,-0.87,1
1025,19.67,0.08,-3.62,1
1026,19.68,10.68,-0.18,1
1027,19.69,8.18,3.44,1
1028,19.7,-5.25,4.47,1
1029,19.72,-9.33,3.77,1
1030,19.73,-2.36,5.65,1
1031,19.75,1.22,11.44,1
1032,19.76,-2.79,13.48,1
1033,19.77,-3.54,5.92,1
1034,19.78,4.29,0.17,1
1035,19.8,10.51,7.9,1
1036,19.81,8.08,15.58,1
1037,19.82,3.02,10.62,1
1038,19.84,-0.86,9.41,1
1039,19.85,-4.93,18.07,1
1040,19.86,-3.96,12.08,1
1041,19.88,1.24,-8.67,1
1042,19.89,-2.1,-12.53,1
1043,19.9,-11.08,4.63,1
1044,19.92,-6.61,19.61,1
1045,19.93,8.79,25.73,1
1046,19.95,10.99,30.36,1
1047,19.96,-2.21,31.66,1
1048,19.97,-6.44,26.36,1
1049,19.99,4.41,19.01,1
1050,20.0,10.73,15.14,1
1051,20.01,1.87,16.47,1
1052,20.03,-15.1,19.73,1
1053,20.04,-22.45,23.15,1
1054,20.05,-6.83,30.08,1
1055,20.07,15.08,31.83,1
1056,20.08,17.26,19.96,1
1057,20.09,5.03,11.52,1
1058,20.11,-1.21,17.87,1
1059,20.12,1.59,26.13,1
1060,20.13,0.14,29.01,1
1061,20.15,-8.2,30.96,1
1062,20.16,-8.3,32.49,2
1063,20.17,2.24,28.66,2
1064,20.19,7.65,19.72,2
1065,20.2,4.99,28.43,2
1066,20.21,3.01,91.14,2
1067,20.23,6.23,203.23,2
1068,20.24,12.91,303.06,2
1069,20.25,6.83,338.61,2
1070,20.26,-20.35,309.79,2
1071,20.28,-42.83,243.66,2
1072,20.29,-37.72,169.38,2
1073,20.3,-19.31,98.18,2
1074,20.32,-10.98,19.15,2
1075,20.33,-14.39,-61.81,2
1076,20.34,-14.86,-121.77,2
1077,20.36,-6.66,-165.43,2
1078,20.37,-1.11,-202.11,2
1079,20.38,-1.98,-211.95,2
1080,20.4,0.9,-192.33,2
1081,20.41,7.44,-176.04,2
1082,20.42,11.58,-174.47,2
1083,20.44,16.45,-165.24,2
1084,20.45,19.82,-142.51,2
1085,20.46,13.91,-123.87,2
1086,20.48,10.21,-112.82,2
1087,20.49,24.05,-100.72,2
1088,20.5,33.79,-94.87,2
1089,20.52,17.4,-96.95,2
1090,20.53,3.38,-84.35,2
1091,20.54,15.32,-57.71,2
1092,20.56,26.15,-48.95,1
1093,20.57,15.16,-63.18,1
1094,20.59,0.82,-71.61,1
1095,20.6,-2.91,-58.32,1
1096,20.61,-5.16,-36.17,1
1097,20.63,-10.17,-24.36,1
1098,20.64,-10.88,-27.87,1
1099,20.65,-10.62,-40.23,1
1100,20.67,-15.09,-49.51,1
1101,20.68,-10.59,-41.13,1
1102,20.69,6.54,-17.79,1
1103,20.71,13.76,-4.07,1
1104,20.72,5.64,-5.95,1
1105,20.73,-0.71,2.49,1
1106,20.75,-0.65,24.76,1
1107,20.76,1.61,28.93,1
1108,20.77,2.07,10.32,1
1109,20.79,-2.24,0.8,1
1110,20.8,-1.75,11.45,1
1111,20.81,7.07,24.47,1
1112,20.83,5.95,31.98,1
1113,20.84,-9.4,34.42,1
1114,20.85,-16.89,26.77,1
1115,20.87,-6.27,16.89,1
1116,20.88,8.97,20.69,1
1117,20.89,14.6,31.91,1
1118,20.9,8.66,30.34,1
1119,20.92,-3.99,16.53,1
1120,20.93,-16.8,13.7,1
1121,20.94,-21.32,30.12,1
1122,20.96,-13.98,46.36,1
1123,20.97,-2.89,47.52,1
1124,20.98,7.48,40.26,1
1125,21.0,18.45,34.2,1
1126,21.01,21.13,27.27,1
1127,21.02,11.33,19.1,1
1128,21.04,1.26,25.71,1
1129,21.05,-6.51,50.05,1
1130,21.06,-17.24,59.51,1
1131,21.08,-23.09,39.74,1
1132,21.09,-15.43,22.38,1
1133,21.1,-4.08,27.55,1
1134,21.12,-2.28,41.22,1
1135,21.13,-4.79,48.25,1
1136,21.14,-0.96,42.26,1
1137,21.16,3.94,27.01,1
1138,21.17,5.25,17.15,1
1139,21.18,9.91,20.12,1
1140,21.2,14.97,25.9,1
1141,21.21,9.01,24.39,1
1142,21.23,-2.41,20.33,1
1143,21.24,-6.5,23.23,1
1144,21.25,-6.02,30.16,1
1145,21.27,-4.73,30.82,1
1146,21.28,0.9,21.26,1
1147,21.29,0.88,11.45,1
1148,21.31,-13.5,16.38,1
1149,21.32,-22.8,29.96,1
1150,21.33,-11.37,31.12,1
1151,21.35,1.45,21.07,1
1152,21.36,-4.25,19.73,1
1153,21.37,-14.01,25.86,1
1154,21.39,-7.05,21.8,1
1155,21.4,9.15,7.57,1
1156,21.41,14.93,-2.62,1
1157,21.43,5.57,-2.64,1
1158,21.44,-8.7,3.03,1
1159,21.45,-12.46,6.27,1
1160,21.47,-1.45,5.47,1
1161,21.48,12.78,8.42,1
1162,21.49,17.93,13.65,1
1163,21.51,12.21,13.2,1
1164,21.52,2.79,14.11,1
1165,21.53,-4.47,15.72,1
1166,21.54,-8.12,-1.47,1
1167,21.56,-8.9,-25.63,1
1168,21.57,-10.63,-23.75,1
1169,21.58,-7.36,-5.89,1
1170,21.6,7.01,-0.48,1
1171,21.61,13.37,-0.54,1
1172,21.62,2.64,7.09,1
1173,21.64,-3.96,12.73,1
1174,21.65,-0.51,5.85,1
1175,21.67,1.97,-12.82,1
1176,21.68,3.83,-26.49,1
1177,21.69,6.41,-19.85,1
1178,21.7,3.99,-8.32,1
1179,21.72,-1.57,-5.76,1
1180,21.73,0.85,-3.13,1
1181,21.75,7.41,-3.87,1
1182,21.76,-1.81,-14.7,1
1183,21.77,-19.14,-17.67,1
1184,21.78,-15.54,-5.42,1
1185,21.8,7.11,-1.23,1
1186,21.81,24.02,-12.2,1
1187,21.82,25.24,-17.99,1
1188,21.84,15.23,-14.52,1
1189,21.85,-1.07,-15.75,1
1190,21.865,-18.46,-23.26,1
1191,21.88,-24.16,-30.06,1
1192,21.89,-12.89,-31.1,1
1193,21.91,1.05,-24.46,1
1194,21.92,6.66,-16.11,1
1195,21.93,6.03,-12.95,1
1196,21.95,1.59,-15.62,1
1197,21.96,-4.0,-20.21,1
1198,21.97,-6.0,-18.49,1
1199,21.99,-3.12,-9.71,1
1200,22.0,1.46,-3.05,1
1201,22.01,2.92,-4.9,1
1202,22.03,-3.63,-11.16,1
1203,22.04,-12.6,-12.33,1
1204,22.05,-8.3,-10.57,1
1205,22.07,6.0,-14.28,1
1206,22.08,11.27,-17.7,1
1207,22.09,9.85,-9.98,1
1208,22.11,10.98,4.99,1
1209,22.12,1.76,11.27,1
1210,22.13,-14.88,4.19,1
1211,22.15,-13.2,-4.19,1
1212,22.16,-0.33,-2.21,2
1213,22.17,-3.01,23.19,2
1214,22.18,-5.97,75.54,2
1215,22.2,17.94,112.98,2
1216,22.21,41.41,106.22,2
1217,22.22,26.42,66.48,2
1218,22.24,9.42,-5.47,2
1219,22.25,29.29,2.99,2
1220,22.26,23.69,170.37,2
1221,22.28,-29.97,254.26,2
1222,22.29,-35.24,114.69,2
1223,22.3,8.02,-24.98,2
1224,22.32,7.1,-31.96,2
1225,22.33,-15.81,-1.63,2
1226,22.34,-5.11,-7.29,2
1227,22.36,5.71,-29.33,2
1228,22.37,-4.53,-33.23,2
1229,22.38,-6.64,-27.21,2
1230,22.4,2.51,-40.2,2
1231,22.41,2.13,-65.16,2
1232,22.42,-11.3,-83.42,2
1233,22.44,-24.27,-105.83,2
1234,22.45,-20.71,-127.98,2
1235,22.46,-5.53,-122.18,2
1236,22.48,0.16,-98.12,2
1237,22.49,-1.73,-77.9,2
1238,22.5,-0.28,-68.39,2
1239,22.52,1.44,-100.24,2
1240,22.53,4.82,-162.37,2
1241,22.55,8.84,-189.22,1
1242,22.56,5.79,-164.2,1
1243,22.57,0.38,-104.25,1
1244,22.59,-0.93,-44.87,1
1245,22.6,1.96,-38.45,1
1246,22.61,15.23,-69.94,1
1247,22.63,30.75,-88.56,1
1248,22.64,20.37,-71.64,1
1249,22.65,-7.92,-27.46,1
1250,22.67,-15.98,-3.86,1
1251,22.68,-10.27,-10.89,1
1252,22.69,-18.9,-14.94,1
1253,22.71,-18.01,-5.86,1
1254,22.72,11.75,7.72,1
1255,22.73,22.08,-1.71,1
1256,22.75,-2.07,-26.61,1
1257,22.76,-8.16,-18.72,1
1258,22.77,5.51,3.42,1
1259,22.79,0.38,-0.68,1
1260,22.8,-11.13,-1.6,1
1261,22.81,-5.86,19.11,1
1262,22.82,4.26,21.66,1
1263,22.84,12.44,8.02,1
1264,22.85,21.93,23.44,1
1265,22.86,15.57,50.26,1
1266,22.88,-7.69,44.57,1
1267,22.89,-8.78,18.51,1
1268,22.9,11.61,15.56,1
1269,22.92,6.71,51.71,1
1270,22.93,-16.56,68.97,1
1271,22.94,-20.97,25.3,1
1272,22.96,-15.01,-6.61,1
1273,22.97,-12.65,24.91,1
1274,22.98,-3.59,54.01,1
1275,23.0,7.83,36.41,1
1276,23.01,12.38,41.22,1
1277,23.02,17.12,97.69,1
1278,23.04,17.3,101.41,1
1279,23.05,2.07,31.59,1
1280,23.06,-7.84,4.76,1
1281,23.08,5.68,24.22,1
1282,23.09,10.59,13.41,1
1283,23.1,-10.14,0.75,1
1284,23.12,-19.74,28.76,1
1285,23.13,-10.52,63.36,1
1286,23.14,-6.49,52.83,1
1287,23.16,-3.49,9.17,1
1288,23.17,5.68,7.69,1
1289,23.19,7.31,49.02,1
1290,23.2,-6.63,67.31,1
1291,23.21,-20.91,49.16,1
1292,23.23,-14.65,10.87,1
1293,23.24,0.73,-25.96,1
1294,23.25,-2.0,-28.95,1
1295,23.27,-11.79,3.63,1
1296,23.28,-4.79,38.61,1
1297,23.29,6.59,44.9,1
1298,23.31,5.71,22.44,1
1299,23.32,-2.1,3.38,1
1300,23.33,-7.62,22.96,1
1301,23.35,-2.91,52.5,1
1302,23.36,8.7,31.0,1
1303,23.37,12.31,-11.76,1
1304,23.39,4.48,-5.32,1
1305,23.4,-5.34,45.78,1
1306,23.41,-10.32,76.89,1
1307,23.43,-8.91,48.54,1
1308,23.44,-1.37,0.53,1
1309,23.45,9.48,-22.44,1
1310,23.46,16.07,-25.14,1
1311,23.48,12.49,-12.44,1
1312,23.49,0.46,10.25,1
1313,23.5,-9.01,18.82,1
1314,23.52,-1.42,1.15,1
1315,23.53,13.72,-9.89,1
1316,23.54,14.19,15.37,1
1317,23.56,6.55,39.52,1
1318,23.57,4.38,29.48,1
1319,23.58,3.03,12.35,1
1320,23.6,-1.11,-0.49,1
1321,23.61,-6.24,-10.22,1
1322,23.62,-11.38,15.43,1
1323,23.64,-16.07,54.89,1
1324,23.65,-13.4,28.36,1
1325,23.67,4.15,-37.66,1
1326,23.68,18.24,-46.3,1
1327,23.69,15.06,-6.98,1
1328,23.7,10.02,5.74,1
1329,23.72,8.42,-20.46,1
1330,23.73,7.27,-30.8,1
1331,23.75,7.79,5.21,1
1332,23.76,2.69,27.53,1
1333,23.77,-5.69,-6.84,1
1334,23.78,-4.44,-29.56,1
1335,23.8,-0.27,0.1,1
1336,23.81,-1.21,25.85,1
1337,23.83,2.14,17.8,1
1338,23.84,8.07,-4.2,1
1339,23.85,7.87,-29.16,1
1340,23.87,3.5,-37.85,1
1341,23.88,-3.49,-5.07,1
1342,23.89,-3.45,40.61,1
1343,23.91,5.25,30.07,1
1344,23.92,-0.66,-41.6,1
1345,23.93,-17.33,-82.88,1
1346,23.95,-15.56,-45.56,1
1347,23.96,-0.84,9.66,1
1348,23.97,0.99,23.86,1
1349,23.99,-13.2,-9.79,1
1350,24.0,-25.47,-44.33,1
1351,24.01,-18.7,-25.17,1
1352,24.03,1.34,22.01,1
1353,24.04,9.61,57.21,1
1354,24.05,-4.64,67.41,1
1355,24.07,-26.26,31.37,1
1356,24.08,-30.99,-10.25,1
1357,24.09,-9.23,2.33,1
1358,24.1,15.28,27.59,1
1359,24.12,13.26,11.15,1
1360,24.13,-2.78,-14.24,1
1361,24.14,-0.58,-11.55,1
1362,24.16,14.15,-0.52,0
1363,24.17,10.04,-3.6,0
1364,24.18,-4.6,-16.11,0
1365,24.2,1.78,-16.15,0
1366,24.21,15.97,18.43,0
1367,24.22,11.88,74.17,0
1368,24.24,1.83,93.01,0
1369,24.25,1.87,41.01,0
1370,24.26,2.47,-41.71,0
1371,24.28,-12.02,-109.57,0
1372,24.29,-29.11,-167.13,0
1373,24.3,-20.06,-230.35,0
1374,24.32,3.12,-282.63,0
1375,24.33,6.34,-286.82,0
1376,24.34,0.7,-240.13,0
1377,24.36,7.73,-178.11,0
1378,24.37,9.9,-119.46,0
1379,24.38,-1.38,-57.4,0
1380,24.4,-4.44,3.67,0
1381,24.41,6.91,48.45,0
1382,24.42,16.69,69.72,0
1383,24.44,12.38,72.83,0
1384,24.45,-2.37,76.41,0
1385,24.46,-10.61,90.68,0
1386,24.48,-6.45,104.96,0
1387,24.49,-1.28,109.04,0
1388,24.51,1.82,102.27,0
1389,24.52,10.99,90.92,0
1390,24.53,19.47,82.88,0
1391,24.55,13.86,80.91,1
1392,24.56,6.29,87.23,1
1393,24.57,11.64,92.77,1
1394,24.59,14.11,82.11,1
1395,24.6,2.85,67.34,1
1396,24.61,-2.06,65.38,1
1397,24.63,8.71,62.48,1
1398,24.64,13.36,48.6,1
1399,24.65,-0.94,38.5,1
1400,24.67,-13.74,39.28,1
1401,24.68,-7.87,40.79,1
1402,24.69,2.02,37.3,1
1403,24.71,-0.99,31.58,1
1404,24.72,-5.76,26.65,1
1405,24.73,6.26,25.33,1
1406,24.75,27.34,23.87,1
1407,24.76,31.1,18.07,1
1408,24.77,13.78,17.45,1
1409,24.78,1.1,22.06,1
1410,24.8,0.99,18.45,1
1411,24.81,-8.62,11.95,1
1412,24.82,-23.23,10.84,1
1413,24.84,-18.36,7.9,1
1414,24.85,-6.19,6.43,1
1415,24.86,-4.76,9.36,1
1416,24.88,-7.68,2.36,1
1417,24.89,-10.87,-12.65,1
1418,24.9,-11.92,-14.57,1
1419,24.92,-7.53,-5.4,1
1420,24.93,-2.71,-6.98,1
1421,24.94,-0.96,-21.06,1
1422,24.96,-2.14,-29.63,1
1423,24.97,-5.78,-27.32,1
1424,24.98,-9.74,-20.66,1
1425,25.0,-15.31,-14.05,1
1426,25.01,-17.87,-14.44,1
1427,25.02,-5.13,-17.85,1
1428,25.04,11.91,-14.61,1
1429,25.05,10.41,-13.31,1
1430,25.06,1.28,-18.38,1
1431,25.08,2.12,-18.29,1
1432,25.09,-0.01,-14.29,1
1433,25.1,-7.89,-18.14,1
1434,25.12,-4.29,-25.87,1
1435,25.13,1.58,-30.57,1
1436,25.15,-3.17,-35.5,1
1437,25.16,-2.65,-35.68,1
1438,25.17,6.62,-27.15,1
1439,25.19,9.15,-22.55,1
1440,25.2,5.15,-28.08,1
1441,25.21,1.54,-29.68,1
1442,25.23,-0.96,-18.75,1
1443,25.24,-1.63,-10.92,1
1444,25.25,1.35,-17.83,1
1445,25.27,5.83,-25.6,1
1446,25.28,4.1,-25.38,1
1447,25.29,-2.83,-25.83,1
1448,25.31,-4.18,-24.77,1
1449,25.32,-0.78,-16.98,1
1450,25.33,-1.74,-16.27,1
1451,25.35,-5.11,-24.17,1
1452,25.36,-4.67,-23.82,1
1453,25.37,-2.15,-18.31,1
1454,25.38,0.18,-16.34,1
1455,25.4,-0.19,-14.96,1
1456,25.41,-4.65,-18.12,1
1457,25.42,-4.89,-21.98,1
1458,25.44,-0.37,-10.91,1
1459,25.45,-2.8,4.67,1
1460,25.46,-5.5,-0.54,1
1461,25.48,8.12,-19.34,1
1462,25.49,21.33,-28.18,1
1463,25.5,8.04,-20.99,1
1464,25.52,-11.48,-2.35,1
1465,25.53,-7.0,13.26,1
1466,25.54,1.41,8.85,1
1467,25.56,-11.98,-9.0,1
1468,25.57,-18.74,-18.15,1
1469,25.58,5.68,-13.37,1
1470,25.6,22.8,-9.68,1
1471,25.61,5.08,-13.98,1
1472,25.62,-13.04,-13.46,1
1473,25.64,-7.68,-4.44,1
1474,25.65,1.34,-0.06,1
1475,25.67,1.08,-1.49,1
1476,25.68,3.21,0.86,1
1477,25.69,12.73,4.66,1
1478,25.7,19.13,0.27,1
1479,25.72,15.98,-11.08,1
1480,25.73,5.12,-16.86,1
1481,25.75,-6.04,-9.75,1
1482,25.76,-5.91,-0.84,1
1483,25.77,5.38,-0.12,1
1484,25.79,15.98,-1.0,1
1485,25.8,15.22,0.51,1
1486,25.81,3.7,1.36,1
1487,25.83,-5.74,1.91,1
1488,25.84,-7.67,1.84,1
1489,25.85,-5.93,4.51,1
1490,25.87,2.89,15.07,1
1491,25.88,10.74,23.7,1
1492,25.89,3.24,21.22,1
1493,25.91,-6.12,18.75,1
1494,25.92,-4.19,21.86,1
1495,25.93,-5.59,18.66,1
1496,25.95,-14.03,7.82,1
1497,25.96,-16.07,3.6,1
1498,25.97,-12.14,6.69,1
1499,25.99,-5.12,4.11,1
1500,26.0,6.76,1.36,1
1501,26.01,11.73,9.72,1
1502,26.02,3.93,17.11,1
1503,26.04,-0.92,15.72,1
1504,26.05,-0.4,14.53,1
1505,26.06,-6.55,10.72,1
1506,26.08,-12.22,-0.98,1
1507,26.09,-6.82,-8.52,1
1508,26.1,3.68,-5.43,1
1509,26.12,10.73,-1.27,1
1510,26.13,12.22,1.84,1
1511,26.14,8.97,6.21,1
1512,26.16,1.45,9.27,0
1513,26.17,-9.4,11.71,0
1514,26.18,-15.34,14.28,0
1515,26.2,-10.38,16.78,0
1516,26.21,-3.16,17.73,0
1517,26.22,2.26,13.15,0
1518,26.24,9.07,-1.73,0
1519,26.25,12.72,-34.09,0
1520,26.26,16.49,-79.69,0
1521,26.28,25.52,-115.27,0
1522,26.29,29.41,-126.72,0
1523,26.3,27.79,-123.76,0
1524,26.32,25.7,-120.89,0
1525,26.33,14.91,-122.59,0
1526,26.34,-1.51,-121.01,0
1527,26.36,-8.02,-106.5,0
1528,26.37,-1.28,-80.8,0
1529,26.38,11.75,-50.43,0
1530,26.4,15.86,-24.85,0
1531,26.41,-3.43,-8.22,0
1532,26.43,-29.94,12.19,0
1533,26.44,-34.83,44.05,0
1534,26.45,-22.51,74.04,0
1535,26.47,-17.22,90.59,0
1536,26.48,-23.34,103.76,0
1537,26.49,-28.01,123.02,0
1538,26.51,-26.59,135.36,0
1539,26.52,-23.53,135.38,0
1540,26.53,-20.13,141.65,0
1541,26.55,-18.1,159.5,1
1542,26.56,-23.83,171.61,1
1543,26.57,-27.71,172.57,1
1544,26.59,-8.67,165.91,1
1545,26.6,14.1,148.5,1
1546,26.61,8.22,128.68,1
1547,26.63,-0.3,119.49,1
1548,26.64,15.21,110.82,1
1549,26.65,21.79,94.65,1
1550,26.67,-0.85,82.11,1
1551,26.68,-18.57,70.56,1
1552,26.69,-6.02,56.59,1
1553,26.7,9.34,54.99,1
1554,26.72,0.18,57.17,1
1555,26.73,-8.49,39.61,1
1556,26.75,8.73,16.04,1
1557,26.76,27.15,14.04,1
1558,26.77,20.36,24.33,1
1559,26.78,4.43,22.01,1
1560,26.8,1.27,9.03,1
1561,26.81,3.11,0.11,1
1562,26.82,0.6,-1.66,1
1563,26.84,3.05,-1.04,1
1564,26.85,11.41,-6.1,1
1565,26.86,14.22,-20.53,1
1566,26.88,6.85,-34.6,1
1567,26.89,-5.99,-35.46,1
1568,26.9,-9.77,-26.7,1
1569,26.92,0.11,-26.33,1
1570,26.93,4.57,-38.19,1
1571,26.94,-0.62,-46.56,1
1572,26.96,5.79,-50.2,1
1573,26.97,22.65,-58.77,1
1574,26.98,20.33,-64.89,1
1575,27.0,-4.84,-62.03,1
1576,27.01,-19.69,-57.31,1
1577,27.02,-8.73,-55.52,1
1578,27.04,6.52,-59.65,1
1579,27.05,9.24,-67.24,1
1580,27.065,5.76,-65.59,1
1581,27.08,2.78,-52.44,1
1582,27.09,-0.92,-38.77,1
1583,27.11,-2.79,-33.18,1
1584,27.12,-2.97,-39.43,1
1585,27.13,-5.3,-52.45,1
1586,27.15,-4.51,-58.18,1
1587,27.16,5.35,-51.31,1
1588,27.17,17.09,-42.71,1
1589,27.19,17.75,-41.52,1
1590,27.2,5.77,-45.27,1
1591,27.21,-6.3,-48.78,1
1592,27.23,-5.79,-51.13,1
1593,27.24,7.8,-55.11,1
1594,27.25,20.53,-59.18,1
1595,27.27,17.89,-56.49,1
1596,27.28,5.83,-51.35,1
1597,27.29,1.76,-50.45,1
1598,27.3,4.27,-46.25,1
1599,27.32,1.49,-36.11,1
1600,27.33,-2.03,-29.71,1
1601,27.34,-1.65,-29.29,1
1602,27.36,-7.19,-28.4,1
1603,27.37,-16.14,-26.64,1
1604,27.38,-9.35,-28.0,1
1605,27.4,10.94,-28.11,1
1606,27.41,16.96,-21.92,1
1607,27.42,4.58,-16.79,1
1608,27.44,-6.9,-19.4,1
1609,27.45,-14.27,-21.7,1
1610,27.46,-16.97,-15.73,1
1611,27.48,-7.5,-11.97,1
1612,27.49,2.87,-17.61,1
1613,27.5,-0.07,-18.04,1
1614,27.52,-10.99,-8.7,1
1615,27.53,-18.18,-5.39,1
1616,27.54,-11.55,-10.17,1
1617,27.56,7.2,-11.13,1
1618,27.57,19.34,-6.28,1
1619,27.58,13.82,1.19,1
1620,27.6,1.26,5.81,1
1621,27.61,-5.01,-0.25,1
1622,27.62,-5.58,-7.77,1
1623,27.64,-6.25,-0.92,1
1624,27.65,-0.77,9.93,1
1625,27.67,12.9,7.33,1
1626,27.68,17.78,0.99,1
1627,27.69,3.26,3.06,1
1628,27.7,-16.92,4.17,1
1629,27.72,-19.82,1.33,1
1630,27.73,-5.41,3.31,1
1631,27.75,1.66,6.45,1
1632,27.76,-4.83,5.67,1
1633,27.77,-10.99,8.93,1
1634,27.79,-13.57,18.5,1
1635,27.8,-11.92,21.38,1
1636,27.81,-2.86,12.45,1
1637,27.83,7.18,9.76,1
1638,27.84,9.74,21.82,1
1639,27.85,4.39,28.57,1
1640,27.87,-3.43,24.35,1
1641,27.88,-8.53,22.99,1
1642,27.89,-11.28,17.82,1
1643,27.91,-11.35,4.9,1
1644,27.92,-4.22,6.87,1
1645,27.93,3.11,26.17,1
1646,27.94,-2.39,35.96,1
1647,27.96,-8.56,29.52,1
1648,27.97,3.16,22.99,1
1649,27.98,18.43,21.73,1
1650,28.0,17.29,20.08,1
1651,28.01,5.49,16.9,1
1652,28.02,-4.13,15.27,1
1653,28.04,-8.71,16.78,1
1654,28.05,-8.32,17.9,1
1655,28.06,-3.27,16.99,1
1656,28.08,1.01,20.05,1
1657,28.09,-1.41,24.25,1
1658,28.1,-7.44,17.04,1
1659,28.12,-6.9,6.05,1
1660,28.13,2.64,12.14,1
1661,28.14,7.7,27.17,1
1662,28.16,-2.39,26.2,2
1663,28.17,-11.31,16.8,2
1664,28.18,-1.88,17.04,2
1665,28.2,6.26,17.55,2
1666,28.21,-5.08,19.9,2
1667,28.22,-14.37,57.76,2
1668,28.24,-6.82,144.98,2
1669,28.25,5.51,251.28,2
1670,28.26,18.58,323.94,2
1671,28.28,27.78,328.21,2
1672,28.29,21.05,286.03,2
1673,28.3,6.59,237.64,2
1674,28.32,-2.95,179.01,2
1675,28.33,-12.56,100.58,2
1676,28.34,-24.1,23.91,2
1677,28.36,-32.65,-40.7,2
1678,28.37,-36.23,-102.63,2
1679,28.39,-32.32,-162.6,2
1680,28.4,-22.63,-208.96,2
1681,28.41,-17.14,-232.52,2
1682,28.43,-17.26,-237.62,2
1683,28.44,-9.43,-225.14,2
1684,28.45,8.67,-199.09,2
1685,28.47,22.42,-181.37,2
1686,28.48,26.62,-169.19,2
1687,28.49,22.14,-142.8,2
1688,28.51,11.88,-120.66,2
1689,28.52,8.92,-119.4,2
1690,28.53,11.94,-113.31,2
1691,28.55,9.44,-91.23,1
1692,28.56,11.6,-74.93,1
1693,28.57,20.41,-74.4,1
1694,28.58,16.05,-76.85,1
1695,28.6,2.51,-66.07,1
1696,28.61,2.13,-44.52,1
1697,28.62,20.33,-41.31,1
1698,28.64,39.33,-64.73,1
1699,28.65,38.15,-75.15,1
1700,28.67,23.82,-48.69,1
1701,28.68,16.57,-16.7,1
1702,28.69,11.49,-10.97,1
1703,28.7,-1.27,-17.56,1
1704,28.72,-7.14,-9.48,1
1705,28.73,0.49,5.93,1
1706,28.75,2.24,9.99,1
1707,28.76,-5.73,12.56,1
1708,28.77,-6.76,23.49,1
1709,28.78,-3.68,28.24,1
1710,28.8,-10.03,21.83,1
1711,28.81,-18.54,15.38,1
1712,28.82,-15.7,11.05,1
1713,28.84,-4.8,10.7,1
1714,28.85,3.84,25.59,1
1715,28.86,9.06,46.02,1
1716,28.88,13.28,43.05,1
1717,28.89,12.08,25.72,1
1718,28.9,5.2,29.19,1
1719,28.92,-0.67,46.19,1
1720,28.93,-3.29,49.5,1
1721,28.94,-3.92,42.3,1
1722,28.96,-4.46,39.56,1
1723,28.97,-6.22,46.34,1
1724,28.98,-3.61,54.14,1
1725,29.0,5.61,48.74,1
1726,29.01,11.36,35.69,1
1727,29.03,10.09,27.74,1
1728,29.04,7.04,29.25,1
1729,29.05,-2.81,44.68,1
1730,29.07,-20.41,59.3,1
1731,29.08,-26.01,53.09,1
1732,29.09,-9.16,39.5,1
1733,29.11,9.37,34.48,1
1734,29.12,7.35,29.12,1
1735,29.13,-8.31,24.22,1
1736,29.15,-16.98,32.96,1
1737,29.16,-15.35,47.15,1
1738,29.17,-8.74,44.07,1
1739,29.19,3.87,26.48,1
1740,29.2,13.02,20.2,1
1741,29.21,5.9,29.26,1
1742,29.22,-8.17,29.96,1
1743,29.24,-13.8,18.03,1
1744,29.25,-15.51,16.52,1
1745,29.26,-16.67,29.66,1
1746,29.28,-5.7,32.68,1
1747,29.29,11.04,16.12,1
1748,29.3,13.61,3.1,1
1749,29.32,2.65,11.5,1
1750,29.33,-10.86,29.88,1
1751,29.34,-20.43,41.33,1
1752,29.36,-17.52,38.91,1
1753,29.37,-2.54,25.6,1
1754,29.38,10.23,14.84,1
1755,29.4,15.66,11.35,1
1756,29.41,13.24,7.76,1
1757,29.42,-0.51,5.33,1
1758,29.44,-10.96,8.9,1
1759,29.45,-5.92,12.6,1
1760,29.46,0.99,9.1,1
1761,29.48,-1.2,4.07,1
1762,29.49,-7.73,7.24,1
1763,29.5,-9.54,11.62,1
1764,29.52,-3.77,2.16,1
1765,29.53,-0.71,-14.33,1
1766,29.54,-5.84,-15.54,1
1767,29.56,-6.55,2.19,1
1768,29.57,2.65,14.93,1
1769,29.58,10.78,4.57,1
1770,29.6,11.52,-14.04,1
1771,29.61,7.22,-18.09,1
1772,29.62,4.03,-10.04,1
1773,29.64,6.81,-3.41,1
1774,29.65,4.56,-1.98,1
1775,29.67,-9.82,-6.22,1
1776,29.68,-18.68,-11.43,1
1777,29.69,-12.52,-10.66,1
1778,29.71,-2.27,-10.39,1
1779,29.72,6.04,-17.43,1
1780,29.73,11.21,-21.03,1
1781,29.75,6.98,-13.42,1
1782,29.76,-8.0,-7.14,1
1783,29.77,-18.14,-10.67,1
1784,29.79,-9.15,-11.08,1
1785,29.8,2.46,-6.7,1
1786,29.81,-1.11,-13.44,1
1787,29.83,-4.41,-24.42,1
1788,29.84,2.86,-21.59,1
1789,29.85,5.66,-15.37,1
1790,29.86,1.49,-17.81,1
1791,29.88,2.16,-16.11,1
1792,29.89,7.56,-8.66,1
1793,29.9,10.4,-15.11,1
1794,29.92,7.01,-31.15,1
1795,29.93,-2.09,-31.82,1
1796,29.94,-9.23,-20.14,1
1797,29.96,-7.07,-13.47,1
1798,29.97,1.47,-11.17,1
1799,29.98,7.81,-14.36,1
1800,30.0,8.95,-24.67,1
1801,30.01,8.34,-27.82,1
1802,30.02,4.56,-18.06,1
1803,30.04,-5.16,-7.64,1
1804,30.05,-9.15,-5.53,1
1805,30.06,0.8,-10.66,1
1806,30.08,7.45,-21.01,1
1807,30.09,0.66,-32.14,1
1808,30.1,0.04,-35.68,1
1809,30.12,12.45,-29.37,1
1810,30.13,15.7,-16.16,1
1811,30.14,1.08,-2.71,1
1812,30.16,-11.03,-7.6,2
1813,30.17,-5.45,-37.02,2
1814,30.18,4.51,-44.41,2
1815,30.2,4.03,29.29,2
1816,30.21,8.18,133.36,2
1817,30.22,34.13,146.89,2
1818,30.24,57.01,84.74,2
1819,30.25,41.92,49.73,2
1820,30.26,-5.71,61.33,2
1821,30.28,-50.09,77.34,2
1822,30.29,-58.52,70.03,2
1823,30.3,-32.56,67.74,2
1824,30.32,-4.71,79.89,2
1825,30.33,0.13,78.1,2
1826,30.35,-13.73,70.13,2
1827,30.36,-20.4,38.29,2
1828,30.37,-11.73,-32.8,2
1829,30.39,-4.81,-78.75,2
1830,30.4,-2.22,-62.81,2
1831,30.41,2.23,-31.56,2
1832,30.43,2.89,-48.16,2
1833,30.44,-4.73,-98.87,2
1834,30.45,-13.48,-95.92,2
1835,30.47,-9.0,-61.03,2
1836,30.48,9.52,-98.37,2
1837,30.49,21.57,-163.46,2
1838,30.5,12.78,-152.83,2
1839,30.52,-0.64,-89.23,2
1840,30.53,6.17,-46.77,2
1841,30.54,23.53,-40.74,2
1842,30.56,22.14,-45.68,1
1843,30.57,8.85,-46.41,1
1844,30.58,16.13,-45.73,1
1845,30.6,33.94,-54.05,1
1846,30.61,19.97,-65.93,1
1847,30.62,-18.18,-58.04,1
1848,30.64,-30.66,-35.71,1
1849,30.65,-11.76,-40.71,1
1850,30.67,5.76,-71.53,1
1851,30.68,8.58,-57.46,1
1852,30.69,7.37,2.28,1
1853,30.7,14.92,15.0,1
1854,30.72,17.32,-24.33,1
1855,30.73,-8.36,-37.84,1
1856,30.75,-34.21,-6.25,1
1857,30.76,-16.2,35.32,1
1858,30.77,21.47,46.65,1
1859,30.78,26.22,18.27,1
1860,30.8,5.1,-5.5,1
1861,30.81,-1.75,1.54,1
1862,30.82,4.73,9.92,1
1863,30.84,0.63,8.47,1
1864,30.85,-5.51,12.58,1
1865,30.86,-0.63,20.85,1
1866,30.88,-1.15,26.11,1
1867,30.89,-6.4,18.82,1
1868,30.9,-1.42,-1.93,1
1869,30.92,-2.68,-13.98,1
1870,30.93,-13.81,-10.95,1
1871,30.94,-9.72,10.0,1
1872,30.96,-1.68,53.36,1
1873,30.97,-15.39,62.98,1
1874,30.99,-22.77,9.39,1
1875,31.0,3.3,-23.61,1
1876,31.01,19.94,-8.68,1
1877,31.03,-0.19,-21.38,1
1878,31.04,-8.32,-36.84,1
1879,31.05,19.0,11.14,1
1880,31.07,30.95,52.1,1
1881,31.08,2.7,29.9,1
1882,31.09,-20.5,9.86,1
1883,31.11,-11.21,30.24,1
1884,31.12,-0.62,53.77,1
1885,31.13,-10.19,58.25,1
1886,31.14,-21.8,52.35,1
1887,31.16,-19.05,27.83,1
1888,31.17,-12.13,-12.21,1
1889,31.18,-18.08,-10.9,1
1890,31.2,-29.92,26.07,1
1891,31.21,-24.53,11.09,1
1892,31.22,-5.92,-8.87,1
1893,31.24,-1.05,51.12,1
1894,31.25,-11.65,86.8,1
1895,31.26,-12.96,28.73,1
1896,31.28,3.04,-26.07,1
1897,31.29,16.05,-8.74,1
1898,31.3,8.69,53.3,1
1899,31.32,-5.9,78.14,1
1900,31.33,-5.59,32.44,1
1901,31.34,-3.47,3.83,1
1902,31.36,-17.06,42.5,1
1903,31.37,-17.15,61.81,1
1904,31.38,13.3,20.14,1
1905,31.4,31.54,6.81,1
1906,31.41,19.07,46.91,1
1907,31.42,15.52,53.82,1
1908,31.44,32.14,11.64,1
1909,31.45,30.13,-11.95,1
1910,31.46,0.13,17.17,1
1911,31.48,-16.7,56.87,1
1912,31.49,-8.99,39.84,1
1913,31.5,-5.55,-0.92,1
1914,31.52,-8.97,23.45,1
1915,31.53,-1.98,65.15,1
1916,31.54,11.11,34.18,1
1917,31.56,15.53,-7.96,1
1918,31.57,11.66,12.83,1
1919,31.58,1.08,26.93,1
1920,31.6,-17.78,-18.99,1
1921,31.61,-27.77,-38.68,1
1922,31.63,-17.22,-1.63,1
1923,31.64,1.19,-6.94,1
1924,31.65,10.94,-38.86,1
1925,31.67,3.99,-12.2,1
1926,31.68,-6.81,14.89,1
1927,31.69,-3.67,3.81,1
1928,31.71,8.72,13.65,1
1929,31.72,21.53,34.95,1
1930,31.73,28.5,25.63,1
1931,31.75,15.37,10.86,1
1932,31.76,-9.14,11.34,1
1933,31.77,-11.7,-6.59,1
1934,31.78,8.0,-35.25,1
1935,31.8,19.77,-11.61,1
1936,31.81,14.4,39.57,1
1937,31.82,4.48,30.48,1
1938,31.84,-2.15,-18.97,1
1939,31.85,-7.82,-24.28,1
1940,31.86,-9.96,2.02,1
1941,31.88,-10.7,-5.18,1
1942,31.89,-21.03,-45.18,1
1943,31.9,-22.75,-77.99,1
1944,31.92,3.15,-68.2,1
1945,31.93,26.12,-0.81,1
1946,31.94,19.35,61.74,1
1947,31.96,0.69,45.61,1
1948,31.97,-8.34,-11.99,1
1949,31.98,-0.7,-42.76,1
1950,32.0,12.29,-37.93,1
1951,32.01,11.9,-5.33,1
1952,32.03,9.19,16.53,1
1953,32.04,10.3,-15.69,1
1954,32.05,-3.43,-41.83,1
1955,32.06,-15.64,-15.59,1
1956,32.08,-2.1,-17.7,1
1957,32.09,11.59,-63.83,1
1958,32.11,-3.79,-69.28,1
1959,32.12,-28.62,-30.44,1
1960,32.13,-25.68,5.32,1
1961,32.15,-2.06,27.04,1
1962,32.16,4.87,30.54,0
1963,32.17,-3.61,20.39,0
1964,32.19,4.58,4.97,0
1965,32.2,25.58,-19.1,0
1966,32.21,23.73,-37.71,0
1967,32.22,1.65,-29.09,0
1968,32.24,1.46,-9.1,0
1969,32.25,22.36,-10.07,0
1970,32.27,21.15,-21.06,0
1971,32.28,3.25,-19.02,0
1972,32.29,5.77,-17.01,0
1973,32.31,17.46,-15.78,0
1974,32.32,13.37,-4.31,0
1975,32.33,4.65,-17.47,0
1976,32.35,5.49,-75.51,0
1977,32.36,13.33,-126.72,0
1978,32.37,11.4,-135.52,0
1979,32.39,-9.05,-125.54,0
1980,32.4,-18.1,-120.39,0
1981,32.41,-2.47,-126.15,0
1982,32.43,0.06,-141.15,0
1983,32.44,-20.49,-139.75,0
1984,32.45,-32.94,-89.33,0
1985,32.47,-26.66,-10.75,0
1986,32.48,-12.75,35.7,0
1987,32.49,1.94,43.75,0
1988,32.51,14.59,59.48,0
1989,32.52,18.72,88.84,0
1990,32.53,13.05,100.46,0
1991,32.54,9.65,100.01,0
1992,32.56,8.02,110.31,1
1993,32.57,-5.04,120.23,1
1994,32.59,-17.0,114.62,1
1995,32.6,-9.94,100.37,1
1996,32.61,0.76,90.27,1
1997,32.63,-1.58,89.52,1
1998,32.64,-3.97,89.09,1
1999,32.65,2.56,75.32,1
2000,32.67,2.57,55.67,1
2001,32.68,-5.21,50.12,1
2002,32.69,-2.92,57.07,1
2003,32.71,3.83,62.79,1
2004,32.72,-2.72,63.12,1
2005,32.73,-11.45,55.74,1
2006,32.75,-6.51,44.14,1
2007,32.76,-1.52,36.55,1
2008,32.77,-13.22,31.41,1
2009,32.79,-25.34,27.93,1
2010,32.8,-9.62,29.62,1
2011,32.81,20.55,29.77,1
2012,32.83,22.04,21.43,1
2013,32.84,-3.93,15.59,1
2014,32.85,-19.29,19.91,1
2015,32.87,-18.17,17.11,1
2016,32.88,-12.34,3.84,1
2017,32.89,3.34,4.52,1
2018,32.9,19.34,17.2,1
2019,32.92,10.6,15.8,1
2020,32.93,-9.39,4.21,1
2021,32.95,-8.37,0.66,1
2022,32.96,2.19,-0.43,1
2023,32.97,-5.49,-4.62,1
2024,32.99,-19.48,-7.27,1
2025,33.0,-13.82,-13.71,1
2026,33.01,7.0,-22.32,1
2027,33.03,20.11,-19.44,1
2028,33.04,13.66,-9.18,1
2029,33.05,-3.12,-7.19,1
2030,33.06,-12.7,-15.45,1
2031,33.08,-8.95,-22.91,1
2032,33.09,-1.75,-21.52,1
2033,33.11,-1.32,-19.53,1
2034,33.12,-7.84,-26.13,1
2035,33.13,-14.84,-33.08,1
2036,33.15,-14.47,-27.1,1
2037,33.16,-7.11,-11.24,1
2038,33.17,-3.47,-4.51,1
2039,33.19,-5.32,-14.69,1
2040,33.2,-4.97,-27.56,1
2041,33.21,-1.9,-31.27,1
2042,33.22,0.76,-31.24,1
2043,33.24,4.59,-37.87,1
2044,33.25,6.55,-42.71,1
2045,33.27,0.18,-28.94,1
2046,33.28,-5.11,-9.42,1
2047,33.29,7.14,-9.93,1
2048,33.31,24.53,-22.05,1
2049,33.32,19.28,-24.45,1
2050,33.33,-2.52,-25.28,1
2051,33.35,-11.84,-32.89,1
2052,33.36,-4.64,-30.49,1
2053,33.37,4.48,-20.87,1
2054,33.38,10.9,-23.97,1
2055,33.4,13.86,-23.1,1
2056,33.41,11.39,-7.4,1
2057,33.43,6.41,-8.96,1
2058,33.44,1.98,-28.2,1
2059,33.45,-0.07,-30.48,1
2060,33.47,1.76,-18.3,1
2061,33.48,5.16,-17.25,1
2062,33.49,6.69,-30.48,1
2063,33.51,5.1,-38.98,1
2064,33.52,1.96,-28.66,1
2065,33.53,2.47,-9.71,1
2066,33.54,5.77,1.98,1
2067,33.56,7.21,0.4,1
2068,33.57,8.69,-13.52,1
2069,33.59,6.99,-24.76,1
2070,33.6,-3.46,-22.68,1
2071,33.61,-11.58,-19.02,1
2072,33.63,-7.68,-20.66,1
2073,33.64,-3.01,-18.41,1
2074,33.65,-5.39,-7.94,1
2075,33.67,-2.75,1.49,1
2076,33.68,6.91,-1.01,1
2077,33.69,7.36,-10.03,1
2078,33.71,-3.56,-8.16,1
2079,33.72,-11.43,-0.21,1
2080,33.73,-13.62,-6.77,1
2081,33.75,-14.42,-18.15,1
2082,33.76,-9.82,-12.99,1
2083,33.77,-1.62,-1.34,1
2084,33.79,3.01,1.54,1
2085,33.8,6.15,1.94,1
2086,33.81,5.47,3.98,1
2087,33.83,-4.11,1.17,1
2088,33.84,-9.32,-6.91,1
2089,33.85,-3.11,-11.07,1
2090,33.87,0.54,-8.04,1
2091,33.88,1.8,-6.98,1
2092,33.89,12.45,-3.23,1
2093,33.9,19.13,12.45,1
2094,33.92,5.36,20.22,1
2095,33.93,-10.95,10.77,1
2096,33.95,-8.54,5.46,1
2097,33.96,3.99,9.37,1
2098,33.97,8.1,10.49,1
2099,33.99,-2.36,9.74,1
2100,34.0,-11.79,14.01,1
2101,34.01,-0.59,15.07,1
2102,34.03,19.05,1.11,1
2103,34.04,17.93,-10.91,1
2104,34.05,-0.85,-2.49,1
2105,34.06,-8.55,6.02,1
2106,34.08,2.7,2.34,1
2107,34.09,11.59,7.06,1
2108,34.11,2.68,19.06,1
2109,34.12,-8.14,21.3,1
2110,34.13,-1.43,23.59,1
2111,34.15,10.21,33.05,1
2112,34.16,7.47,27.7,0
2113,34.17,-1.76,-9.33,0
2114,34.19,-2.71,-71.77,0
2115,34.2,3.57,-131.92,0
2116,34.21,6.52,-152.48,0
2117,34.23,4.68,-136.61,0
2118,34.24,8.48,-126.34,0
2119,34.25,18.75,-134.16,0
2120,34.27,20.86,-139.51,0
2121,34.28,4.14,-130.58,0
2122,34.29,-15.07,-109.91,0
2123,34.31,-11.69,-79.73,0
2124,34.32,3.57,-40.34,0
2125,34.33,4.02,-0.26,0
2126,34.35,-4.66,29.11,0
2127,34.36,-4.96,50.75,0
2128,34.37,-4.74,75.74,0
2129,34.38,-14.87,104.45,0
2130,34.4,-23.41,122.18,0
2131,34.41,-17.87,124.79,0
2132,34.43,-2.49,131.5,0
2133,34.44,9.19,149.09,0
2134,34.45,4.38,167.21,0
2135,34.47,-10.29,185.88,0
2136,34.48,-12.31,198.15,0
2137,34.49,-3.93,189.16,0
2138,34.51,-8.14,171.05,0
2139,34.52,-18.96,162.26,0
2140,34.53,-14.17,150.63,0
2141,34.54,1.03,126.44,0
2142,34.56,13.55,108.1,1
2143,34.57,18.16,102.48,1
2144,34.59,8.34,93.9,1
2145,34.6,-8.9,80.27,1
2146,34.61,-14.98,72.67,1
2147,34.63,-9.97,70.35,1
2148,34.64,-9.16,60.92,1
2149,34.65,-10.39,41.57,1
2150,34.67,-0.75,27.9,1
2151,34.68,10.13,26.6,1
2152,34.69,4.81,20.98,1
2153,34.71,-9.1,6.13,1
2154,34.72,-12.26,-1.94,1
2155,34.73,-1.8,-0.98,1
2156,34.75,9.18,-3.06,1
2157,34.76,10.57,-7.41,1
2158,34.77,4.48,-10.56,1
2159,34.79,-3.46,-19.59,1
2160,34.8,-11.08,-33.19,1
2161,34.81,-11.8,-40.51,1
2162,34.83,1.63,-37.33,1
2163,34.84,19.44,-28.63,1
2164,34.85,23.25,-26.26,1
2165,34.87,7.76,-35.63,1
2166,34.88,-13.69,-44.41,1
2167,34.89,-20.91,-43.25,1
2168,34.91,-7.92,-39.99,1
2169,34.92,10.05,-41.86,1
2170,34.93,14.27,-44.67,1
2171,34.95,3.02,-46.89,1
2172,34.96,-8.46,-52.54,1
2173,34.97,-10.66,-56.87,1
2174,34.99,-11.58,-52.64,1
2175,35.0,-13.8,-48.91,1
2176,35.01,-5.81,-55.97,1
2177,35.03,9.17,-59.26,1
2178,35.04,15.49,-46.81,1
2179,35.05,13.11,-38.32,1
2180,35.06,11.54,-47.07,1
2181,35.08,8.06,-54.37,1
2182,35.09,0.36,-47.8,1
2183,35.11,1.7,-41.78,1
2184,35.12,13.82,-45.83,1
2185,35.13,21.32,-49.35,1
2186,35.15,17.83,-50.26,1
2187,35.16,1.08,-56.04,1
2188,35.17,-19.04,-61.9,1
2189,35.19,-17.48,-62.03,1
2190,35.2,1.1,-58.05,1
2191,35.21,10.89,-50.81,1
2192,35.22,13.36,-44.57,1
2193,35.24,17.91,-44.5,1
2194,35.25,15.11,-44.26,1
2195,35.27,3.87,-37.65,1
2196,35.28,-0.6,-33.71,1
2197,35.29,3.64,-38.26,1
2198,35.31,1.61,-41.77,1
2199,35.32,-10.95,-36.34,1
2200,35.33,-15.11,-27.91,1
2201,35.35,-0.36,-25.6,1
2202,35.36,12.37,-24.71,1
2203,35.37,4.47,-15.63,1
2204,35.38,-11.38,-8.46,1
2205,35.4,-13.16,-12.8,1
2206,35.41,-0.56,-15.77,1
2207,35.43,9.42,-11.12,1
2208,35.44,8.16,-8.14,1
2209,35.45,1.05,-11.34,1
2210,35.47,-6.78,-17.92,1
2211,35.48,-10.36,-20.3,1
2212,35.49,-4.12,-14.45,1
2213,35.51,4.44,-3.61,1
2214,35.52,4.19,6.04,1
2215,35.53,-2.34,6.71,1
2216,35.55,-6.32,1.64,1
2217,35.56,-2.45,1.41,1
2218,35.57,1.56,4.17,1
2219,35.59,-7.21,1.5,1
2220,35.6,-17.86,-2.71,1
2221,35.61,-9.75,1.08,1
2222,35.63,7.73,7.27,1
2223,35.64,12.12,10.83,1
2224,35.65,3.83,19.12,1
2225,35.67,-3.65,25.04,1
2226,35.68,-1.61,18.69,1
2227,35.69,8.86,11.91,1
2228,35.71,13.16,12.59,1
2229,35.72,2.18,14.22,1
2230,35.73,-9.76,14.5,1
2231,35.75,-10.96,15.1,1
2232,35.76,-10.05,14.32,1
2233,35.77,-10.46,11.34,1
2234,35.79,-5.96,11.57,1
2235,35.8,-0.53,18.48,1
2236,35.81,-0.74,23.93,1
2237,35.83,-3.31,19.7,1
2238,35.84,-4.35,14.76,1
2239,35.85,-2.49,19.94,1
2240,35.87,1.89,26.09,1
2241,35.88,5.63,19.5,1
2242,35.89,10.24,6.95,1
2243,35.9,12.94,4.46,1
2244,35.92,1.04,9.95,1
2245,35.93,-17.84,14.07,1
2246,35.95,-15.42,19.72,1
2247,35.96,4.79,26.07,1
2248,35.97,11.69,24.55,1
2249,35.99,6.1,17.04,1
2250,36.0,7.27,14.92,1
2251,36.01,7.42,20.37,1
2252,36.03,-1.22,21.48,1
2253,36.04,-5.32,14.91,1
2254,36.05,-1.26,12.19,1
2255,36.06,2.82,14.85,1
2256,36.08,6.85,16.31,1
2257,36.09,5.56,16.95,1
2258,36.11,-7.82,15.25,1
2259,36.12,-17.03,10.74,1
2260,36.13,-6.43,11.88,1
2261,36.15,11.86,19.84,1
2262,36.16,22.0,24.76,2
2263,36.17,23.39,24.34,2
2264,36.19,13.45,23.17,2
2265,36.2,-7.53,26.68,2
2266,36.21,-20.01,49.48,2
2267,36.23,-14.13,105.49,2
2268,36.24,-7.87,185.0,2
2269,36.25,-9.3,255.76,2
2270,36.27,-10.88,289.36,2
2271,36.28,-17.3,280.0,2
2272,36.29,-24.93,234.24,2
2273,36.31,-17.41,161.29,2
2274,36.32,-3.49,80.01,2
2275,36.33,-1.31,8.78,2
2276,36.35,1.46,-42.6,2
2277,36.36,21.4,-71.77,2
2278,36.37,37.97,-95.76,2
2279,36.38,27.09,-140.72,2
2280,36.4,6.18,-192.87,2
2281,36.41,-1.54,-207.87,2
2282,36.43,-4.76,-187.82,2
2283,36.44,-10.82,-172.6,2
2284,36.45,-8.29,-166.66,2
2285,36.47,3.2,-154.11,2
2286,36.48,8.02,-135.9,2
2287,36.49,2.18,-118.73,2
2288,36.51,-0.86,-110.82,2
2289,36.52,2.32,-110.92,2
2290,36.53,3.78,-99.07,2
2291,36.54,8.24,-71.05,2
2292,36.56,15.34,-53.19,1
2293,36.57,9.16,-60.38,1
2294,36.59,-2.54,-73.94,1
2295,36.6,1.47,-70.73,1
2296,36.61,6.77,-58.03,1
2297,36.63,-5.33,-51.3,1
2298,36.64,-15.3,-42.34,1
2299,36.65,-9.32,-29.93,1
2300,36.67,-1.62,-29.48,1
2301,36.68,3.56,-34.14,1
2302,36.69,9.95,-25.97,1
2303,36.71,9.1,-8.42,1
2304,36.72,-1.25,4.02,1
2305,36.73,-5.08,6.04,1
2306,36.75,-0.95,2.57,1
2307,36.76,-5.0,2.25,1
2308,36.77,-10.33,7.11,1
2309,36.79,-5.91,9.6,1
2310,36.8,-15.4,7.61,1
2311,36.81,-40.64,6.27,1
2312,36.83,-35.56,9.46,1
2313,36.84,0.99,21.63,1
2314,36.85,13.42,36.32,1
2315,36.87,-5.34,37.41,1
2316,36.88,-11.43,28.15,1
2317,36.89,4.51,28.24,1
2318,36.9,20.01,35.98,1
2319,36.92,34.94,34.19,1
2320,36.93,51.86,30.71,1
2321,36.95,47.63,39.79,1
2322,36.96,17.79,43.3,1
2323,36.97,-5.35,29.87,1
2324,36.99,-3.5,22.9,1
2325,37.0,4.81,30.45,1
2326,37.01,2.11,38.77,1
2327,37.03,-4.05,47.8,1
2328,37.04,-6.01,53.51,1
2329,37.05,-5.25,43.75,1
2330,37.06,-2.53,31.88,1
2331,37.08,-1.39,34.97,1
2332,37.09,-3.09,41.97,1
2333,37.11,-4.05,42.99,1
2334,37.12,-5.7,41.03,1
2335,37.13,-9.87,34.4,1
2336,37.15,-11.15,28.98,1
2337,37.16,-7.53,34.58,1
2338,37.17,-5.72,44.01,1
2339,37.19,-6.12,44.2,1
2340,37.2,-2.8,32.5,1
2341,37.21,2.88,16.56,1
2342,37.22,8.14,8.59,1
2343,37.24,10.53,10.65,1
2344,37.25,4.02,13.39,1
2345,37.27,-5.67,17.89,1
2346,37.28,-7.68,33.16,1
2347,37.29,-5.4,44.53,1
2348,37.31,-4.67,33.04,1
2349,37.32,-5.84,15.0,1
2350,37.33,-6.77,10.7,1
2351,37.35,-5.13,12.7,1
2352,37.36,-2.57,13.0,1
2353,37.37,-2.51,12.29,1
2354,37.38,-4.11,7.55,1
2355,37.4,-4.37,8.6,1
2356,37.41,-3.27,25.02,1
2357,37.43,-3.45,33.07,1
2358,37.44,-4.65,15.13,1
2359,37.45,-3.34,-3.57,1
2360,37.47,-0.72,-3.29,1
2361,37.48,-1.05,3.06,1
2362,37.49,0.07,5.14,1
2363,37.51,5.56,10.5,1
2364,37.52,4.72,18.64,1
2365,37.53,-3.61,13.19,1
2366,37.54,-6.52,-6.68,1
2367,37.56,-2.23,-18.22,1
2368,37.57,2.83,-10.49,1
2369,37.59,4.77,-1.6,1
2370,37.6,-0.11,-5.68,1
2371,37.61,-6.28,-9.89,1
2372,37.63,-3.72,-6.84,1
2373,37.64,1.33,-7.43,1
2374,37.65,-0.93,-11.62,1
2375,37.67,-0.62,-12.78,1
2376,37.68,8.31,-11.23,1
2377,37.69,9.41,-5.95,1
2378,37.71,0.84,0.67,1
2379,37.72,-3.31,-2.57,1
2380,37.73,-6.76,-17.07,1
2381,37.75,-7.97,-24.95,1
2382,37.76,2.36,-15.92,1
2383,37.77,8.91,-4.76,1
2384,37.79,3.87,-8.62,1
2385,37.8,3.97,-24.82,1
2386,37.81,7.63,-34.36,1
2387,37.83,-0.34,-23.66,1
2388,37.84,-11.81,-0.75,1
2389,37.85,-9.66,10.89,1
2390,37.87,2.06,-4.97,1
2391,37.88,6.49,-32.33,1
2392,37.89,-0.55,-34.36,1
2393,37.9,-10.74,-9.83,1
2394,37.92,-15.85,-0.25,1
2395,37.93,-10.87,-19.78,1
2396,37.95,-3.28,-34.86,1
2397,37.96,-3.97,-21.73,1
2398,37.97,-7.2,0.75,1
2399,37.99,-2.47,1.29,1
2400,38.0,10.86,-19.16,1
2401,38.01,22.46,-31.94,1
2402,38.03,18.41,-23.78,1
2403,38.04,3.39,-11.95,1
2404,38.05,-5.55,-12.09,1
2405,38.06,-5.21,-17.71,1
2406,38.08,-3.87,-22.62,1
2407,38.09,-0.56,-23.24,1
2408,38.11,10.68,-16.65,1
2409,38.12,17.24,-17.67,1
2410,38.13,8.01,-30.85,1
2411,38.15,-2.08,-39.88,1
2412,38.16,-2.69,-37.19,2
2413,38.17,-1.22,0.98,2
2414,38.19,1.95,77.45,2
2415,38.2,7.18,114.34,2
2416,38.21,10.55,71.09,2
2417,38.22,21.3,31.36,2
2418,38.24,37.03,67.47,2
2419,38.25,27.92,146.24,2
2420,38.27,-7.2,208.24,2
2421,38.28,-32.54,173.42,2
2422,38.29,-26.24,49.48,2
2423,38.31,2.07,45.95,2
2424,38.32,16.54,177.79,2
2425,38.33,-2.46,183.96,2
2426,38.35,-14.82,59.93,2
2427,38.36,11.33,9.64,2
2428,38.37,26.96,37.68,2
2429,38.38,12.1,31.17,2
2430,38.4,33.52,-15.56,2
2431,38.41,68.45,-29.22,2
2432,38.43,38.27,-2.4,2
2433,38.44,-2.89,20.1,2
2434,38.45,-11.87,32.24,2
2435,38.47,-36.09,12.71,2
2436,38.48,-40.57,-66.89,2
2437,38.49,4.47,-136.51,2
2438,38.51,6.28,-151.91,2
2439,38.52,-51.85,-194.19,2
2440,38.53,-61.55,-257.5,2
2441,38.54,-10.46,-236.54,2
2442,38.56,3.11,-136.77,1
2443,38.57,-39.44,-30.68,1
2444,38.59,-58.35,16.81,1
2445,38.6,-25.56,-38.27,1
2446,38.61,-6.51,-129.36,1
2447,38.63,-27.21,-173.17,1
2448,38.64,-26.46,-181.05,1
2449,38.65,13.32,-165.35,1
2450,38.67,35.61,-124.96,1
2451,38.68,20.4,-103.6,1
2452,38.69,5.34,-125.52,1
2453,38.71,17.26,-143.49,1
2454,38.72,30.82,-120.31,1
2455,38.73,11.97,-69.54,1
2456,38.75,-12.88,-40.95,1
2457,38.76,-4.17,-72.17,1
2458,38.77,11.63,-111.78,1
2459,38.79,1.23,-114.06,1
2460,38.8,-12.35,-103.21,1
2461,38.81,-10.58,-65.01,1
2462,38.83,-4.51,11.92,1
2463,38.84,4.07,41.22,1
2464,38.85,9.6,-5.46,1
2465,38.87,6.95,-11.69,1
2466,38.88,7.95,49.25,1
2467,38.89,1.79,58.4,1
2468,38.9,-18.4,-1.45,1
2469,38.92,-14.95,-41.63,1
2470,38.93,11.49,-49.75,1
2471,38.95,8.29,-41.32,1
2472,38.96,-17.87,-0.23,1
2473,38.97,-18.47,42.63,1
2474,38.99,-2.45,41.13,1
2475,39.0,4.29,-5.05,1
2476,39.01,12.7,-49.77,1
2477,39.03,19.61,-28.28,1
2478,39.04,6.2,49.22,1
2479,39.05,-11.77,86.54,1
2480,39.06,-14.7,51.59,1
2481,39.08,-12.57,22.63,1
2482,39.09,-13.56,32.42,1
2483,39.11,-13.42,48.61,1
2484,39.12,-15.21,69.87,1
2485,39.13,-17.13,69.86,1
2486,39.15,-5.65,32.41,1
2487,39.16,12.15,33.55,1
2488,39.17,11.9,71.63,1
2489,39.19,-4.82,73.96,1
2490,39.2,-11.68,84.79,1
2491,39.21,-4.0,123.37,1
2492,39.22,0.46,115.73,1
2493,39.24,5.28,76.01,1
2494,39.25,16.22,46.74,1
2495,39.27,21.11,20.67,1
2496,39.28,22.97,17.16,1
2497,39.29,21.73,37.46,1
2498,39.31,1.94,69.41,1
2499,39.32,-16.23,116.73,1
2500,39.33,-0.68,132.24,1
2501,39.35,25.45,120.95,1
2502,39.36,30.99,131.36,1
2503,39.37,22.55,115.46,1
2504,39.38,9.08,60.48,1
2505,39.4,-6.55,33.02,1
2506,39.41,-10.88,32.28,1
2507,39.43,6.63,34.13,1
2508,39.44,30.47,50.18,1
2509,39.45,28.21,57.92,1
2510,39.47,-4.25,42.33,1
2511,39.48,-24.65,40.99,1
2512,39.49,-9.0,58.43,1
2513,39.51,5.5,47.32,1
2514,39.52,-1.36,0.54,1
2515,39.53,4.49,-16.59,1
2516,39.54,25.84,26.55,1
2517,39.56,20.99,63.7,1
2518,39.57,-14.31,41.84,1
2519,39.59,-32.75,2.21,1
2520,39.6,-8.73,5.63,1
2521,39.61,19.58,48.04,1
2522,39.63,20.66,79.44,1
2523,39.64,10.5,60.51,1
2524,39.65,1.53,13.24,1
2525,39.67,3.52,-2.25,1
2526,39.68,22.35,22.7,1
2527,39.69,22.81,53.54,1
2528,39.71,-9.15,61.55,1
2529,39.72,-25.87,33.31,1
2530,39.73,-8.63,4.94,1
2531,39.75,7.54,29.68,1
2532,39.76,3.45,66.23,1
2533,39.77,-5.65,32.17,1
2534,39.79,-6.2,-37.37,1
2535,39.8,-8.52,-59.05,1
2536,39.81,-11.86,-47.91,1
2537,39.83,5.47,-50.74,1
2538,39.84,30.89,-58.4,1
2539,39.85,32.1,-45.96,1
2540,39.87,14.69,-13.24,1
2541,39.88,-7.75,10.47,1
2542,39.89,-25.98,13.81,1
2543,39.9,-12.27,14.15,1
2544,39.92,13.95,-10.17,1
2545,39.93,0.69,-47.6,1
2546,39.95,-25.67,-29.96,1
2547,39.96,-19.67,-0.11,1
2548,39.97,-7.2,-36.34,1
2549,39.99,-10.6,-61.06,1
2550,40.0,-16.82,-13.71,1
2551,40.01,-16.25,4.73,1
2552,40.03,2.33,-44.12,1
2553,40.04,26.43,-71.58,1
2554,40.05,18.12,-39.76,1
2555,40.07,-14.91,-0.75,1
2556,40.08,-17.52,-6.88,1
2557,40.09,12.33,-23.84,1
2558,40.11,18.76,-4.27,1
2559,40.12,-1.19,2.21,1
2560,40.13,-8.77,-33.7,1
2561,40.15,-6.67,-50.45,1
2562,40.16,-10.22,-41.31,0
2563,40.17,-8.73,-58.14,0
2564,40.19,0.6,-76.63,0
2565,40.2,-0.45,-64.51,0
2566,40.21,-17.9,-51.59,0
2567,40.22,-29.88,-40.84,0
2568,40.24,-17.7,-23.68,0
2569,40.25,1.96,-7.93,0
2570,40.27,7.08,5.79,0
2571,40.28,1.71,1.89,0
2572,40.29,3.94,-9.12,0
2573,40.31,15.63,3.67,0
2574,40.32,12.99,20.71,0
2575,40.33,0.7,18.67,0
2576,40.35,2.59,11.4,0
2577,40.36,2.42,7.93,0
2578,40.37,-10.13,-6.29,0
2579,40.38,-18.58,-23.88,0
2580,40.4,-24.49,-14.91,0
2581,40.41,-26.15,-18.63,0
2582,40.43,-13.96,-93.65,0
2583,40.44,-2.25,-187.04,0
2584,40.45,-4.51,-232.15,0
2585,40.47,-11.05,-259.66,0
2586,40.48,-14.92,-283.78,0
2587,40.49,-19.09,-251.34,0
2588,40.51,-18.28,-171.03,0
2589,40.52,-5.78,-117.35,0
2590,40.53,7.34,-84.74,0
2591,40.54,7.99,-15.73,0
2592,40.56,1.36,66.76,1
2593,40.57,-1.82,107.84,1
2594,40.59,2.37,113.86,1
2595,40.6,11.28,116.02,1
2596,40.61,17.46,118.98,1
2597,40.63,12.33,115.08,1
2598,40.64,-1.26,103.47,1
2599,40.65,-4.41,83.31,1
2600,40.67,10.31,66.96,1
2601,40.68,29.05,71.32,1
2602,40.69,45.23,77.28,1
2603,40.71,51.43,67.46,1
2604,40.72,31.57,64.52,1
2605,40.73,2.91,79.85,1
2606,40.75,-1.37,90.83,1
2607,40.76,8.71,79.21,1
2608,40.77,7.61,54.77,1
2609,40.79,-0.27,45.08,1
2610,40.8,-3.79,60.24,1
2611,40.81,-5.6,71.43,1
2612,40.83,-3.1,57.5,1
2613,40.84,5.77,46.68,1
2614,40.85,7.05,54.68,1
2615,40.87,-3.89,50.88,1
2616,40.88,-10.48,30.83,1
2617,40.89,-8.47,26.03,1
2618,40.9,-9.39,34.87,1
2619,40.92,-11.13,31.35,1
2620,40.93,-7.49,24.06,1
2621,40.95,-6.55,33.64,1
2622,40.96,-9.24,42.79,1
2623,40.97,-3.4,32.73,1
2624,40.99,7.2,21.63,1
2625,41.0,8.12,21.52,1
2626,41.01,2.01,17.25,1
2627,41.03,0.13,8.35,1
2628,41.04,3.79,9.08,1
2629,41.05,6.95,14.27,1
2630,41.06,2.18,11.52,1
2631,41.08,-6.19,4.54,1
2632,41.09,-3.88,1.6,1
2633,41.11,3.8,0.44,1
2634,41.12,-1.64,-3.46,1
2635,41.13,-12.41,-5.73,1
2636,41.15,-9.58,-4.22,1
2637,41.16,-4.6,-5.09,1
2638,41.17,-13.83,-9.23,1
2639,41.19,-19.03,-11.01,1
2640,41.2,-3.54,-10.06,1
2641,41.21,8.8,-8.43,1
2642,41.22,-1.23,-6.0,1
2643,41.24,-10.63,-6.66,1
2644,41.25,-3.85,-11.98,1
2645,41.27,-2.4,-16.09,1
2646,41.28,-11.52,-15.9,1
2647,41.29,-8.06,-19.1,1
2648,41.31,5.87,-30.04,1
2649,41.32,11.83,-32.74,1
2650,41.33,12.09,-19.4,1
2651,41.35,8.45,-10.25,1
2652,41.36,-2.29,-15.46,1
2653,41.37,-11.04,-22.33,1
2654,41.38,-9.74,-26.48,1
2655,41.4,-2.07,-29.1,1
2656,41.41,7.25,-22.06,1
2657,41.43,11.36,-11.54,1
2658,41.44,-0.04,-15.15,1
2659,41.45,-19.13,-24.6,1
2660,41.47,-19.85,-20.5,1
2661,41.48,-2.27,-12.44,1
2662,41.49,7.66,-15.74,1
2663,41.51,7.46,-22.5,1
2664,41.52,9.5,-26.02,1
2665,41.53,5.83,-24.62,1
2666,41.54,-7.04,-14.75,1
2667,41.56,-9.14,-9.63,1
2668,41.57,3.04,-20.42,1
2669,41.59,9.65,-28.95,1
2670,41.6,4.85,-23.04,1
2671,41.61,-4.12,-19.14,1
2672,41.63,-10.25,-24.56,1
2673,41.64,-5.99,-28.3,1
2674,41.65,6.38,-25.27,1
2675,41.67,14.13,-19.37,1
2676,41.68,11.28,-16.05,1
2677,41.69,2.0,-14.31,1
2678,41.71,-5.97,-10.66,1
2679,41.72,-5.78,-8.09,1
2680,41.73,0.88,-6.7,1
2681,41.75,5.12,-7.04,1
2682,41.76,4.03,-15.09,1
2683,41.77,1.16,-23.24,1
2684,41.79,0.31,-18.44,1
2685,41.8,3.61,-10.55,1
2686,41.81,6.36,-9.45,1
2687,41.83,2.4,-4.04,1
2688,41.84,-4.89,4.18,1
2689,41.85,-6.28,-2.59,1
2690,41.87,2.56,-18.07,1
2691,41.88,10.6,-21.88,1
2692,41.89,2.24,-17.34,1
2693,41.9,-14.51,-15.99,1
2694,41.92,-15.98,-11.21,1
2695,41.93,-1.59,2.03,1
2696,41.95,6.35,9.55,1
2697,41.96,2.08,2.68,1
2698,41.97,-0.44,-5.35,1
2699,41.99,2.71,-6.07,1
2700,42.0,3.63,-9.63,1
2701,42.01,-1.02,-14.65,1
2702,42.03,-5.95,-4.83,1
2703,42.04,-3.26,12.34,1
2704,42.05,2.86,13.67,1
2705,42.06,-0.06,3.31,1
2706,42.08,-7.7,-2.92,1
2707,42.09,-4.03,-6.16,1
2708,42.11,8.28,-8.49,1
2709,42.12,8.82,-7.44,1
2710,42.13,-3.54,-1.19,1
2711,42.15,-9.08,10.65,1
2712,42.16,-2.59,14.76,0
2713,42.17,6.15,1.48,0
2714,42.19,8.48,-25.59,0
2715,42.2,4.35,-62.64,0
2716,42.21,6.24,-93.63,0
2717,42.22,14.19,-104.84,0
2718,42.24,8.12,-109.58,0
2719,42.25,-4.4,-122.34,0
2720,42.27,9.38,-133.66,0
2721,42.28,35.72,-125.53,0
2722,42.29,34.5,-103.18,0
2723,42.31,15.6,-86.51,0
2724,42.32,9.28,-73.97,0
2725,42.33,16.27,-56.89,0
2726,42.35,18.89,-38.96,0
2727,42.36,4.52,-16.0,0
2728,42.37,-14.11,13.75,0
2729,42.38,-14.07,37.33,0
2730,42.4,-1.89,54.61,0
2731,42.41,1.24,79.81,0
2732,42.43,-5.36,108.64,0
2733,42.44,-9.68,120.89,0
2734,42.45,-7.98,120.03,0
2735,42.47,-8.6,125.18,0
2736,42.48,-16.84,133.84,0
2737,42.49,-23.93,141.54,0
2738,42.51,-19.75,158.29,0
2739,42.52,-7.83,173.78,0
2740,42.53,-0.44,170.15,0
2741,42.54,0.13,160.26,0
2742,42.56,-0.57,156.16,1
2743,42.57,-3.35,147.56,1
2744,42.59,-6.12,131.65,1
2745,42.6,-0.77,115.5,1
2746,42.61,7.36,101.99,1
2747,42.63,5.03,86.83,1
2748,42.64,-5.7,65.62,1
2749,42.65,-13.96,50.08,1
2750,42.66,-10.64,53.39,1
2751,42.68,2.07,59.0,1
2752,42.69,2.99,47.36,1
2753,42.71,-10.95,32.1,1
2754,42.72,-18.53,25.15,1
2755,42.73,-15.07,19.17,1
2756,42.75,-8.09,15.35,1
2757,42.76,-4.75,12.53,1
2758,42.77,-5.47,6.51,1
2759,42.79,3.65,2.1,1
2760,42.8,16.61,-5.63,1
2761,42.81,13.05,-19.9,1
2762,42.83,2.36,-29.46,1
2763,42.84,-2.7,-30.3,1
2764,42.85,-7.84,-27.45,1
2765,42.87,-7.16,-27.31,1
2766,42.88,-0.52,-36.51,1
2767,42.89,-4.39,-48.15,1
2768,42.9,-13.7,-44.67,1
2769,42.92,-16.58,-31.48,1
2770,42.93,-16.02,-32.5,1
2771,42.95,-5.55,-45.37,1
2772,42.96,8.39,-48.11,1
2773,42.97,5.17,-41.93,1
2774,42.99,2.54,-43.39,1
2775,43.0,16.96,-50.56,1
2776,43.01,19.22,-51.74,1
2777,43.03,-0.44,-46.58,1
2778,43.04,-14.87,-42.24,1
2779,43.05,-11.21,-42.32,1
2780,43.06,1.39,-44.13,1
2781,43.08,7.01,-45.62,1
2782,43.09,-0.74,-46.53,1
2783,43.11,-7.01,-44.83,1
2784,43.12,-2.97,-41.92,1
2785,43.13,-1.74,-42.25,1
2786,43.15,-5.52,-43.53,1
2787,43.16,1.52,-37.33,1
2788,43.17,15.96,-28.52,1
2789,43.19,16.69,-32.22,1
2790,43.2,6.39,-44.01,1
2791,43.21,7.55,-45.96,1
2792,43.22,19.26,-38.56,1
2793,43.24,18.39,-36.96,1
2794,43.25,1.48,-41.42,1
2795,43.27,-10.82,-39.58,1
2796,43.28,-8.62,-34.11,1
2797,43.29,-1.3,-35.93,1
2798,43.3,3.46,-40.65,1
2799,43.32,7.04,-39.59,1
2800,43.33,7.5,-32.88,1
2801,43.35,1.74,-26.12,1
2802,43.36,0.78,-26.92,1
2803,43.37,8.88,-30.85,1
2804,43.38,10.02,-25.29,1
2805,43.4,-0.88,-19.07,1
2806,43.41,-10.39,-28.58,1
2807,43.43,-7.84,-36.95,1
2808,43.44,3.72,-23.22,1
2809,43.45,12.66,-7.28,1
2810,43.47,10.67,-12.12,1
2811,43.48,-0.01,-23.27,1
2812,43.49,-5.72,-22.22,1
2813,43.51,1.64,-14.81,1
2814,43.52,9.64,-9.67,1
2815,43.53,9.19,-5.16,1
2816,43.54,7.8,-1.07,1
2817,43.56,2.94,0.83,1
2818,43.57,-8.27,4.39,1
2819,43.59,-7.57,9.03,1
2820,43.6,4.82,10.6,1
2821,43.61,4.88,11.1,1
2822,43.63,-5.76,6.76,1
2823,43.64,-9.63,-3.71,1
2824,43.65,-5.64,-4.99,1
2825,43.67,3.36,4.1,1
2826,43.68,9.02,8.74,1
2827,43.69,1.8,9.5,1
2828,43.71,-4.82,13.75,1
2829,43.72,0.95,17.71,1
2830,43.73,3.04,13.34,1
2831,43.75,-3.25,4.13,1
2832,43.76,-1.93,2.66,1
2833,43.77,3.79,8.58,1
2834,43.79,-0.36,14.38,1
2835,43.8,-9.64,18.96,1
2836,43.81,-10.52,18.78,1
2837,43.83,-2.73,13.28,1
2838,43.84,2.39,10.46,1
2839,43.85,1.92,15.03,1
2840,43.87,2.07,21.09,1
2841,43.88,5.66,20.64,1
2842,43.89,4.13,15.12,1
2843,43.9,-7.99,11.39,1
2844,43.92,-13.23,10.96,1
2845,43.93,0.88,14.78,1
2846,43.94,16.24,22.29,1
2847,43.96,15.29,24.09,1
2848,43.97,1.65,17.43,1
2849,43.99,-12.41,13.38,1
2850,44.0,-15.5,13.53,1
2851,44.01,-7.95,9.45,1
2852,44.03,-0.73,6.07,1
2853,44.04,1.85,13.94,1
2854,44.05,0.3,27.95,1
2855,44.06,-4.57,33.96,1
2856,44.08,-4.97,26.97,1
2857,44.09,5.03,17.48,1
2858,44.11,17.74,17.51,1
2859,44.12,20.13,22.96,1
2860,44.13,11.56,22.86,1
2861,44.15,2.86,19.73,1
2862,44.16,-2.8,19.87,2
2863,44.17,-5.5,21.46,2
2864,44.19,-1.41,33.74,2
2865,44.2,2.11,81.98,2
2866,44.21,-4.64,168.66,2
2867,44.22,-15.85,255.82,2
2868,44.24,-20.14,299.0,2
2869,44.25,-15.51,282.34,2
2870,44.27,-12.96,228.44,2
2871,44.28,-16.15,169.86,2
2872,44.29,-15.94,115.91,2
2873,44.31,-12.52,63.03,2
2874,44.32,-10.62,1.98,2
2875,44.33,-5.0,-73.33,2
2876,44.35,1.69,-141.26,2
2877,44.36,-0.57,-179.03,2
2878,44.37,-2.19,-195.03,2
2879,44.38,7.73,-199.96,2
2880,44.4,15.94,-190.52,2
2881,44.41,11.45,-171.84,2
2882,44.43,3.15,-157.56,2
2883,44.44,2.16,-148.69,2
2884,44.45,8.66,-133.93,2
2885,44.47,9.61,-109.95,2
2886,44.48,-0.99,-84.95,2
2887,44.49,-5.77,-62.22,2
2888,44.51,9.33,-48.09,2
2889,44.52,32.46,-54.08,2
2890,44.53,41.31,-72.45,2
2891,44.54,28.76,-82.42,2
2892,44.56,8.36,-77.43,1
2893,44.57,-1.37,-64.65,1
2894,44.58,4.58,-49.18,1
2895,44.6,12.96,-37.32,1
2896,44.61,9.47,-34.81,1
2897,44.63,-4.93,-34.45,1
2898,44.64,-18.1,-32.73,1
2899,44.65,-19.56,-34.25,1
2900,44.67,-10.62,-29.86,1
2901,44.68,-3.19,-14.86,1
2902,44.69,-0.82,-4.95,1
2903,44.71,2.82,-6.42,1
2904,44.72,1.84,-7.63,1
2905,44.73,-7.83,-1.15,1
2906,44.75,-10.63,5.47,1
2907,44.76,-5.41,5.47,1
2908,44.77,-10.19,8.3,1
2909,44.79,-17.72,19.16,1
2910,44.8,-10.32,22.62,1
2911,44.81,0.4,12.59,1
2912,44.83,-3.09,9.54,1
2913,44.84,-12.06,22.21,1
2914,44.85,-10.7,30.53,1
2915,44.87,-1.11,24.62,1
2916,44.88,2.87,21.8,1
2917,44.89,-1.84,27.55,1
2918,44.9,-3.9,30.39,1
2919,44.92,0.43,32.44,1
2920,44.93,2.05,38.11,1
2921,44.95,0.72,38.99,1
2922,44.96,4.05,35.17,1
2923,44.97,6.55,36.5,1
2924,44.99,-2.12,42.51,1
2925,45.0,-13.53,44.3,1
2926,45.01,-12.88,39.45,1
2927,45.03,-3.01,34.36,1
2928,45.04,6.73,34.13,1
2929,45.05,9.71,37.84,1
2930,45.06,2.65,40.5,1
2931,45.08,-5.64,34.91,1
2932,45.09,-5.91,21.74,1
2933,45.11,0.65,22.5,1
2934,45.12,9.32,44.42,1
2935,45.13,13.42,53.28,1
2936,45.15,10.0,32.08,1
2937,45.16,3.39,11.85,1
2938,45.17,-3.65,16.38,1
2939,45.19,-9.66,30.93,1
2940,45.2,-10.12,36.26,1
2941,45.21,-2.68,32.92,1
2942,45.22,8.48,28.38,1
2943,45.24,10.88,22.62,1
2944,45.25,0.9,14.9,1
2945,45.26,-5.77,12.74,1
2946,45.28,-3.54,19.43,1
2947,45.29,-4.72,23.32,1
2948,45.31,-10.29,17.74,1
2949,45.32,-9.23,14.89,1
2950,45.33,-0.26,17.54,1
2951,45.35,4.35,14.76,1
2952,45.36,-0.13,11.43,1
2953,45.37,-2.56,13.98,1
2954,45.38,2.83,13.12,1
2955,45.4,7.81,8.14,1
2956,45.41,4.77,10.61,1
2957,45.43,-1.68,15.86,1
2958,45.44,0.14,10.45,1
2959,45.45,7.64,0.13,1
2960,45.47,5.0,-1.31,1
2961,45.48,-4.45,4.1,1
2962,45.49,-4.16,4.38,1
2963,45.51,1.19,-2.49,1
2964,45.52,-1.37,-3.61,1
2965,45.53,-7.14,4.81,1
2966,45.54,-4.9,5.15,1
2967,45.56,1.46,-6.84,1
2968,45.57,-0.81,-10.24,1
2969,45.59,-6.17,-2.01,1
2970,45.6,-3.16,1.47,1
2971,45.61,3.51,-1.09,1
2972,45.63,9.93,-2.64,1
2973,45.64,12.99,-2.95,1
2974,45.65,3.71,-3.75,1
2975,45.67,-7.51,-8.01,1
2976,45.68,-0.75,-12.69,1
2977,45.69,13.9,-9.39,1
2978,45.71,12.99,-6.81,1
2979,45.72,1.48,-16.72,1
2980,45.73,-5.33,-24.25,1
2981,45.75,-9.24,-17.28,1
2982,45.76,-11.19,-15.74,1
2983,45.77,-6.76,-27.47,1
2984,45.79,-0.01,-27.05,1
2985,45.8,3.47,-12.56,1
2986,45.81,3.4,-13.3,1
2987,45.83,1.29,-24.63,1
2988,45.84,1.03,-20.81,1
2989,45.85,1.83,-13.64,1
2990,45.86,-0.26,-18.04,1
2991,45.88,3.14,-18.52,1
2992,45.89,11.69,-11.26,1
2993,45.9,6.95,-7.46,1
2994,45.92,-6.78,-7.99,1
2995,45.93,-11.23,-11.63,1
2996,45.95,-11.75,-16.03,1
2997,45.96,-11.13,-16.16,1
2998,45.97,3.11,-15.61,1
2999,45.99,17.72,-15.89,1
3000,46.0,12.01,-9.29,1
3001,46.01,0.76,-1.84,1
3002,46.03,0.99,-6.12,1
3003,46.04,2.17,-11.01,1
3004,46.05,-5.34,-3.35,1
3005,46.06,-8.15,0.55,1
3006,46.08,5.77,-11.87,1
3007,46.09,17.98,-22.97,1
3008,46.11,10.27,-19.1,1
3009,46.12,-1.99,-7.97,1
3010,46.13,-1.85,-5.61,1
3011,46.15,0.36,-27.87,1
3012,46.16,-4.88,-45.12,2
3013,46.17,-4.42,9.12,2
3014,46.19,8.07,88.73,2
3015,46.2,20.29,94.57,2
3016,46.21,25.47,96.03,2
3017,46.22,20.38,147.77,2
3018,46.24,-5.95,174.55,2
3019,46.25,-47.23,184.35,2
3020,46.27,-57.71,151.73,2
3021,46.28,-8.43,60.3,2
3022,46.29,47.54,71.39,2
3023,46.31,48.27,144.1,2
3024,46.32,4.21,103.65,2
3025,46.33,-38.6,43.47,2
3026,46.35,-45.59,-20.93,2
3027,46.36,-24.1,-195.26,2
3028,46.37,-16.66,-271.6,2
3029,46.38,-24.24,-109.62,2
3030,46.4,-4.6,25.44,2
3031,46.41,28.87,-13.23,2
3032,46.43,23.09,-57.06,2
3033,46.44,1.82,-33.26,2
3034,46.45,20.44,-71.82,2
3035,46.47,36.9,-175.36,2
3036,46.48,4.63,-173.6,2
3037,46.49,-8.56,-70.71,2
3038,46.5,33.35,-38.33,2
3039,46.52,51.36,-92.37,2
3040,46.53,10.88,-112.35,2
3041,46.54,-22.72,-83.07,2
3042,46.56,-12.53,-86.74,1
3043,46.57,-2.95,-120.27,1
3044,46.59,-18.43,-119.31,1
3045,46.6,-18.03,-98.61,1
3046,46.61,8.82,-94.97,1
3047,46.63,18.96,-77.02,1
3048,46.64,0.04,-13.71,1
3049,46.65,-9.55,42.29,1
3050,46.67,9.57,6.17,1
3051,46.68,12.6,-74.03,1
3052,46.69,-24.75,-59.93,1
3053,46.71,-39.75,24.0,1
3054,46.72,2.72,34.85,1
3055,46.73,38.32,-30.82,1
3056,46.75,21.48,-63.08,1
3057,46.76,-9.79,-54.37,1
3058,46.77,-16.39,-70.2,1
3059,46.79,-6.58,-69.14,1
3060,46.8,-4.74,-7.84,1
3061,46.81,-14.54,30.06,1
3062,46.83,-17.77,6.25,1
3063,46.84,-6.68,-19.47,1
3064,46.85,-0.89,-21.61,1
3065,46.87,-11.15,-13.37,1
3066,46.88,-12.83,-10.39,1
3067,46.89,5.45,-1.17,1
3068,46.9,16.03,23.43,1
3069,46.92,9.22,40.69,1
3070,46.93,0.67,59.67,1
3071,46.95,-6.31,70.31,1
3072,46.96,-8.68,42.09,1
3073,46.97,0.03,11.73,1
3074,46.99,16.32,-0.6,1
3075,47.0,19.02,-34.45,1
3076,47.01,-9.84,-69.08,1
3077,47.03,-32.23,-28.31,1
3078,47.04,-6.29,51.13,1
3079,47.05,19.47,59.8,1
3080,47.06,-4.32,34.26,1
3081,47.08,-33.49,63.65,1
3082,47.09,-25.53,93.07,1
3083,47.11,-3.89,62.48,1
3084,47.12,1.62,34.76,1
3085,47.13,-0.94,40.85,1
3086,47.14,8.7,51.69,1
3087,47.16,13.06,83.63,1
3088,47.17,-3.64,97.86,1
3089,47.18,-2.72,44.57,1
3090,47.2,17.13,7.93,1
3091,47.21,5.48,10.84,1
3092,47.22,-20.3,-7.61,1
3093,47.24,-18.5,-6.66,1
3094,47.25,-6.7,32.01,1
3095,47.27,-2.74,44.32,1
3096,47.28,6.94,15.52,1
3097,47.29,18.19,-12.8,1
3098,47.31,5.35,-2.7,1
3099,47.32,-17.68,32.53,1
3100,47.33,-9.31,52.19,1
3101,47.35,16.98,53.37,1
3102,47.36,15.14,45.58,1
3103,47.37,-3.53,39.67,1
3104,47.38,-0.63,58.34,1
3105,47.4,10.37,90.89,1
3106,47.41,3.52,99.39,1
3107,47.43,-3.82,77.51,1
3108,47.44,0.23,56.04,1
3109,47.45,-5.16,49.54,1
3110,47.47,-17.75,46.37,1
3111,47.48,-10.6,42.94,1
3112,47.49,14.49,33.35,1
3113,47.51,28.7,12.96,1
3114,47.52,17.55,-0.6,1
3115,47.53,4.43,4.09,1
3116,47.54,15.42,25.86,1
3117,47.56,22.64,54.47,1
3118,47.57,0.67,56.08,1
3119,47.59,-12.26,27.73,1
3120,47.6,-3.03,0.7,1
3121,47.61,-6.28,-22.6,1
3122,47.63,-13.62,-31.3,1
3123,47.64,-4.99,-15.14,1
3124,47.65,-4.27,-1.3,1
3125,47.67,-13.65,17.59,1
3126,47.68,-1.42,46.24,1
3127,47.69,21.76,43.44,1
3128,47.71,15.75,18.83,1
3129,47.72,-12.1,-1.43,1
3130,47.73,-21.4,-18.45,1
3131,47.75,-7.46,-6.87,1
3132,47.76,9.07,15.39,1
3133,47.77,22.72,-2.34,1
3134,47.78,27.23,-15.5,1
3135,47.8,13.78,21.97,1
3136,47.81,-3.07,39.0,1
3137,47.82,-5.3,-14.84,1
3138,47.84,-4.08,-63.29,1
3139,47.85,-16.77,-47.29,1
3140,47.86,-23.57,-4.61,1
3141,47.88,-1.96,16.86,1
3142,47.89,19.8,-8.98,1
3143,47.9,9.8,-26.76,1
3144,47.92,-10.98,30.92,1
3145,47.93,-12.16,53.38,1
3146,47.95,-8.38,-25.82,1
3147,47.96,-16.73,-52.36,1
3148,47.97,-19.92,4.66,1
3149,47.99,-7.07,-1.92,1
3150,48.0,7.67,-49.54,1
3151,48.01,10.05,-28.43,1
3152,48.03,8.68,-5.42,1
3153,48.04,13.74,-43.2,1
3154,48.05,12.0,-59.65,1
3155,48.06,-1.21,-17.8,1
3156,48.08,-13.8,18.83,1
3157,48.09,-17.25,9.05,1
3158,48.11,-9.38,-22.64,1
3159,48.12,-1.55,-44.37,1
3160,48.13,-5.27,-59.71,1
3161,48.15,-10.24,-74.66,1
3162,48.16,-3.63,-66.54,0
3163,48.17,8.84,-26.1,0
3164,48.19,18.66,5.12,0
3165,48.2,24.93,2.81,0
3166,48.21,17.16,-6.62,0
3167,48.22,-4.41,-15.81,0
3168,48.24,-5.4,-32.91,0
3169,48.25,15.33,-31.53,0
3170,48.27,18.68,-17.69,0
3171,48.28,10.15,-64.21,0
3172,48.29,9.83,-160.98,0
3173,48.31,11.69,-202.84,0
3174,48.32,19.82,-187.38,0
3175,48.33,29.91,-188.35,0
3176,48.35,25.33,-197.3,0
3177,48.36,14.78,-172.32,0
3178,48.37,7.75,-120.87,0
3179,48.38,0.17,-71.62,0
3180,48.4,-1.86,-45.08,0
3181,48.41,2.98,-30.83,0
3182,48.42,2.36,4.84,0
3183,48.44,-9.03,52.48,0
3184,48.45,-24.83,75.35,0
3185,48.46,-31.98,80.38,0
3186,48.48,-25.36,89.21,0
3187,48.49,-16.62,96.01,0
3188,48.5,-12.98,97.15,0
3189,48.52,-11.69,103.75,0
3190,48.53,-10.26,114.52,0
3191,48.54,-8.73,114.57,0
3192,48.56,-11.67,104.3,1
3193,48.57,-19.28,95.67,1
3194,48.59,-23.82,88.38,1
3195,48.6,-21.85,78.49,1
3196,48.61,-16.04,69.01,1
3197,48.63,-7.72,61.17,1
3198,48.64,-0.58,54.27,1
3199,48.65,-1.84,50.04,1
3200,48.67,-7.06,47.3,1
3201,48.68,-4.05,41.85,1
3202,48.69,4.78,32.86,1
3203,48.71,10.74,26.14,1
3204,48.72,14.85,32.0,1
3205,48.73,16.67,42.15,1
3206,48.75,11.38,38.7,1
3207,48.76,3.45,32.48,1
3208,48.77,-1.49,34.93,1
3209,48.79,-5.4,31.56,1
3210,48.8,-2.72,25.86,1
3211,48.81,5.58,36.02,1
3212,48.83,4.74,49.19,1
3213,48.84,-4.65,42.09,1
3214,48.85,-8.18,21.13,1
3215,48.87,0.88,2.64,1
3216,48.88,10.66,-8.49,1
3217,48.89,5.06,-8.77,1
3218,48.9,-3.47,0.73,1
3219,48.92,3.61,6.88,1
3220,48.93,12.5,-0.58,1
3221,48.95,5.66,-16.22,1
3222,48.96,-9.89,-22.19,1
3223,48.97,-16.35,-9.02,1
3224,48.99,-2.49,3.84,1
3225,49.0,16.73,-2.37,1
3226,49.01,15.2,-12.63,1
3227,49.03,-0.77,-10.49,1
3228,49.04,-7.5,-5.42,1
3229,49.05,-3.76,-10.38,1
3230,49.06,-0.26,-18.35,1
3231,49.08,1.17,-12.39,1
3232,49.09,0.99,5.43,1
3233,49.1,-0.21,9.04,1
3234,49.12,5.3,-9.58,1
3235,49.13,13.89,-20.76,1
3236,49.14,11.2,-13.9,1
3237,49.16,2.87,-11.28,1
3238,49.17,5.3,-15.12,1
3239,49.19,13.8,-17.32,1
3240,49.2,14.33,-23.64,1
3241,49.21,5.79,-29.61,1
3242,49.22,-0.82,-24.43,1
3243,49.24,0.53,-13.27,1
3244,49.25,2.46,-9.11,1
3245,49.27,0.42,-12.26,1
3246,49.28,-1.05,-12.71,1
3247,49.29,-3.36,-14.24,1
3248,49.31,-6.99,-24.18,1
3249,49.32,-4.25,-29.65,1
3250,49.33,4.29,-23.46,1
3251,49.35,7.18,-22.88,1
3252,49.36,-0.31,-31.76,1
3253,49.37,-7.85,-29.14,1
3254,49.38,-6.39,-12.11,1
3255,49.4,-2.47,-3.47,1
3256,49.41,-1.1,-13.53,1
3257,49.43,0.2,-27.53,1
3258,49.44,-0.86,-25.25,1
3259,49.45,-4.97,-9.47,1
3260,49.47,-7.49,-6.95,1
3261,49.48,-5.41,-25.36,1
3262,49.49,-1.35,-36.82,1
3263,49.51,-0.86,-25.09,1
3264,49.52,-0.34,-13.37,1
3265,49.53,6.9,-19.49,1
3266,49.54,11.64,-26.69,1
3267,49.56,3.74,-22.49,1
3268,49.57,-8.62,-18.6,1
3269,49.59,-11.83,-20.17,1
3270,49.6,-4.51,-17.72,1
3271,49.61,4.09,-11.33,1
3272,49.63,4.64,-10.25,1
3273,49.64,-2.15,-12.75,1
3274,49.65,-5.73,-8.24,1
3275,49.67,-1.38,0.56,1
3276,49.68,3.41,-0.88,1
3277,49.69,2.7,-6.3,1
3278,49.7,-0.59,-5.39,1
3279,49.72,1.78,-12.82,1
3280,49.73,9.37,-25.85,1
3281,49.74,8.48,-18.38,1
3282,49.76,-2.77,0.76,1
3283,49.77,-7.01,1.04,1
3284,49.78,1.52,-10.75,1
3285,49.8,7.4,-8.96,1
3286,49.81,0.72,-1.48,1
3287,49.83,-8.63,-7.04,1
3288,49.84,-5.81,-13.71,1
3289,49.85,3.75,-8.95,1
3290,49.87,2.38,-1.09,1
3291,49.88,-4.16,8.4,1
3292,49.89,-0.16,19.55,1
3293,49.9,1.79,16.25,1
3294,49.92,-11.83,-2.84,1
3295,49.93,-22.95,-7.76,1
3296,49.95,-12.4,9.17,1
3297,49.96,6.47,13.69,1
3298,49.97,9.68,-0.37,1
3299,49.99,1.85,-2.09,1
3300,50.0,0.93,8.94,1
3301,50.01,5.99,11.75,1
3302,50.03,4.75,7.79,1
3303,50.04,-2.52,2.69,1
3304,50.05,-5.26,-0.41,1
3305,50.06,-4.52,7.88,1
3306,50.08,-6.8,18.63,1
3307,50.09,-5.74,13.79,1
3308,50.11,-1.62,2.07,1
3309,50.12,-2.62,0.49,1
3310,50.13,-4.21,4.15,1
3311,50.15,-2.68,5.84,1
3312,50.16,-0.06,9.41,0
3313,50.17,4.09,17.21,0
3314,50.19,6.05,20.21,0
3315,50.2,6.79,-3.62,0
3316,50.21,10.89,-57.01,0
3317,50.22,9.1,-108.99,0
3318,50.24,-0.21,-142.39,0
3319,50.25,0.05,-164.39,0
3320,50.27,12.48,-171.02,0
3321,50.28,24.17,-163.53,0
3322,50.29,27.77,-160.97,0
3323,50.31,20.33,-157.28,0
3324,50.32,7.12,-128.68,0
3325,50.33,-0.7,-81.9,0
3326,50.34,-2.03,-35.93,0
3327,50.36,-0.68,7.1,0
3328,50.37,2.15,43.85,0
3329,50.38,2.3,67.61,0
3330,50.4,-2.72,82.9,0
3331,50.41,-9.58,95.89,0
3332,50.42,-14.83,109.56,0
3333,50.44,-14.96,130.85,0
3334,50.45,-9.97,156.06,0
3335,50.46,-6.68,171.6,0
3336,50.48,-5.0,182.58,0
3337,50.49,-6.24,199.4,0
3338,50.51,-19.06,207.85,0
3339,50.52,-28.46,191.0,0
3340,50.53,-14.92,163.1,0
3341,50.54,2.23,144.42,0
3342,50.56,0.1,131.22,1
3343,50.57,-6.93,120.52,1
3344,50.59,-4.99,116.88,1
3345,50.6,-5.22,108.13,1
3346,50.61,-9.5,87.63,1
3347,50.63,-5.1,74.42,1
3348,50.64,8.39,72.79,1
3349,50.65,16.46,61.94,1
3350,50.67,5.37,41.72,1
3351,50.68,-17.2,31.37,1
3352,50.69,-25.07,31.11,1
3353,50.71,-9.92,27.24,1
3354,50.72,7.73,13.8,1
3355,50.73,8.51,1.07,1
3356,50.75,-7.43,4.25,1
3357,50.76,-20.97,11.85,1
3358,50.77,-9.3,0.28,1
3359,50.79,12.05,-15.62,1
3360,50.8,4.17,-8.17,1
3361,50.81,-26.92,2.49,1
3362,50.83,-37.79,-10.3,1
3363,50.84,-11.7,-27.75,1
3364,50.85,20.87,-32.26,1
3365,50.87,20.37,-39.0,1
3366,50.88,-7.31,-50.71,1
3367,50.89,-17.91,-47.56,1
3368,50.9,-1.09,-33.97,1
3369,50.92,8.65,-31.77,1
3370,50.93,4.9,-37.42,1
3371,50.95,14.5,-38.95,1
3372,50.96,32.28,-41.09,1
3373,50.97,32.27,-48.51,1
3374,50.98,21.7,-54.26,1
3375,51.0,20.48,-48.88,1
3376,51.01,19.89,-38.24,1
3377,51.02,4.82,-40.42,1
3378,51.04,-8.05,-56.88,1
3379,51.05,4.42,-70.45,1
3380,51.06,23.57,-70.08,1
3381,51.08,21.24,-58.51,1
3382,51.09,12.54,-41.92,1
3383,51.1,16.97,-29.26,1
3384,51.12,16.41,-31.05,1
3385,51.13,-0.91,-41.55,1
3386,51.15,-18.03,-46.72,1
3387,51.16,-23.23,-50.06,1
3388,51.17,-14.91,-56.04,1
3389,51.19,1.48,-55.92,1
3390,51.2,6.88,-45.15,1
3391,51.21,-1.9,-30.69,1
3392,51.22,-6.67,-28.83,1
3393,51.24,-3.02,-44.67,1
3394,51.25,0.96,-52.22,1
3395,51.27,1.06,-37.97,1
3396,51.28,-2.87,-28.54,1
3397,51.29,-2.8,-33.24,1
3398,51.31,4.71,-30.04,1
3399,51.32,9.48,-19.32,1
3400,51.33,8.06,-22.33,1
3401,51.35,3.47,-34.46,1
3402,51.36,-6.29,-30.35,1
3403,51.37,-12.52,-10.84,1
3404,51.38,-8.1,-1.68,1
3405,51.4,-5.99,-12.9,1
3406,51.41,-9.05,-30.07,1
3407,51.43,-4.33,-34.24,1
3408,51.44,4.58,-26.03,1
3409,51.45,6.89,-20.1,1
3410,51.47,6.46,-15.44,1
3411,51.48,7.22,-6.97,1
3412,51.49,3.85,-6.36,1
3413,51.51,-2.98,-13.59,1
3414,51.52,-9.13,-11.62,1
3415,51.53,-14.71,-2.98,1
3416,51.54,-12.3,-3.52,1
3417,51.56,2.49,-9.27,1
3418,51.57,12.07,-10.42,1
3419,51.59,2.25,-11.7,1
3420,51.6,-10.06,-12.94,1
3421,51.61,-2.66,-7.47,1
3422,51.62,16.36,-1.44,1
3423,51.64,21.45,-2.81,1
3424,51.65,6.7,-3.53,1
3425,51.66,-8.62,5.32,1
3426,51.68,-9.32,17.55,1
3427,51.69,2.26,23.11,1
3428,51.7,10.11,19.6,1
3429,51.72,1.86,14.3,1
3430,51.73,-8.92,17.24,1
3431,51.74,-6.36,23.68,1
3432,51.76,2.2,20.88,1
3433,51.77,9.71,12.53,1
3434,51.79,14.72,9.97,1
3435,51.8,12.93,11.79,1
3436,51.81,8.04,11.43,1
3437,51.83,6.36,11.42,1
3438,51.84,2.09,17.89,1
3439,51.85,-9.46,24.95,1
3440,51.87,-20.52,18.79,1
3441,51.88,-21.95,5.08,1
3442,51.89,-13.04,4.54,1
3443,51.9,2.92,16.42,1
3444,51.92,16.74,21.9,1
3445,51.93,12.94,20.95,1
3446,51.95,-5.45,25.5,1
3447,51.96,-14.86,28.49,1
3448,51.97,-12.36,19.96,1
3449,51.99,-12.51,9.09,1
3450,52.0,-10.07,5.16,1
3451,52.01,-1.18,8.13,1
3452,52.03,-2.17,14.55,1
3453,52.04,-9.8,16.97,1
3454,52.05,-3.0,15.1,1
3455,52.06,11.67,16.2,1
3456,52.08,11.23,20.33,1
3457,52.09,-0.52,25.29,1
3458,52.11,-5.41,26.19,1
3459,52.12,0.8,15.85,1
3460,52.13,13.47,5.59,1
3461,52.15,22.64,8.16,1
3462,52.16,16.11,22.89,2
3463,52.17,-2.78,63.98,2
3464,52.19,-16.03,143.81,2
3465,52.2,-7.93,236.1,2
3466,52.21,12.87,302.75,2
3467,52.22,21.04,324.13,2
3468,52.24,18.4,292.04,2
3469,52.25,23.89,214.93,2
3470,52.26,21.71,122.71,2
3471,52.28,-3.7,46.7,2
3472,52.29,-28.44,-4.31,2
3473,52.3,-39.28,-46.25,2
3474,52.32,-45.13,-90.33,2
3475,52.33,-38.15,-129.8,2
3476,52.34,-18.54,-160.83,2
3477,52.36,-10.07,-185.94,2
3478,52.37,-17.96,-200.43,2
3479,52.38,-22.26,-196.59,2
3480,52.4,-13.74,-176.68,2
3481,52.41,-6.27,-155.58,2
3482,52.425,-8.27,-144.97,2
3483,52.44,-4.97,-141.75,2
3484,52.45,10.21,-134.98,2
3485,52.47,19.52,-121.42,2
3486,52.48,16.02,-109.17,2
3487,52.49,11.88,-107.16,2
3488,52.51,9.28,-105.15,2
3489,52.52,5.5,-86.23,2
3490,52.53,5.19,-63.78,2
3491,52.54,5.23,-58.19,2
3492,52.56,2.14,-57.92,1
3493,52.57,2.98,-49.74,1
3494,52.59,6.97,-41.91,1
3495,52.6,9.62,-39.75,1
3496,52.61,9.16,-38.21,1
3497,52.63,1.17,-29.97,1
3498,52.64,-3.14,-15.61,1
3499,52.65,8.04,-4.76,1
3500,52.67,17.29,-1.23,1
3501,52.68,13.26,3.16,1
3502,52.69,9.65,9.44,1
3503,52.71,8.97,9.35,1
3504,52.72,5.49,7.76,1
3505,52.73,4.82,16.07,1
3506,52.75,7.04,25.85,1
3507,52.76,3.67,22.56,1
3508,52.77,-5.09,13.21,1
3509,52.79,-10.58,13.91,1
3510,52.8,-5.82,24.12,1
3511,52.81,3.37,36.54,1
3512,52.83,1.96,46.05,1
3513,52.84,-6.23,43.65,1
3514,52.85,-2.93,33.91,1
3515,52.87,6.08,29.69,1
3516,52.88,2.65,28.14,1
3517,52.89,-4.12,28.96,1
3518,52.9,0.67,37.24,1
3519,52.92,6.88,47.04,1
3520,52.93,3.47,50.9,1
3521,52.94,-4.67,46.52,1
3522,52.96,-9.0,35.88,1
3523,52.97,-3.87,28.72,1
3524,52.98,5.74,33.61,1
3525,53.0,7.79,43.69,1
3526,53.01,3.33,46.74,1
3527,53.02,2.25,46.54,1
3528,53.04,1.2,47.77,1
3529,53.05,-6.39,39.19,1
3530,53.06,-11.07,23.31,1
3531,53.08,-3.06,20.12,1
3532,53.09,7.36,28.62,1
3533,53.11,6.61,29.5,1
3534,53.12,1.06,27.89,1
3535,53.13,-3.44,40.47,1
3536,53.15,-16.34,53.47,1
3537,53.16,-29.5,47.1,1
3538,53.17,-20.04,30.1,1
3539,53.19,2.59,18.31,1
3540,53.2,9.44,17.54,1
3541,53.21,3.99,27.26,1
3542,53.22,0.95,37.83,1
3543,53.24,-4.15,38.6,1
3544,53.25,-5.24,29.78,1
3545,53.27,1.93,20.49,1
3546,53.28,2.5,17.88,1
3547,53.29,-0.01,17.39,1
3548,53.31,4.55,9.94,1
3549,53.32,3.49,5.89,1
3550,53.33,-5.78,18.74,1
3551,53.35,-8.61,26.66,1
3552,53.36,-5.46,7.61,1
3553,53.37,-1.49,-11.25,1
3554,53.38,7.3,-0.61,1
3555,53.4,16.58,19.65,1
3556,53.41,12.37,20.69,1
3557,53.43,-5.21,6.6,1
3558,53.44,-16.36,-2.11,1
3559,53.45,-9.89,3.34,1
3560,53.47,0.77,10.42,1
3561,53.48,2.2,2.2,1
3562,53.49,0.33,-15.67,1
3563,53.51,5.2,-21.66,1
3564,53.52,13.14,-9.04,1
3565,53.53,11.77,8.07,1
3566,53.54,-3.01,14.15,1
3567,53.56,-18.58,7.07,1
3568,53.57,-14.17,-4.17,1
3569,53.58,8.0,-9.47,1
3570,53.6,14.08,-4.68,1
3571,53.61,-5.69,4.16,1
3572,53.62,-16.84,2.72,1
3573,53.64,-4.86,-12.65,1
3574,53.65,8.38,-23.72,1
3575,53.66,10.26,-23.0,1
3576,53.68,5.07,-25.32,1
3577,53.69,-1.85,-29.71,1
3578,53.7,-6.21,-22.26,1
3579,53.72,-4.99,-12.79,1
3580,53.73,-1.67,-15.14,1
3581,53.75,-2.26,-18.77,1
3582,53.76,-5.21,-16.44,1
3583,53.77,-6.49,-20.91,1
3584,53.79,-4.13,-32.32,1
3585,53.8,0.45,-30.49,1
3586,53.81,2.01,-13.78,1
3587,53.83,1.83,-4.32,1
3588,53.84,2.25,-7.95,1
3589,53.85,-0.26,-12.01,1
3590,53.87,0.44,-10.49,1
3591,53.88,9.55,-6.57,1
3592,53.89,10.81,-4.37,1
3593,53.9,-2.62,-7.77,1
3594,53.92,-10.51,-17.18,1
3595,53.93,-1.51,-18.51,1
3596,53.95,8.06,-5.15,1
3597,53.96,5.07,-1.63,1
3598,53.97,-1.09,-17.09,1
3599,53.99,-1.86,-24.48,1
3600,54.0,-1.65,-15.82,1
3601,54.01,-0.68,-6.02,1
3602,54.03,4.32,2.52,1
3603,54.04,10.53,5.79,1
3604,54.05,11.66,-3.14,1
3605,54.06,4.23,-14.51,1
3606,54.08,-4.32,-20.42,1
3607,54.09,-3.22,-21.92,1
3608,54.11,2.59,-16.64,1
3609,54.12,4.23,-7.72,1
3610,54.13,8.99,-3.56,1
3611,54.15,16.72,-2.83,1
3612,54.16,12.62,-8.65,2
3613,54.17,1.71,-33.84,2
3614,54.18,-0.04,-42.08,2
3615,54.2,4.12,28.14,2
3616,54.21,5.78,124.28,2
3617,54.22,5.1,136.38,2
3618,54.24,6.21,89.71,2
3619,54.25,15.49,108.32,2
3620,54.26,27.62,195.83,2
3621,54.28,18.83,192.3,2
3622,54.29,-8.63,76.87,2
3623,54.3,-22.89,19.5,2
3624,54.32,-25.27,12.85,2
3625,54.33,-28.96,-58.56,2
3626,54.34,-22.03,-115.14,2
3627,54.36,-9.11,-87.94,2
3628,54.37,-5.61,-78.05,2
3629,54.38,-7.13,-119.51,2
3630,54.4,-7.85,-121.24,2
3631,54.41,-3.76,-68.58,2
3632,54.43,3.72,-56.04,2
3633,54.44,4.49,-86.29,2
3634,54.45,0.49,-79.96,2
3635,54.47,-7.09,-86.34,2
3636,54.48,-15.38,-152.25,2
3637,54.49,-3.37,-160.65,2
3638,54.51,21.41,-74.15,2
3639,54.52,19.51,-10.6,2
3640,54.53,-9.42,-9.36,2
3641,54.54,-19.64,-17.26,2
3642,54.56,5.09,-15.17,1
3643,54.57,14.2,-27.37,1
3644,54.59,-16.33,-61.08,1
3645,54.6,-29.15,-65.6,1
3646,54.61,-1.37,-16.51,1
3647,54.63,14.21,17.22,1
3648,54.64,-1.55,-2.42,1
3649,54.65,-11.22,-18.21,1
3650,54.67,-1.59,-2.07,1
3651,54.68,3.82,-3.02,1
3652,54.69,4.05,-40.1,1
3653,54.71,10.49,-54.83,1
3654,54.72,6.53,-14.03,1
3655,54.73,-13.26,24.21,1
3656,54.75,-18.86,15.26,1
3657,54.76,3.27,-10.53,1
3658,54.77,29.6,-20.89,1
3659,54.79,33.76,-6.08,1
3660,54.8,14.1,14.85,1
3661,54.81,-5.95,6.2,1
3662,54.82,-11.24,-9.19,1
3663,54.84,-12.67,13.47,1
3664,54.85,-17.56,28.28,1
3665,54.86,-16.55,-19.62,1
3666,54.88,-3.11,-49.31,1
3667,54.89,9.77,8.13,1
3668,54.9,12.08,62.76,1
3669,54.92,18.89,44.29,1
3670,54.93,24.96,3.0,1
3671,54.94,6.09,-0.6,1
3672,54.96,-16.72,36.89,1
3673,54.97,-7.74,56.91,1
3674,54.98,11.23,37.88,1
3675,55.0,2.54,36.46,1
3676,55.01,-13.21,54.36,1
3677,55.03,-7.26,39.21,1
3678,55.04,-5.92,-3.73,1
3679,55.05,-22.51,-18.13,1
3680,55.06,-21.37,15.41,1
3681,55.08,2.9,43.09,1
3682,55.09,14.7,27.78,1
3683,55.11,12.08,19.42,1
3684,55.12,17.4,37.72,1
3685,55.13,20.77,23.3,1
3686,55.15,7.13,-17.0,1
3687,55.16,-1.74,-28.5,1
3688,55.17,9.49,-19.57,1
3689,55.19,9.92,-12.69,1
3690,55.2,-17.12,-0.44,1
3691,55.21,-33.09,21.97,1
3692,55.22,-18.31,37.96,1
3693,55.24,-2.71,33.28,1
3694,55.25,1.1,19.4,1
3695,55.27,4.77,7.41,1
3696,55.28,2.9,16.4,1
3697,55.29,-9.97,63.4,1
3698,55.31,-13.77,89.72,1
3699,55.32,6.03,37.42,1
3700,55.33,27.44,-20.91,1
3701,55.35,21.55,-4.65,1
3702,55.36,-2.76,41.92,1
3703,55.37,-15.45,62.34,1
3704,55.38,-8.81,60.55,1
3705,55.4,-1.52,46.24,1
3706,55.41,-9.08,32.86,1
3707,55.43,-21.07,28.7,1
3708,55.44,-16.25,20.62,1
3709,55.45,1.44,18.97,1
3710,55.46,6.59,31.62,1
3711,55.48,-3.33,16.76,1
3712,55.49,-0.5,-24.42,1
3713,55.5,19.73,-24.3,1
3714,55.52,23.16,16.68,1
3715,55.53,2.29,32.5,1
3716,55.54,-8.14,3.14,1
3717,55.56,1.83,-45.94,1
3718,55.57,10.15,-43.97,1
3719,55.58,9.79,39.08,1
3720,55.6,8.64,89.02,1
3721,55.61,10.7,54.08,1
3722,55.62,8.24,28.09,1
3723,55.64,-10.73,25.31,1
3724,55.65,-23.18,2.58,1
3725,55.66,-5.37,1.07,1
3726,55.68,9.93,36.54,1
3727,55.69,0.75,50.14,1
3728,55.71,-3.9,27.42,1
3729,55.72,9.79,-4.55,1
3730,55.73,18.69,-36.6,1
3731,55.75,11.86,-52.73,1
3732,55.76,12.05,-39.99,1
3733,55.77,22.87,-19.44,1
3734,55.79,11.73,-0.99,1
3735,55.8,-22.53,15.21,1
3736,55.81,-37.01,2.41,1
3737,55.83,-20.32,-22.21,1
3738,55.84,-6.43,-3.1,1
3739,55.85,-7.7,37.11,1
3740,55.87,-7.97,41.15,1
3741,55.88,-4.11,16.46,1
3742,55.89,1.31,0.13,1
3743,55.9,9.52,8.86,1
3744,55.92,13.5,28.18,1
3745,55.93,12.23,22.55,1
3746,55.95,17.67,-7.79,1
3747,55.96,27.76,-13.22,1
3748,55.97,25.21,19.41,1
3749,55.99,6.57,19.79,1
3750,56.0,-13.76,-45.9,1
3751,56.01,-21.38,-79.03,1
3752,56.03,-14.3,-10.08,1
3753,56.04,-5.81,53.69,1
3754,56.05,-0.07,15.82,1
3755,56.06,16.77,-33.49,1
3756,56.08,32.23,-16.41,1
3757,56.09,17.34,-4.57,1
3758,56.1,-8.78,-24.87,1
3759,56.12,-11.62,-30.07,1
3760,56.13,4.78,-42.44,1
3761,56.14,17.01,-70.72,1
3762,56.16,1.68,-63.6,0
3763,56.17,-26.62,-23.16,0
3764,56.18,-25.13,0.21,0
3765,56.2,-2.55,-14.26,0
3766,56.21,5.28,-33.8,0
3767,56.22,0.49,-32.49,0
3768,56.24,2.03,-45.47,0
3769,56.25,10.92,-100.23,0
3770,56.26,9.81,-161.76,0
3771,56.28,-6.82,-189.56,0
3772,56.29,-19.3,-191.05,0
3773,56.3,-17.24,-184.75,0
3774,56.32,-14.0,-152.64,0
3775,56.33,-18.36,-81.8,0
3776,56.35,-23.87,-11.25,0
3777,56.36,-25.67,19.32,0
3778,56.37,-22.49,22.16,0
3779,56.38,-9.68,19.1,0
3780,56.4,6.31,4.47,0
3781,56.41,10.68,-13.4,0
3782,56.43,8.08,-9.39,0
3783,56.44,11.83,9.77,0
3784,56.45,16.09,23.66,0
3785,56.47,7.83,35.55,0
3786,56.48,-10.95,51.12,0
3787,56.49,-24.06,60.02,0
3788,56.51,-16.49,60.42,0
3789,56.52,3.42,68.78,0
3790,56.53,7.96,84.62,0
3791,56.54,-3.25,83.97,0
3792,56.56,-7.02,69.99,1
3793,56.57,-3.31,78.81,1
3794,56.59,-1.03,107.12,1
3795,56.6,-0.16,108.33,1
3796,56.61,-5.12,77.96,1
3797,56.63,-12.3,56.78,1
3798,56.64,-1.21,58.58,1
3799,56.65,27.08,60.93,1
3800,56.67,33.73,50.63,1
3801,56.68,5.87,37.44,1
3802,56.69,-14.61,32.34,1
3803,56.71,-2.35,33.13,1
3804,56.72,14.01,27.85,1
3805,56.73,11.1,18.52,1
3806,56.74,2.94,23.2,1
3807,56.76,-2.01,38.12,1
3808,56.77,-9.49,38.47,1
3809,56.78,-13.0,23.7,1
3810,56.8,-7.94,14.8,1
3811,56.81,-0.22,12.58,1
3812,56.82,10.15,8.49,1
3813,56.84,16.55,8.19,1
3814,56.85,7.48,11.22,1
3815,56.86,-7.64,8.49,1
3816,56.88,-10.53,-0.8,1
3817,56.89,1.03,-8.78,1
3818,56.9,11.36,-5.17,1
3819,56.92,3.41,3.97,1
3820,56.93,-12.79,2.72,1
3821,56.94,-15.17,-4.35,1
3822,56.96,-8.32,-8.26,1
3823,56.97,-2.48,-14.9,1
3824,56.99,6.68,-22.87,1
3825,57.0,14.65,-16.15,1
3826,57.01,17.16,4.79,1
3827,57.03,19.18,10.98,1
3828,57.04,15.15,-9.66,1
3829,57.05,0.8,-24.96,1
3830,57.06,-8.29,-11.52,1
3831,57.08,-0.35,4.06,1
3832,57.09,11.33,-4.66,1
3833,57.11,7.56,-22.07,1
3834,57.12,-8.91,-28.58,1
3835,57.13,-15.53,-24.58,1
3836,57.15,-5.97,-17.08,1
3837,57.16,-1.86,-15.17,1
3838,57.17,-12.8,-21.74,1
3839,57.19,-20.42,-29.84,1
3840,57.2,-9.45,-30.54,1
3841,57.21,9.76,-21.54,1
3842,57.22,14.92,-12.65,1
3843,57.24,6.71,-12.49,1
3844,57.25,3.21,-16.15,1
3845,57.27,3.16,-16.23,1
3846,57.28,-3.28,-15.84,1
3847,57.29,-10.07,-20.7,1
3848,57.31,-8.92,-25.59,1
3849,57.32,-5.16,-26.44,1
3850,57.33,-6.23,-28.98,1
3851,57.35,-4.56,-29.88,1
3852,57.36,5.5,-23.53,1
3853,57.37,11.17,-18.5,1
3854,57.38,9.06,-18.97,1
3855,57.4,11.66,-19.97,1
3856,57.41,14.9,-24.89,1
3857,57.42,5.65,-35.57,1
3858,57.44,-7.86,-37.28,1
3859,57.45,-8.35,-19.67,1
3860,57.46,1.62,-2.01,1
3861,57.48,5.54,-6.45,1
3862,57.49,3.27,-16.73,1
3863,57.5,5.12,-13.71,1
3864,57.52,3.4,-11.57,1
3865,57.53,-5.64,-16.43,1
3866,57.54,-7.11,-17.1,1
3867,57.56,-3.4,-15.02,1
3868,57.57,-4.05,-14.51,1
3869,57.58,4.76,-13.45,1
3870,57.6,20.64,-10.83,1
3871,57.61,15.19,-6.97,1
3872,57.63,-4.94,-5.08,1
3873,57.64,-4.03,-6.22,1
3874,57.65,8.91,-4.59,1
3875,57.67,-4.27,1.24,1
3876,57.68,-30.45,4.92,1
3877,57.69,-23.43,2.37,1
3878,57.71,12.14,-2.61,1
3879,57.72,23.62,-1.49,1
3880,57.73,-2.5,4.93,1
3881,57.75,-19.58,4.96,1
3882,57.76,-3.09,-0.21,1
3883,57.77,14.33,1.05,1
3884,57.79,8.82,8.57,1
3885,57.8,-3.91,12.08,1
3886,57.81,-4.96,9.13,1
3887,57.83,7.02,8.95,1
3888,57.84,18.57,11.8,1
3889,57.85,15.44,8.49,1
3890,57.87,2.92,3.46,1
3891,57.88,-5.97,6.68,1
3892,57.89,-4.9,12.61,1
3893,57.9,7.62,10.02,1
3894,57.92,16.0,1.45,1
3895,57.93,4.65,-0.55,1
3896,57.95,-10.73,6.87,1
3897,57.96,-12.19,13.64,1
3898,57.97,-5.89,10.98,1
3899,57.99,-3.93,0.71,1
3900,58.0,-8.25,-4.38,1
3901,58.01,-8.48,2.77,1
3902,58.02,-2.81,9.88,1
3903,58.04,-1.4,10.73,1
3904,58.05,-0.69,16.37,1
3905,58.06,5.56,23.12,1
3906,58.08,7.64,18.68,1
3907,58.09,4.48,10.46,1
3908,58.1,5.73,9.26,1
3909,58.12,7.99,10.92,1
3910,58.13,5.27,10.09,1
3911,58.14,2.14,8.94,1
3912,58.16,3.83,12.5,0
3913,58.17,6.03,13.15,0
3914,58.18,0.39,-20.36,0
3915,58.2,-9.92,-91.44,0
3916,58.21,-13.11,-146.22,0
3917,58.22,-4.99,-156.56,0
3918,58.24,13.76,-152.86,0
3919,58.25,34.32,-156.86,0
3920,58.26,39.91,-155.94,0
3921,58.28,24.57,-134.77,0
3922,58.29,-0.79,-103.51,0
3923,58.31,-9.42,-85.01,0
3924,58.32,9.47,-75.04,0
3925,58.33,19.56,-46.41,0
3926,58.35,0.83,0.51,0
3927,58.36,-13.18,37.22,0
3928,58.37,-11.01,55.73,0
3929,58.38,-21.95,73.56,0
3930,58.4,-38.48,99.34,0
3931,58.41,-23.29,122.18,0
3932,58.43,-0.61,130.89,0
3933,58.44,-22.35,129.74,0
3934,58.45,-58.19,133.71,0
3935,58.47,-51.08,150.54,0
3936,58.48,-27.98,166.37,0
3937,58.49,-32.04,165.62,0
3938,58.51,-34.23,157.19,0
3939,58.52,-12.85,154.31,0
3940,58.53,5.89,153.52,0
3941,58.54,16.61,144.72,0
3942,58.56,18.95,126.06,1
3943,58.57,7.73,106.71,1
3944,58.59,2.01,92.07,1
3945,58.6,-0.07,83.24,1
3946,58.61,-7.41,82.79,1
3947,58.63,-1.16,79.39,1
3948,58.64,12.34,61.37,1
3949,58.65,24.25,41.6,1
3950,58.66,43.78,31.75,1
3951,58.68,39.35,25.69,1
3952,58.69,2.18,22.47,1
3953,58.7,-20.8,22.41,1
3954,58.72,-29.81,18.07,1
3955,58.73,-27.06,11.18,1
3956,58.74,14.84,2.37,1
3957,58.76,46.93,-13.76,1
3958,58.77,17.43,-29.41,1
3959,58.78,-17.52,-31.24,1
3960,58.8,-4.92,-19.42,1
3961,58.81,14.52,-7.85,1
3962,58.82,9.39,-7.35,1
3963,58.84,14.01,-15.28,1
3964,58.85,25.26,-27.61,1
3965,58.86,4.88,-36.9,1
3966,58.88,-23.26,-35.22,1
3967,58.89,-22.21,-32.66,1
3968,58.9,-9.66,-38.14,1
3969,58.92,-4.75,-44.04,1
3970,58.93,-4.18,-46.38,1
3971,58.95,-6.81,-45.76,1
3972,58.96,-10.21,-43.06,1
3973,58.97,-10.4,-43.33,1
3974,58.99,-7.2,-42.37,1
3975,59.0,-0.67,-38.74,1
3976,59.01,3.6,-45.8,1
3977,59.03,-1.58,-59.26,1
3978,59.04,-9.1,-58.97,1
3979,59.05,-8.78,-49.01,1
3980,59.06,-2.52,-46.05,1
3981,59.08,4.52,-50.53,1
3982,59.09,11.59,-54.61,1
3983,59.11,10.86,-55.88,1
3984,59.12,-1.58,-57.81,1
3985,59.13,-8.46,-59.57,1
3986,59.15,-1.51,-54.61,1
3987,59.16,3.1,-44.3,1
3988,59.17,-0.28,-36.71,1
3989,59.19,-1.37,-37.54,1
3990,59.2,1.08,-47.43,1
3991,59.21,1.39,-54.26,1
3992,59.22,4.12,-43.73,1
3993,59.24,9.98,-26.09,1
3994,59.25,7.24,-22.23,1
3995,59.27,1.16,-29.68,1
3996,59.28,6.14,-34.89,1
3997,59.29,11.81,-34.28,1
3998,59.3,7.56,-30.73,1
3999,59.32,6.33,-28.85,1
4000,59.33,15.13,-28.63,1
4001,59.34,18.2,-27.13,1
4002,59.36,2.23,-24.36,1
4003,59.37,-13.5,-18.06,1
4004,59.38,-4.44,-12.91,1
4005,59.4,12.72,-18.12,1
4006,59.41,15.46,-23.59,1
4007,59.42,15.99,-17.03,1
4008,59.44,18.63,-11.31,1
4009,59.45,8.73,-16.55,1
4010,59.46,-6.83,-20.19,1
4011,59.48,-10.17,-14.67,1
4012,59.49,-2.21,-5.92,1
4013,59.5,3.95,-1.05,1
4014,59.52,1.66,-5.25,1
4015,59.53,-2.12,-11.96,1
4016,59.54,-3.79,-13.13,1
4017,59.56,-9.95,-15.74,1
4018,59.57,-15.6,-17.28,1
4019,59.59,-9.65,-5.13,1
4020,59.6,-3.1,10.73,1
4021,59.61,-7.91,14.02,1
4022,59.63,-9.25,7.73,1
4023,59.64,0.13,-0.36,1
4024,59.65,2.91,-7.1,1
4025,59.67,-2.44,-5.91,1
4026,59.68,1.01,5.22,1
4027,59.69,13.54,16.92,1
4028,59.71,18.57,23.32,1
4029,59.72,8.19,25.71,1
4030,59.73,-0.98,21.85,1
4031,59.75,7.36,12.08,1
4032,59.76,15.95,2.77,1
4033,59.77,2.73,0.8,1
4034,59.79,-15.66,8.27,1
4035,59.8,-16.15,14.96,1
4036,59.81,-10.15,11.48,1
4037,59.83,-11.1,5.28,1
4038,59.84,-6.35,8.57,1
4039,59.85,6.55,18.69,1
4040,59.87,9.77,22.83,1
4041,59.88,4.43,20.47,1
4042,59.89,4.37,25.29,1
4043,59.9,5.49,33.3,1
4044,59.92,3.63,25.82,1
4045,59.93,4.79,12.18,1
4046,59.94,7.72,15.72,1
4047,59.96,6.29,26.34,1
4048,59.97,-2.51,22.97,1
4049,59.98,-13.88,16.0,1
4050,60.0,-17.4,20.34,1
4051,60.01,-9.54,27.39,1
4052,60.02,0.85,25.92,1
4053,60.04,5.51,17.8,1
4054,60.05,6.11,12.05,1
4055,60.06,4.65,12.65,1
4056,60.08,-2.8,13.92,1
4057,60.09,-11.2,15.07,1
4058,60.1,-4.93,17.87,1
4059,60.12,13.54,17.03,1
4060,60.13,20.64,12.15,1
4061,60.14,10.26,20.02,1
4062,60.16,-2.88,67.37,2
4063,60.17,-12.26,157.68,2
4064,60.18,-13.9,253.2,2
4065,60.2,-2.43,316.53,2
4066,60.21,12.75,336.93,2
4067,60.22,25.82,305.05,2
4068,60.24,40.25,222.93,2
4069,60.25,43.74,129.06,2
4070,60.27,24.01,56.82,2
4071,60.28,-10.91,-3.65,2
4072,60.29,-43.33,-58.45,2
4073,60.31,-60.06,-88.22,2
4074,60.32,-60.79,-100.48,2
4075,60.33,-55.83,-127.13,2
4076,60.35,-50.33,-164.46,2
4077,60.36,-38.76,-185.91,2
4078,60.37,-20.91,-194.73,2
4079,60.38,-8.26,-202.91,2
4080,60.4,-7.64,-196.26,2
4081,60.41,-10.68,-166.76,2
4082,60.43,-3.89,-141.43,2
4083,60.44,13.38,-142.67,2
4084,60.45,32.48,-145.17,2
4085,60.47,42.71,-123.73,2
4086,60.48,32.03,-101.47,2
4087,60.49,9.28,-97.91,2
4088,60.51,4.45,-92.69,2
4089,60.52,21.67,-83.94,2
4090,60.53,32.14,-104.12,2
4091,60.54,23.05,-145.79,2
4092,60.56,12.41,-150.23,1
4093,60.57,10.57,-102.18,1
4094,60.58,6.72,-51.12,1
4095,60.6,0.34,-27.78,1
4096,60.61,3.91,-14.64,1
4097,60.62,12.67,3.44,1
4098,60.64,12.05,15.74,1
4099,60.65,5.24,16.72,1
4100,60.66,0.75,18.02,1
4101,60.68,-3.25,25.91,1
4102,60.69,-5.72,34.07,1
4103,60.7,-4.86,34.17,1
4104,60.72,-2.32,27.43,1
4105,60.73,3.95,27.79,1
4106,60.74,12.78,41.89,1
4107,60.76,14.34,48.68,1
4108,60.77,4.27,32.27,1
4109,60.78,-6.79,17.47,1
4110,60.8,-7.55,28.24,1
4111,60.81,3.88,50.38,1
4112,60.82,16.14,59.41,1
4113,60.84,11.87,51.0,1
4114,60.85,-2.42,40.64,1
4115,60.865,-6.11,39.2,1
4116,60.88,-3.54,39.34,1
4117,60.89,-8.74,36.56,1
4118,60.9,-14.98,41.74,1
4119,60.92,-10.51,55.16,1
4120,60.93,-3.93,61.25,1
4121,60.95,-6.15,56.11,1
4122,60.96,-10.87,46.26,1
4123,60.97,-10.09,36.56,1
4124,60.99,-4.98,36.1,1
4125,61.0,-1.66,44.39,1
4126,61.01,-1.64,48.64,1
4127,61.03,0.23,44.99,1
4128,61.04,-0.48,41.74,1
4129,61.05,-11.65,45.46,1
4130,61.06,-18.26,49.55,1
4131,61.08,-8.95,42.98,1
4132,61.09,-4.22,31.83,1
4133,61.11,-12.1,29.27,1
4134,61.12,-13.25,32.62,1
4135,61.13,-5.74,35.31,1
4136,61.15,-1.99,40.72,1
4137,61.16,-1.91,47.22,1
4138,61.17,-4.02,47.21,1
4139,61.19,-7.21,37.5,1
4140,61.2,-6.32,21.04,1
4141,61.21,-1.52,10.19,1
4142,61.22,4.83,13.42,1
4143,61.24,8.67,21.1,1
4144,61.25,2.4,21.6,1
4145,61.26,-4.99,16.92,1
4146,61.28,-0.61,15.11,1
4147,61.29,3.63,15.57,1
4148,61.3,-5.14,9.69,1
4149,61.32,-10.57,-0.48,1
4150,61.33,-1.4,-3.17,1
4151,61.34,3.51,4.35,1
4152,61.36,-3.67,11.97,1
4153,61.37,-9.12,7.84,1
4154,61.38,-8.42,-4.96,1
4155,61.4,-4.26,-10.64,1
4156,61.41,1.35,-4.94,1
4157,61.42,4.65,3.29,1
4158,61.44,5.25,5.0,1
4159,61.45,5.52,-0.91,1
4160,61.46,8.07,-7.01,1
4161,61.48,9.32,-8.03,1
4162,61.49,3.54,-3.58,1
4163,61.5,-2.44,3.25,1
4164,61.52,-1.36,1.8,1
4165,61.53,0.69,-13.55,1
4166,61.54,-1.14,-24.91,1
4167,61.56,-3.72,-14.27,1
4168,61.57,-1.72,0.31,1
4169,61.59,5.32,-6.18,1
4170,61.6,6.26,-18.65,1
4171,61.61,-0.28,-15.08,1
4172,61.63,-0.61,-11.1,1
4173,61.64,2.31,-23.46,1
4174,61.65,-2.83,-36.97,1
4175,61.67,-6.49,-34.87,1
4176,61.68,-0.59,-24.91,1
4177,61.69,3.69,-22.08,1
4178,61.71,5.49,-25.17,1
4179,61.72,11.35,-26.09,1
4180,61.73,12.82,-20.19,1
4181,61.75,8.1,-9.03,1
4182,61.76,0.64,-7.51,1
4183,61.77,-9.91,-17.05,1
4184,61.79,-10.87,-17.61,1
4185,61.8,1.1,-11.5,1
4186,61.81,10.88,-12.06,1
4187,61.83,12.47,-7.61,1
4188,61.84,7.68,2.43,1
4189,61.85,1.52,-8.12,1
4190,61.86,-1.58,-33.61,1
4191,61.88,-1.46,-35.54,1
4192,61.89,5.42,-13.39,1
4193,61.9,15.07,-3.95,1
4194,61.92,13.96,-16.13,1
4195,61.93,4.15,-25.48,1
4196,61.94,-0.81,-23.35,1
4197,61.96,0.38,-20.26,1
4198,61.97,-3.34,-16.15,1
4199,61.98,-12.72,-6.69,1
4200,62.0,-6.91,-2.92,1
4201,62.01,15.29,-9.57,1
4202,62.02,18.16,-8.59,1
4203,62.04,-5.53,3.62,1
4204,62.05,-16.36,4.98,1
4205,62.06,-0.26,-6.24,1
4206,62.08,11.18,-12.23,1
4207,62.09,1.42,-12.54,1
4208,62.1,-10.02,-17.77,1
4209,62.12,-10.59,-23.58,1
4210,62.13,-8.66,-20.33,1
4211,62.14,-7.24,-15.14,1
4212,62.16,-1.19,-10.9,2
4213,62.17,7.23,2.26,2
4214,62.19,6.63,5.92,2
4215,62.2,-4.52,8.93,2
4216,62.21,-12.47,78.42,2
4217,62.22,-10.95,172.46,2
4218,62.24,-3.64,170.65,2
4219,62.25,7.83,92.23,2
4220,62.27,16.4,26.37,2
4221,62.28,7.9,17.82,2
4222,62.29,-11.29,88.47,2
4223,62.31,-20.87,157.08,2
4224,62.32,-27.06,61.19,2
4225,62.33,-32.45,-123.96,2
4226,62.35,-18.75,-88.25,2
4227,62.36,1.82,140.37,2
4228,62.37,15.16,185.57,2
4229,62.38,38.26,3.12,2
4230,62.4,63.76,-118.04,2
4231,62.41,71.31,-86.95,2
4232,62.43,70.03,-4.37,2
4233,62.44,63.14,48.68,2
4234,62.45,43.73,21.18,2
4235,62.47,16.02,-76.55,2
4236,62.48,-17.3,-165.02,2
4237,62.49,-36.91,-168.44,2
4238,62.5,-23.36,-114.01,2
4239,62.52,-8.0,-85.89,2
4240,62.53,-15.09,-85.49,2
4241,62.54,-20.44,-105.61,2
4242,62.56,-12.65,-159.3,1
4243,62.57,-8.99,-165.98,1
4244,62.58,-15.98,-81.71,1
4245,62.6,-17.36,-3.06,1
4246,62.61,-3.1,8.48,1
4247,62.62,3.26,-29.42,1
4248,62.64,-17.74,-79.94,1
4249,62.65,-40.44,-92.21,1
4250,62.66,-31.94,-83.39,1
4251,62.68,-4.2,-87.53,1
4252,62.69,7.25,-53.24,1
4253,62.7,-4.31,9.56,1
4254,62.72,-17.45,-3.95,1
4255,62.73,-14.62,-80.29,1
4256,62.74,-2.58,-95.12,1
4257,62.76,-0.08,-28.93,1
4258,62.77,-3.42,27.13,1
4259,62.78,0.7,28.96,1
4260,62.8,1.38,-6.82,1
4261,62.81,-14.65,-35.12,1
4262,62.82,-26.79,-5.11,1
4263,62.84,-12.23,39.95,1
4264,62.85,6.22,40.41,1
4265,62.87,4.09,33.28,1
4266,62.88,0.89,40.75,1
4267,62.89,13.45,36.11,1
4268,62.9,20.04,23.42,1
4269,62.92,0.98,30.36,1
4270,62.93,-24.37,34.88,1
4271,62.95,-25.02,-11.02,1
4272,62.96,-4.55,-43.08,1
4273,62.97,3.61,20.66,1
4274,62.99,-7.23,86.91,1
4275,63.0,-8.91,57.79,1
4276,63.01,-0.78,12.68,1
4277,63.03,-0.08,24.62,1
4278,63.04,6.56,55.25,1
4279,63.05,24.87,70.74,1
4280,63.06,29.22,61.52,1
4281,63.08,8.64,49.87,1
4282,63.09,-15.82,83.65,1
4283,63.11,-15.82,118.97,1
4284,63.12,6.09,87.37,1
4285,63.13,12.0,40.74,1
4286,63.14,-3.2,38.1,1
4287,63.16,0.92,45.19,1
4288,63.17,23.62,30.61,1
4289,63.18,20.6,1.86,1
4290,63.2,-2.63,-22.79,1
4291,63.21,-7.01,-16.15,1
4292,63.22,-0.34,11.22,1
4293,63.24,-3.09,0.08,1
4294,63.25,-6.5,-63.25,1
4295,63.26,-7.39,-90.97,1
4296,63.28,-11.42,-7.39,1
4297,63.29,-15.75,100.17,1
4298,63.3,-19.55,88.09,1
4299,63.32,-20.32,-5.96,1
4300,63.33,-11.21,-32.23,1
4301,63.34,-2.18,16.36,1
4302,63.36,-10.05,33.52,1
4303,63.37,-15.04,13.19,1
4304,63.38,7.19,14.27,1
4305,63.4,22.63,14.92,1
4306,63.41,0.05,-13.29,1
4307,63.42,-24.2,-32.42,1
4308,63.44,-14.11,-8.63,1
4309,63.45,11.26,44.54,1
4310,63.46,17.27,73.63,1
4311,63.48,5.25,58.92,1
4312,63.49,4.28,41.33,1
4313,63.51,16.7,40.78,1
4314,63.52,20.16,33.86,1
4315,63.53,23.34,3.68,1
4316,63.54,39.36,-13.82,1
4317,63.56,37.57,23.36,1
4318,63.57,7.74,62.01,1
4319,63.59,-12.04,27.37,1
4320,63.6,-10.78,-34.25,1
4321,63.61,1.33,-24.49,1
4322,63.63,23.5,38.55,1
4323,63.64,27.68,68.84,1
4324,63.65,2.18,59.58,1
4325,63.67,-8.92,48.93,1
4326,63.68,7.74,36.75,1
4327,63.69,17.78,-1.37,1
4328,63.71,7.37,-45.24,1
4329,63.72,-10.37,-32.08,1
4330,63.73,-19.02,12.36,1
4331,63.75,-16.61,10.72,1
4332,63.76,-18.82,2.65,1
4333,63.77,-21.61,38.73,1
4334,63.78,-4.02,43.81,1
4335,63.8,14.06,-12.23,1
4336,63.81,2.75,-29.33,1
4337,63.82,-8.72,1.22,1
4338,63.84,6.09,-11.79,1
4339,63.85,12.37,-38.02,1
4340,63.86,-5.45,-12.65,1
4341,63.88,-9.7,14.43,1
4342,63.89,5.44,7.22,1
4343,63.9,8.61,-8.88,1
4344,63.92,10.54,-30.12,1
4345,63.93,24.74,-42.35,1
4346,63.94,23.24,-25.32,1
4347,63.96,10.31,-22.45,1
4348,63.97,9.63,-63.07,1
4349,63.98,14.3,-81.02,1
4350,64.0,13.52,-44.16,1
4351,64.01,-1.64,-19.59,1
4352,64.02,-20.76,-31.75,1
4353,64.04,-15.58,-28.35,1
4354,64.05,4.48,0.62,1
4355,64.06,6.97,7.13,1
4356,64.08,-10.0,0.31,1
4357,64.09,-25.18,18.17,1
4358,64.1,-24.04,14.38,1
4359,64.12,-8.36,-25.44,1
4360,64.13,4.79,-25.65,1
4361,64.14,8.02,24.56,1
4362,64.16,8.4,50.7,0
4363,64.17,0.72,17.38,0
4364,64.18,-8.67,-17.33,0
4365,64.2,-0.07,-6.84,0
4366,64.21,12.09,4.96,0
4367,64.22,6.63,-14.17,0
4368,64.24,-1.24,-43.1,0
4369,64.25,6.83,-60.66,0
4370,64.26,16.29,-44.79,0
4371,64.28,8.9,-2.34,0
4372,64.29,-6.78,30.14,0
4373,64.3,-18.21,52.81,0
4374,64.32,-27.48,73.42,0
4375,64.33,-29.36,73.29,0
4376,64.34,-11.81,52.61,0
4377,64.36,10.65,17.25,0
4378,64.37,15.97,-49.71,0
4379,64.38,12.38,-157.44,0
4380,64.4,13.63,-280.94,0
4381,64.41,13.01,-357.06,0
4382,64.42,2.75,-338.57,0
4383,64.44,-11.22,-256.74,0
4384,64.45,-18.06,-174.79,0
4385,64.46,-12.72,-108.45,0
4386,64.48,-5.65,-38.42,0
4387,64.49,-8.66,31.24,0
4388,64.5,-13.47,76.72,0
4389,64.52,-8.29,98.82,0
4390,64.53,1.39,110.41,0
4391,64.54,5.5,115.18,0
4392,64.56,0.28,120.07,1
4393,64.57,-6.9,119.66,1
4394,64.58,-6.19,101.58,1
4395,64.6,-5.59,80.6,1
4396,64.61,-12.72,76.89,1
4397,64.62,-14.95,81.02,1
4398,64.64,-6.21,78.19,1
4399,64.65,0.21,77.06,1
4400,64.66,-2.94,80.98,1
4401,64.68,-6.83,73.77,1
4402,64.69,-4.06,58.08,1
4403,64.7,1.32,54.82,1
4404,64.72,-0.5,66.89,1
4405,64.73,-9.83,78.39,1
4406,64.74,-11.63,76.13,1
4407,64.76,-3.8,65.11,1
4408,64.77,-0.6,56.55,1
4409,64.79,-0.07,45.65,1
4410,64.8,4.45,30.86,1
4411,64.81,1.51,27.35,1
4412,64.82,-9.96,36.6,1
4413,64.84,-10.57,42.54,1
4414,64.85,2.08,37.83,1
4415,64.86,10.77,24.09,1
4416,64.88,10.93,2.49,1
4417,64.89,8.34,-18.12,1
4418,64.9,2.61,-22.05,1
4419,64.92,-4.96,-7.29,1
4420,64.93,-2.97,8.23,1
4421,64.94,11.49,9.31,1
4422,64.96,20.27,-1.7,1
4423,64.97,9.62,-13.39,1
4424,64.98,-4.97,-14.22,1
4425,65.0,-6.92,-3.27,1
4426,65.01,-4.11,8.52,1
4427,65.02,-3.72,12.54,1
4428,65.04,0.64,5.05,1
4429,65.05,6.32,-5.74,1
4430,65.06,4.04,-3.97,1
4431,65.08,-1.77,2.58,1
4432,65.09,-4.83,-1.95,1
4433,65.1,-9.89,-10.17,1
4434,65.12,-11.65,-14.95,1
4435,65.13,-1.03,-17.7,1
4436,65.14,9.62,-13.06,1
4437,65.16,6.05,-6.08,1
4438,65.17,-5.61,-12.36,1
4439,65.18,-10.47,-26.79,1
4440,65.2,-5.6,-30.66,1
4441,65.21,1.7,-26.43,1
4442,65.22,5.83,-28.34,1
4443,65.24,4.27,-29.01,1
4444,65.25,-0.88,-20.35,1
4445,65.26,-2.63,-17.76,1
4446,65.28,1.5,-24.38,1
4447,65.29,3.19,-19.54,1
4448,65.3,1.16,-5.1,1
4449,65.32,6.01,-7.09,1
4450,65.33,15.57,-24.46,1
4451,65.34,16.37,-31.14,1
4452,65.36,7.47,-22.55,1
4453,65.37,-0.93,-15.4,1
4454,65.38,-1.94,-14.15,1
4455,65.4,1.77,-12.83,1
4456,65.41,3.15,-15.0,1
4457,65.43,-0.78,-21.71,1
4458,65.44,-2.95,-28.48,1
4459,65.45,2.69,-38.96,1
4460,65.46,8.94,-46.83,1
4461,65.48,9.08,-34.51,1
4462,65.49,2.32,-13.05,1
4463,65.5,-8.21,-12.88,1
4464,65.52,-7.52,-29.48,1
4465,65.53,5.72,-31.75,1
4466,65.54,10.3,-16.94,1
4467,65.56,4.75,-9.1,1
4468,65.57,1.89,-13.32,1
4469,65.58,0.21,-14.68,1
4470,65.6,0.92,-16.75,1
4471,65.61,10.18,-30.97,1
4472,65.62,17.79,-37.59,1
4473,65.64,12.51,-19.26,1
4474,65.65,-0.64,-4.18,1
4475,65.66,-12.0,-15.91,1
4476,65.68,-11.08,-25.01,1
4477,65.69,5.51,-8.72,1
4478,65.7,18.99,3.24,1
4479,65.72,15.87,-5.18,1
4480,65.73,7.1,-7.97,1
4481,65.74,1.64,1.19,1
4482,65.76,0.04,0.65,1
4483,65.77,-0.79,-12.69,1
4484,65.78,-6.98,-19.56,1
4485,65.8,-12.83,-11.75,1
4486,65.81,-8.24,-1.84,1
4487,65.82,1.42,4.48,1
4488,65.84,7.34,13.43,1
4489,65.85,5.76,13.32,1
4490,65.86,-3.48,-4.06,1
4491,65.88,-9.89,-13.79,1
4492,65.89,-10.62,-3.59,1
4493,65.9,-15.97,9.41,1
4494,65.92,-18.31,16.62,1
4495,65.93,-6.05,16.66,1
4496,65.94,8.5,9.31,1
4497,65.96,12.81,3.17,1
4498,65.97,6.09,4.41,1
4499,65.98,-4.77,10.86,1
4500,66.0,-4.86,15.16,1
4501,66.01,3.25,11.89,1
4502,66.02,4.85,4.95,1
4503,66.04,5.34,0.59,1
4504,66.05,6.3,0.19,1
4505,66.06,-3.69,2.22,1
4506,66.08,-15.8,7.58,1
4507,66.09,-16.26,17.81,1
4508,66.11,-11.46,20.94,1
4509,66.12,-4.82,7.16,1
4510,66.13,9.0,-2.22,1
4511,66.14,18.64,12.77,1
4512,66.16,11.35,27.4,0
4513,66.17,-0.18,15.75,0
4514,66.18,-6.5,-0.81,0
4515,66.2,-14.0,3.79,0
4516,66.21,-17.34,19.29,0
4517,66.22,-10.73,17.12,0
4518,66.24,-0.58,-23.53,0
4519,66.25,5.38,-77.63,0
4520,66.26,1.8,-94.46,0
4521,66.28,-3.42,-81.46,0
4522,66.29,1.87,-80.48,0
4523,66.3,11.21,-90.94,0
4524,66.32,13.94,-96.29,0
4525,66.33,15.87,-105.54,0
4526,66.34,22.71,-124.42,0
4527,66.36,26.37,-131.92,0
4528,66.37,21.49,-110.59,0
4529,66.38,12.97,-72.33,0
4530,66.4,7.41,-38.68,0
4531,66.41,6.01,-14.87,0
4532,66.42,2.33,10.24,0
4533,66.44,-7.8,43.18,0
4534,66.45,-21.3,69.79,0
4535,66.46,-28.82,82.93,0
4536,66.48,-20.15,101.04,0
4537,66.49,-6.39,124.29,0
4538,66.5,-9.18,139.7,0
4539,66.52,-17.67,159.28,0
4540,66.53,-13.0,182.25,0
4541,66.54,-6.38,188.42,0
4542,66.56,-9.83,178.62,1
4543,66.57,-16.01,163.62,1
4544,66.58,-13.27,145.14,1
4545,66.6,-0.48,117.23,1
4546,66.61,6.62,82.05,1
4547,66.62,4.6,64.0,1
4548,66.64,5.43,79.45,1
4549,66.65,0.5,105.41,1
4550,66.66,-12.53,106.73,1
4551,66.68,-14.74,85.72,1
4552,66.69,-10.41,70.94,1
4553,66.7,-12.38,67.31,1
4554,66.72,-14.83,61.97,1
4555,66.73,-14.56,51.88,1
4556,66.75,-9.18,42.31,1
4557,66.76,2.06,38.49,1
4558,66.77,2.03,32.82,1
4559,66.79,-12.14,17.61,1
4560,66.8,-13.21,9.73,1
4561,66.81,6.9,15.08,1
4562,66.82,15.45,14.46,1
4563,66.84,-2.32,9.04,1
4564,66.85,-11.92,9.05,1
4565,66.86,3.01,3.7,1
4566,66.88,11.17,-12.38,1
4567,66.89,1.62,-26.05,1
4568,66.9,-5.32,-29.42,1
4569,66.92,-3.73,-29.71,1
4570,66.93,3.41,-35.49,1
4571,66.94,11.92,-41.5,1
4572,66.96,12.86,-38.88,1
4573,66.97,10.63,-34.8,1
4574,66.98,9.02,-42.55,1
4575,67.0,1.46,-56.05,1
4576,67.01,-1.45,-56.67,1
4577,67.02,8.85,-48.24,1
4578,67.04,11.13,-51.01,1
4579,67.05,-2.56,-62.77,1
4580,67.06,-8.07,-66.2,1
4581,67.08,1.36,-58.59,1
4582,67.09,6.43,-51.1,1
4583,67.1,3.08,-54.82,1
4584,67.12,3.96,-64.6,1
4585,67.13,7.39,-63.8,1
4586,67.14,4.55,-56.79,1
4587,67.16,3.36,-60.95,1
4588,67.17,8.44,-66.03,1
4589,67.18,6.38,-54.4,1
4590,67.2,-3.71,-39.76,1
4591,67.21,-6.15,-41.53,1
4592,67.22,1.43,-54.64,1
4593,67.24,9.41,-58.95,1
4594,67.25,16.34,-46.05,1
4595,67.26,16.38,-32.84,1
4596,67.28,0.32,-34.66,1
4597,67.29,-12.93,-43.82,1
4598,67.3,-1.51,-47.89,1
4599,67.32,17.76,-44.1,1
4600,67.33,19.68,-39.08,1
4601,67.34,5.89,-39.42,1
4602,67.36,-6.27,-39.38,1
4603,67.37,-6.3,-33.5,1
4604,67.38,1.16,-28.78,1
4605,67.4,8.85,-29.41,1
4606,67.41,14.76,-32.72,1
4607,67.43,12.9,-37.3,1
4608,67.44,1.69,-37.77,1
4609,67.45,-6.57,-29.28,1
4610,67.46,-5.95,-18.28,1
4611,67.48,-2.77,-14.96,1
4612,67.49,-0.56,-19.4,1
4613,67.5,0.49,-20.54,1
4614,67.52,3.09,-15.92,1
4615,67.53,8.31,-12.72,1
4616,67.54,7.19,-5.82,1
4617,67.56,-3.44,2.17,1
4618,67.57,-7.93,-4.75,1
4619,67.58,5.49,-12.38,1
4620,67.6,19.14,-1.14,1
4621,67.61,9.03,8.41,1
4622,67.62,-9.66,1.48,1
4623,67.64,-7.92,-2.95,1
4624,67.65,4.16,2.5,1
4625,67.66,1.98,4.28,1
4626,67.68,-7.32,1.72,1
4627,67.69,-6.7,3.3,1
4628,67.7,-3.08,8.73,1
4629,67.72,-5.51,15.4,1
4630,67.73,-6.35,18.98,1
4631,67.74,-4.44,14.65,1
4632,67.76,-3.7,6.93,1
4633,67.77,0.95,5.77,1
4634,67.78,4.59,11.19,1
4635,67.8,-1.67,13.23,1
4636,67.81,-6.68,11.85,1
4637,67.82,-0.7,19.11,1
4638,67.84,2.93,29.52,1
4639,67.85,-1.02,22.57,1
4640,67.86,0.09,5.53,1
4641,67.88,5.79,6.38,1
4642,67.89,7.96,20.92,1
4643,67.9,7.8,23.41,1
4644,67.92,4.16,17.16,1
4645,67.93,-3.77,20.5,1
4646,67.94,-8.34,25.74,1
4647,67.96,-6.4,20.28,1
4648,67.97,-4.7,15.44,1
4649,67.98,-6.83,20.42,1
4650,68.0,-9.66,24.05,1
4651,68.01,-11.1,19.09,1
4652,68.02,-9.14,15.0,1
4653,68.04,0.06,20.07,1
4654,68.05,10.66,25.48,1
4655,68.06,9.3,22.21,1
4656,68.08,-3.39,18.19,1
4657,68.09,-13.89,19.95,1
4658,68.11,-11.77,19.28,1
4659,68.12,-0.57,16.56,1
4660,68.13,3.32,24.93,1
4661,68.14,-0.94,43.84,1
4662,68.16,3.92,65.66,2
4663,68.17,11.04,91.38,2
4664,68.18,1.45,117.94,2
4665,68.2,-9.91,150.07,2
4666,68.21,-2.4,204.57,2
4667,68.22,11.53,258.42,2
4668,68.24,11.77,264.42,2
4669,68.25,3.48,227.81,2
4670,68.26,12.5,181.61,2
4671,68.28,44.35,127.38,2
4672,68.29,64.86,60.66,2
4673,68.3,48.29,-0.47,2
4674,68.32,10.39,-47.35,2
4675,68.33,-27.06,-90.49,2
4676,68.34,-59.99,-134.77,2
4677,68.36,-88.13,-178.34,2
4678,68.37,-100.96,-211.88,2
4679,68.38,-86.76,-217.34,2
4680,68.4,-57.37,-195.9,2
4681,68.41,-31.94,-169.16,2
4682,68.42,-12.39,-148.85,2
4683,68.44,-1.07,-138.55,2
4684,68.45,1.99,-136.42,2
4685,68.46,6.46,-127.94,2
4686,68.48,10.87,-105.86,2
4687,68.49,12.69,-86.56,2
4688,68.5,14.94,-86.48,2
4689,68.52,15.37,-91.66,2
4690,68.53,19.04,-81.05,2
4691,68.54,27.5,-62.87,2
4692,68.56,26.72,-49.74,1
4693,68.57,18.04,-41.51,1
4694,68.58,15.34,-40.56,1
4695,68.6,17.36,-41.94,1
4696,68.61,16.97,-36.34,1
4697,68.62,13.06,-29.74,1
4698,68.64,6.63,-25.99,1
4699,68.65,2.69,-17.14,1
4700,68.66,8.31,-4.76,1
4701,68.68,15.02,1.5,1
4702,68.69,8.72,2.16,1
4703,68.7,0.82,5.05,1
4704,68.72,9.59,10.9,1
4705,68.73,21.46,15.65,1
4706,68.75,14.82,21.19,1
4707,68.76,1.75,28.37,1
4708,68.77,1.69,28.97,1
4709,68.79,3.1,20.74,1
4710,68.8,-4.35,14.39,1
4711,68.81,-4.03,18.21,1
4712,68.82,7.22,26.29,1
4713,68.84,7.8,30.23,1
4714,68.85,-4.49,31.53,1
4715,68.86,-8.74,32.17,1
4716,68.88,1.68,30.08,1
4717,68.89,8.91,30.12,1
4718,68.9,-0.41,36.61,1
4719,68.92,-12.07,42.06,1
4720,68.93,-8.89,39.23,1
4721,68.94,-0.22,30.33,1
4722,68.96,0.34,25.4,1
4723,68.97,-0.75,34.77,1
4724,68.98,2.83,49.03,1
4725,69.0,5.29,51.5,1
4726,69.01,6.04,51.98,1
4727,69.02,5.94,61.32,1
4728,69.04,-0.85,60.12,1
4729,69.05,-7.3,37.69,1
4730,69.06,-1.89,20.01,1
4731,69.08,1.73,25.43,1
4732,69.09,-9.01,35.74,1
4733,69.1,-14.34,34.04,1
4734,69.12,-1.89,24.92,1
4735,69.13,6.33,16.92,1
4736,69.14,-3.55,17.82,1
4737,69.16,-11.43,25.76,1
4738,69.17,-3.43,27.5,1
4739,69.18,1.37,23.89,1
4740,69.2,-8.8,26.53,1
4741,69.21,-13.42,28.65,1
4742,69.22,-6.38,22.74,1
4743,69.24,-4.29,21.53,1
4744,69.25,-3.35,25.89,1
4745,69.26,2.66,24.88,1
4746,69.28,3.98,21.89,1
4747,69.29,1.63,19.83,1
4748,69.3,2.13,18.67,1
4749,69.32,1.8,20.49,1
4750,69.33,-1.72,19.96,1
4751,69.34,-4.87,14.85,1
4752,69.36,-4.41,11.96,1
4753,69.37,1.59,13.49,1
4754,69.38,10.04,15.92,1
4755,69.4,11.21,19.18,1
4756,69.41,4.48,17.71,1
4757,69.43,-0.83,5.19,1
4758,69.44,-1.76,-2.13,1
4759,69.45,-0.72,8.83,1
4760,69.46,-2.46,18.19,1
4761,69.48,-6.67,10.23,1
4762,69.49,-3.46,-4.12,1
4763,69.5,7.66,-11.22,1
4764,69.52,11.54,-7.45,1
4765,69.53,-0.24,-2.98,1
4766,69.54,-13.76,-5.35,1
4767,69.56,-9.58,-5.58,1
4768,69.57,4.23,-3.33,1
4769,69.58,7.51,-8.51,1
4770,69.6,6.03,-16.49,1
4771,69.61,10.65,-18.69,1
4772,69.62,10.41,-19.49,1
4773,69.64,-3.39,-20.16,1
4774,69.65,-18.96,-13.05,1
4775,69.66,-18.51,-4.77,1
4776,69.68,-0.99,-9.04,1
4777,69.69,11.63,-20.86,1
4778,69.7,2.21,-26.87,1
4779,69.72,-12.98,-24.27,1
4780,69.73,-13.25,-18.56,1
4781,69.74,-5.42,-13.3,1
4782,69.76,-1.08,-7.3,1
4783,69.77,2.92,-2.01,1
4784,69.78,5.72,-2.5,1
4785,69.8,0.46,-8.63,1
4786,69.81,-6.42,-14.27,1
4787,69.82,-4.39,-15.31,1
4788,69.84,1.34,-13.79,1
4789,69.85,4.32,-14.82,1
4790,69.86,7.46,-18.89,1
4791,69.88,5.89,-19.61,1
4792,69.89,-6.27,-14.22,1
4793,69.9,-17.57,-11.21,1
4794,69.92,-12.65,-15.72,1
4795,69.93,0.39,-21.5,1
4796,69.94,-1.5,-22.56,1
4797,69.96,-11.99,-26.49,1
4798,69.97,-3.88,-33.91,1
4799,69.98,10.23,-25.73,1
4800,70.0,3.42,-2.19,1
4801,70.01,-4.49,9.13,1
4802,70.02,8.03,-3.07,1
4803,70.04,17.9,-19.27,1
4804,70.05,10.76,-21.8,1
4805,70.06,3.97,-15.42,1
4806,70.08,2.5,-13.39,1
4807,70.09,-2.55,-20.08,1
4808,70.11,-7.25,-20.13,1
4809,70.12,-3.7,4.8,1
4810,70.13,4.87,42.92,1
4811,70.14,7.11,73.05,1
4812,70.16,-1.05,92.03,2
4813,70.17,-6.61,96.27,2
4814,70.18,2.11,76.68,2
4815,70.2,15.89,29.5,2
4816,70.21,18.86,-23.63,2
4817,70.22,7.13,-22.03,2
4818,70.24,-12.37,38.74,2
4819,70.25,-29.1,43.78,2
4820,70.26,-33.76,-55.7,2
4821,70.28,-22.65,-102.91,2
4822,70.29,-3.6,19.7,2
4823,70.3,8.78,107.01,2
4824,70.32,9.48,-28.1,2
4825,70.33,7.68,-132.33,2
4826,70.34,13.54,-54.64,2
4827,70.36,24.7,-57.04,2
4828,70.37,30.82,-116.71,2
4829,70.38,28.57,15.65,2
4830,70.4,18.56,163.09,2
4831,70.41,5.17,94.28,2
4832,70.42,1.8,0.23,2
4833,70.44,14.44,36.75,2
4834,70.45,25.55,56.68,2
4835,70.46,14.89,12.33,2
4836,70.48,0.1,-12.29,2
4837,70.49,1.38,-44.71,2
4838,70.5,0.13,-65.21,2
4839,70.52,-7.78,-18.22,2
4840,70.53,-8.52,-17.79,2
4841,70.54,-4.17,-119.94,2
4842,70.56,4.87,-168.46,1
4843,70.57,6.01,-120.24,1
4844,70.58,-14.22,-109.84,1
4845,70.6,-33.21,-124.86,1
4846,70.61,-23.43,-73.47,1
4847,70.62,4.72,-5.47,1
4848,70.64,13.74,2.29,1
4849,70.65,-4.07,-37.78,1
4850,70.66,-8.39,-64.21,1
